  Pressure (Pa) 22mC5-400 (mol/kg) 2mC6-400 (mol/kg) 3mC6-400 (mol/kg) 23mC5-400 (mol/kg) C7-400 (mol/kg)
    0.1000000000E+01    0.1061898578E-02    0.7922865066E-03    0.2624517560E-02    0.7458300199E-03    0.6814257174E-02
    0.3000000000E+01    0.3164005878E-02    0.2311143665E-02    0.7647528414E-02    0.2222268326E-02    0.1985869339E-01
    0.5000000000E+01    0.5237743786E-02    0.3748306464E-02    0.1239035959E-01    0.3678797189E-02    0.3217902207E-01
    0.7000000000E+01    0.7283754968E-02    0.5110206712E-02    0.1687599587E-01    0.5115867537E-02    0.4383455254E-01
    0.9000000000E+01    0.9302662404E-02    0.6402592836E-02    0.2112496996E-01    0.6533916490E-02    0.5487827167E-01
    0.1100000000E+02    0.1129507014E-01    0.7630619382E-02    0.2515568109E-01    0.7933367882E-02    0.6535766518E-01
    0.1300000000E+02    0.1326156399E-01    0.8798922804E-02    0.2898466527E-01    0.9314632756E-02    0.7531541411E-01
    0.1500000000E+02    0.1520271223E-01    0.9911685903E-02    0.3262682548E-01    0.1067810985E-01    0.8478998798E-01
    0.1700000000E+02    0.1711906622E-01    0.1097269287E-01    0.3609562850E-01    0.1202418603E-01    0.9381615231E-01
    0.1900000000E+02    0.1901116106E-01    0.1198537645E-01    0.3940327398E-01    0.1335323677E-01    0.1024254043E+00
    0.2100000000E+02    0.2087951615E-01    0.1295285863E-01    0.4256084016E-01    0.1466562652E-01    0.1106463487E+00
    0.2300000000E+02    0.2272463580E-01    0.1387798563E-01    0.4557840991E-01    0.1596170912E-01    0.1185050224E+00
    0.2500000000E+02    0.2454700972E-01    0.1476335841E-01    0.4846518021E-01    0.1724182821E-01    0.1260251770E+00
    0.2700000000E+02    0.2634711358E-01    0.1561135908E-01    0.5122955737E-01    0.1850631755E-01    0.1332285240E+00
    0.2900000000E+02    0.2812540953E-01    0.1642417398E-01    0.5387924034E-01    0.1975550142E-01    0.1401349499E+00
    0.3100000000E+02    0.2988234659E-01    0.1720381392E-01    0.5642129362E-01    0.2098969489E-01    0.1467627043E+00
    0.3300000000E+02    0.3161836121E-01    0.1795213187E-01    0.5886221139E-01    0.2220920421E-01    0.1531285648E+00
    0.3500000000E+02    0.3333387766E-01    0.1867083860E-01    0.6120797397E-01    0.2341432708E-01    0.1592479831E+00
    0.3700000000E+02    0.3502930842E-01    0.1936151646E-01    0.6346409771E-01    0.2460535296E-01    0.1651352131E+00
    0.3900000000E+02    0.3670505467E-01    0.2002563152E-01    0.6563567920E-01    0.2578256332E-01    0.1708034257E+00
    0.4100000000E+02    0.3836150659E-01    0.2066454443E-01    0.6772743449E-01    0.2694623196E-01    0.1762648092E+00
    0.4300000000E+02    0.3999904377E-01    0.2127952004E-01    0.6974373399E-01    0.2809662524E-01    0.1815306600E+00
    0.4500000000E+02    0.4161803559E-01    0.2187173591E-01    0.7168863363E-01    0.2923400235E-01    0.1866114622E+00
    0.4700000000E+02    0.4321884151E-01    0.2244229003E-01    0.7356590267E-01    0.3035861553E-01    0.1915169601E+00
    0.4900000000E+02    0.4480181144E-01    0.2299220763E-01    0.7537904862E-01    0.3147071030E-01    0.1962562221E+00
    0.1000000000E+02    0.1030214170E-01    0.7024349940E-02    0.2316653410E-01    0.7235940897E-02    0.6018573636E-01
    0.3000000000E+02    0.2900652035E-01    0.1681802150E-01    0.5516330213E-01    0.2037445261E-01    0.1434825798E+00
    0.5000000000E+02    0.4558671471E-01    0.2325972975E-01    0.7626260551E-01    0.3202213824E-01    0.1985661781E+00
    0.7000000000E+02    0.6042678358E-01    0.2772956526E-01    0.9125315361E-01    0.4244848990E-01    0.2378117005E+00
    0.9000000000E+02    0.7382087932E-01    0.3092497470E-01    0.1024711314E+00    0.5185991924E-01    0.2672622034E+00
    0.1100000000E+03    0.8599813573E-01    0.3324374895E-01    0.1111931965E+00    0.6041721793E-01    0.2902231867E+00
    0.1300000000E+03    0.9713975386E-01    0.3493288993E-01    0.1181765879E+00    0.6824754495E-01    0.3086571373E+00
    0.1500000000E+03    0.1073909865E+00    0.3615555372E-01    0.1238992519E+00    0.7545283502E-01    0.3238038868E+00
    0.1700000000E+03    0.1168697074E+00    0.3702461810E-01    0.1286779453E+00    0.8211581094E-01    0.3364859016E+00
    0.1900000000E+03    0.1256726448E+00    0.3762099768E-01    0.1327310329E+00    0.8830435749E-01    0.3472707033E+00
    0.2100000000E+03    0.1338799879E+00    0.3800432987E-01    0.1362140206E+00    0.9407475338E-01    0.3565628239E+00
    0.2300000000E+03    0.1415588388E+00    0.3821955618E-01    0.1392407092E+00    0.9947409345E-01    0.3646585809E+00
    0.2500000000E+03    0.1487658331E+00    0.3830115913E-01    0.1418963337E+00    0.1045421278E+00    0.3717801176E+00
    0.2700000000E+03    0.1555491538E+00    0.3827599134E-01    0.1442460223E+00    0.1093126745E+00    0.3780973315E+00
    0.2900000000E+03    0.1619500952E+00    0.3816522354E-01    0.1463404125E+00    0.1138147175E+00    0.3837424417E+00
    0.3100000000E+03    0.1680042900E+00    0.3798572081E-01    0.1482194821E+00    0.1180732673E+00    0.3888199297E+00
    0.3300000000E+03    0.1737426810E+00    0.3775103671E-01    0.1499152229E+00    0.1221100430E+00    0.3934134824E+00
    0.3500000000E+03    0.1791922981E+00    0.3747214492E-01    0.1514535467E+00    0.1259440177E+00    0.3975909450E+00
    0.3700000000E+03    0.1843768832E+00    0.3715798679E-01    0.1528556697E+00    0.1295918569E+00    0.4014079182E+00
    0.3900000000E+03    0.1893173984E+00    0.3681588701E-01    0.1541391337E+00    0.1330682750E+00    0.4049104151E+00
    0.4100000000E+03    0.1940324404E+00    0.3645187307E-01    0.1553185713E+00    0.1363863264E+00    0.4081368536E+00
    0.4300000000E+03    0.1985385824E+00    0.3607092375E-01    0.1564062879E+00    0.1395576453E+00    0.4111195696E+00
    0.4500000000E+03    0.2028506569E+00    0.3567716415E-01    0.1574127079E+00    0.1425926440E+00    0.4138859818E+00
    0.4700000000E+03    0.2069819911E+00    0.3527402033E-01    0.1583467227E+00    0.1455006786E+00    0.4164594973E+00
    0.4900000000E+03    0.2109446048E+00    0.3486434274E-01    0.1592159635E+00    0.1482901873E+00    0.4188602238E+00
    0.1000000000E+03    0.8004932437E-01    0.3217598523E-01    0.1070883127E+00    0.5623671176E-01    0.2794092092E+00
    0.3000000000E+03    0.1650185020E+00    0.3808314896E-01    0.1473047011E+00    0.1159730014E+00    0.3863464866E+00
    0.5000000000E+03    0.2128660816E+00    0.3465781203E-01    0.1596283881E+00    0.1496429096E+00    0.4200013142E+00
    0.7000000000E+03    0.2446071605E+00    0.3058313563E-01    0.1656837876E+00    0.1719978269E+00    0.4369416801E+00
    0.9000000000E+03    0.2674118064E+00    0.2702529303E-01    0.1693013698E+00    0.1880719812E+00    0.4472950188E+00
    0.1100000000E+04    0.2846110942E+00    0.2409080075E-01    0.1717114699E+00    0.2002048168E+00    0.4543449277E+00
    0.1300000000E+04    0.2980298487E+00    0.2169306892E-01    0.1734334094E+00    0.2096782967E+00    0.4594896718E+00
    0.1500000000E+04    0.3087714412E+00    0.1972482275E-01    0.1747251609E+00    0.2172677825E+00    0.4634297129E+00
    0.1700000000E+04    0.3175480111E+00    0.1809410663E-01    0.1757296995E+00    0.2234738561E+00    0.4665564319E+00
    0.1900000000E+04    0.3248412468E+00    0.1672866647E-01    0.1765327882E+00    0.2286352076E+00    0.4691064547E+00
    0.2100000000E+04    0.3309888664E+00    0.1557315071E-01    0.1771890528E+00    0.2329893653E+00    0.4712316593E+00
    0.2300000000E+04    0.3362345666E+00    0.1458533638E-01    0.1777349662E+00    0.2367077776E+00    0.4730342174E+00
    0.2500000000E+04    0.3407584519E+00    0.1373287645E-01    0.1781958259E+00    0.2399171892E+00    0.4745855185E+00
    0.2700000000E+04    0.3446963615E+00    0.1299079178E-01    0.1785897381E+00    0.2427132211E+00    0.4759370288E+00
    0.2900000000E+04    0.3481525681E+00    0.1233960966E-01    0.1789300077E+00    0.2451692935E+00    0.4771268384E+00
    0.3100000000E+04    0.3512083587E+00    0.1176399879E-01    0.1792266338E+00    0.2473426584E+00    0.4781837743E+00
    0.3300000000E+04    0.3539279760E+00    0.1125176898E-01    0.1794872775E+00    0.2492785753E+00    0.4791300781E+00
    0.3500000000E+04    0.3563628182E+00    0.1079313472E-01    0.1797179088E+00    0.2510132648E+00    0.4799832003E+00
    0.3700000000E+04    0.3585544640E+00    0.1038016902E-01    0.1799232491E+00    0.2525760354E+00    0.4807570359E+00
    0.3900000000E+04    0.3605368864E+00    0.1000639490E-01    0.1801070815E+00    0.2539908415E+00    0.4814627945E+00
    0.4100000000E+04    0.3623380987E+00    0.9666477010E-02    0.1802724734E+00    0.2552774404E+00    0.4821096250E+00
    0.4300000000E+04    0.3639813931E+00    0.9355986766E-02    0.1804219379E+00    0.2564522644E+00    0.4827050731E+00
    0.4500000000E+04    0.3654862855E+00    0.9071221838E-02    0.1805575535E+00    0.2575290854E+00    0.4832554214E+00
    0.4700000000E+04    0.3668692434E+00    0.8809066170E-02    0.1806810546E+00    0.2585195274E+00    0.4837659456E+00
    0.4900000000E+04    0.3681442535E+00    0.8566880541E-02    0.1807938993E+00    0.2594334661E+00    0.4842411110E+00
    0.1000000000E+04    0.2765753660E+00    0.2548418195E-01    0.1706159468E+00    0.1945350008E+00    0.4511216679E+00
    0.3000000000E+04    0.3497261568E+00    0.1204318361E-01    0.1790832514E+00    0.2462882441E+00    0.4776703955E+00
    0.5000000000E+04    0.3687450822E+00    0.8452560510E-02    0.1808467189E+00    0.2598644334E+00    0.4844666459E+00
    0.7000000000E+04    0.3772463795E+00    0.6811906992E-02    0.1815631996E+00    0.2659880282E+00    0.4878056242E+00
    0.9000000000E+04    0.3820192277E+00    0.5853406662E-02    0.1819271663E+00    0.2694576127E+00    0.4898618250E+00
    0.1100000000E+05    0.3850613892E+00    0.5213047222E-02    0.1821328706E+00    0.2716895928E+00    0.4912864355E+00
    0.1300000000E+05    0.3871639543E+00    0.4748257943E-02    0.1822554370E+00    0.2732465730E+00    0.4923478049E+00
    0.1500000000E+05    0.3887010635E+00    0.4391587326E-02    0.1823297628E+00    0.2743954515E+00    0.4931784587E+00
    0.1700000000E+05    0.3898720874E+00    0.4106803178E-02    0.1823741189E+00    0.2752788899E+00    0.4938520718E+00
    0.1900000000E+05    0.3907928106E+00    0.3872587498E-02    0.1823989156E+00    0.2759799951E+00    0.4944131928E+00
    0.2100000000E+05    0.3915349987E+00    0.3675509671E-02    0.1824104708E+00    0.2765504381E+00    0.4948905072E+00
    0.2300000000E+05    0.3921454636E+00    0.3506646404E-02    0.1824128104E+00    0.2770240277E+00    0.4953034125E+00
    0.2500000000E+05    0.3926560217E+00    0.3359812132E-02    0.1824086014E+00    0.2774238140E+00    0.4956655494E+00
    0.2700000000E+05    0.3930890425E+00    0.3230568057E-02    0.1823996667E+00    0.2777660536E+00    0.4959868235E+00
    0.2900000000E+05    0.3934607056E+00    0.3115635984E-02    0.1823872849E+00    0.2780625414E+00    0.4962746231E+00
    0.3100000000E+05    0.3937829996E+00    0.3012535467E-02    0.1823723729E+00    0.2783220442E+00    0.4965345853E+00
    0.3300000000E+05    0.3940649934E+00    0.2919350434E-02    0.1823555995E+00    0.2785512146E+00    0.4967710960E+00
    0.3500000000E+05    0.3943136729E+00    0.2834574086E-02    0.1823374606E+00    0.2787551930E+00    0.4969876252E+00
    0.3700000000E+05    0.3945345046E+00    0.2757002872E-02    0.1823183283E+00    0.2789380145E+00    0.4971869595E+00
    0.3900000000E+05    0.3947318271E+00    0.2685662199E-02    0.1822984852E+00    0.2791028917E+00    0.4973713660E+00
    0.4100000000E+05    0.3949091267E+00    0.2619753242E-02    0.1822781476E+00    0.2792524140E+00    0.4975427109E+00
    0.4300000000E+05    0.3950692367E+00    0.2558614118E-02    0.1822574823E+00    0.2793886924E+00    0.4977025459E+00
    0.4500000000E+05    0.3952144828E+00    0.2501691059E-02    0.1822366190E+00    0.2795134653E+00    0.4978521740E+00
    0.4700000000E+05    0.3953467919E+00    0.2448516674E-02    0.1822156587E+00    0.2796281773E+00    0.4979926983E+00
    0.4900000000E+05    0.3954677736E+00    0.2398693330E-02    0.1821946805E+00    0.2797340390E+00    0.4981250597E+00
    0.1000000000E+05    0.3836926563E+00    0.5505001584E-02    0.1820436951E+00    0.2706828332E+00    0.4906316204E+00
    0.3000000000E+05    0.3936273999E+00    0.3062737651E-02    0.1823800986E+00    0.2781964588E+00    0.4964077850E+00
    0.5000000000E+05    0.3955244487E+00    0.2374929886E-02    0.1821842045E+00    0.2797839768E+00    0.4981884365E+00
    0.7000000000E+05    0.3963018537E+00    0.2013685425E-02    0.1819831108E+00    0.2804991265E+00    0.4991749663E+00
    0.9000000000E+05    0.3967147190E+00    0.1781525388E-02    0.1818046756E+00    0.2809158354E+00    0.4998383921E+00
    0.1100000000E+06    0.3969655431E+00    0.1616004126E-02    0.1816479310E+00    0.2811933891E+00    0.5003308470E+00
    0.1300000000E+06    0.3971310117E+00    0.1490215563E-02    0.1815091292E+00    0.2813941168E+00    0.5007189798E+00
    0.1500000000E+06    0.3972463821E+00    0.1390384385E-02    0.1813849130E+00    0.2815476072E+00    0.5010374467E+00
    0.1700000000E+06    0.3973300486E+00    0.1308622756E-02    0.1812726388E+00    0.2816697918E+00    0.5013063928E+00
    0.1900000000E+06    0.3973925068E+00    0.1240042433E-02    0.1811702673E+00    0.2817700493E+00    0.5015384868E+00
    0.2100000000E+06    0.3974401599E+00    0.1181429816E-02    0.1810762173E+00    0.2818542821E+00    0.5017421775E+00
    0.2300000000E+06    0.3974771235E+00    0.1130573072E-02    0.1809892478E+00    0.2819264025E+00    0.5019233615E+00
    0.2500000000E+06    0.3975061550E+00    0.1085892933E-02    0.1809083705E+00    0.2819891135E+00    0.5020863064E+00
    0.2700000000E+06    0.3975291663E+00    0.1046227364E-02    0.1808327882E+00    0.2820443478E+00    0.5022341942E+00
    0.2900000000E+06    0.3975475211E+00    0.1010699610E-02    0.1807618487E+00    0.2820935264E+00    0.5023694565E+00
    0.3100000000E+06    0.3975622158E+00    0.9786339301E-03    0.1806950127E+00    0.2821377202E+00    0.5024939911E+00
    0.3300000000E+06    0.3975739939E+00    0.9494999212E-03    0.1806318294E+00    0.2821777526E+00    0.5026093057E+00
    0.3500000000E+06    0.3975834198E+00    0.9228746009E-03    0.1805719180E+00    0.2822142682E+00    0.5027166167E+00
    0.3700000000E+06    0.3975909289E+00    0.8984159341E-03    0.1805149543E+00    0.2822477799E+00    0.5028169193E+00
    0.3900000000E+06    0.3975968620E+00    0.8758439245E-03    0.1804606599E+00    0.2822787010E+00    0.5029110372E+00
    0.4100000000E+06    0.3976014886E+00    0.8549268431E-03    0.1804087942E+00    0.2823073693E+00    0.5029996595E+00
    0.4300000000E+06    0.3976050247E+00    0.8354710195E-03    0.1803591475E+00    0.2823340633E+00    0.5030833683E+00
    0.4500000000E+06    0.3976076448E+00    0.8173131568E-03    0.1803115365E+00    0.2823590153E+00    0.5031626595E+00
    0.4700000000E+06    0.3976094913E+00    0.8003144624E-03    0.1802657994E+00    0.2823824207E+00    0.5032379587E+00
    0.4900000000E+06    0.3976106811E+00    0.7843561092E-03    0.1802217931E+00    0.2824044452E+00    0.5033096341E+00
    0.1000000000E+06    0.3968541311E+00    0.1692563874E-02    0.1817238242E+00    0.2810669650E+00    0.5001007400E+00
    0.3000000000E+06    0.3975552746E+00    0.9942700548E-03    0.1807279478E+00    0.2821161901E+00    0.5024329628E+00
    0.5000000000E+06    0.3976110608E+00    0.7767344966E-03    0.1802003988E+00    0.2824149847E+00    0.5033442145E+00
    0.7000000000E+06    0.3976007353E+00    0.6601496026E-03    0.1798387617E+00    0.2825788762E+00    0.5039052896E+00
    0.9000000000E+06    0.3975761900E+00    0.5846319197E-03    0.1795629085E+00    0.2826895203E+00    0.5043081238E+00
    0.1100000000E+07    0.3975486421E+00    0.5305789421E-03    0.1793396753E+00    0.2827723128E+00    0.5046212330E+00
    0.1300000000E+07    0.3975213220E+00    0.4894092291E-03    0.1791520802E+00    0.2828381709E+00    0.5048767447E+00
    0.1500000000E+07    0.3974952403E+00    0.4566899096E-03    0.1789902458E+00    0.2828927151E+00    0.5050922412E+00
    0.1700000000E+07    0.3974706711E+00    0.4298684689E-03    0.1788479138E+00    0.2829391956E+00    0.5052783666E+00
    0.1900000000E+07    0.3974476227E+00    0.4073571100E-03    0.1787208656E+00    0.2829796523E+00    0.5054420425E+00
    0.2100000000E+07    0.3974260075E+00    0.3881092180E-03    0.1786061217E+00    0.2830154454E+00    0.5055880171E+00
    0.2300000000E+07    0.3974057081E+00    0.3714030316E-03    0.1785014985E+00    0.2830475251E+00    0.5057196861E+00
    0.2500000000E+07    0.3973866035E+00    0.3567224483E-03    0.1784053479E+00    0.2830765804E+00    0.5058395599E+00
    0.2700000000E+07    0.3973685796E+00    0.3436872860E-03    0.1783163948E+00    0.2831031264E+00    0.5059495457E+00
    0.2900000000E+07    0.3973515332E+00    0.3320104390E-03    0.1782336325E+00    0.2831275578E+00    0.5060511257E+00
    0.3100000000E+07    0.3973353720E+00    0.3214704704E-03    0.1781562523E+00    0.2831501837E+00    0.5061454745E+00
    0.3300000000E+07    0.3973200143E+00    0.3118934674E-03    0.1780835944E+00    0.2831712503E+00    0.5062335378E+00
    0.3500000000E+07    0.3973053882E+00    0.3031406740E-03    0.1780151137E+00    0.2831909569E+00    0.5063160887E+00
    0.3700000000E+07    0.3972914301E+00    0.2950998442E-03    0.1779503543E+00    0.2832094674E+00    0.5063937666E+00
    0.3900000000E+07    0.3972780840E+00    0.2876790614E-03    0.1778889314E+00    0.2832269176E+00    0.5064671065E+00
    0.4100000000E+07    0.3972653000E+00    0.2808022329E-03    0.1778305171E+00    0.2832434216E+00    0.5065365605E+00
    0.4300000000E+07    0.3972530341E+00    0.2744057488E-03    0.1777748295E+00    0.2832590762E+00    0.5066025140E+00
    0.4500000000E+07    0.3972412468E+00    0.2684359646E-03    0.1777216247E+00    0.2832739641E+00    0.5066652980E+00
    0.4700000000E+07    0.3972299029E+00    0.2628472779E-03    0.1776706901E+00    0.2832881564E+00    0.5067251990E+00
    0.4900000000E+07    0.3972189710E+00    0.2576006409E-03    0.1776218394E+00    0.2833017149E+00    0.5067824666E+00
    0.1000000000E+07    0.3975625063E+00    0.5555993584E-03    0.1794460056E+00    0.2827335349E+00    0.5044734023E+00
    0.3000000000E+07    0.3973433473E+00    0.3266101613E-03    0.1781943139E+00    0.2831390798E+00    0.5060991403E+00
    0.5000000000E+07    0.3972136505E+00    0.2550948890E-03    0.1775981435E+00    0.2833082736E+00    0.5068101823E+00
    0.7000000000E+07    0.3971232807E+00    0.2167674493E-03    0.1772023161E+00    0.2834162893E+00    0.5072675215E+00
    0.9000000000E+07    0.3970539914E+00    0.1919446871E-03    0.1769054103E+00    0.2834957290E+00    0.5076043561E+00
    0.1100000000E+08    0.3969978095E+00    0.1741801239E-03    0.1766676973E+00    0.2835585713E+00    0.5078707394E+00
    0.1300000000E+08    0.3969505624E+00    0.1606514854E-03    0.1764694363E+00    0.2836105591E+00    0.5080909156E+00
    0.1500000000E+08    0.3969097960E+00    0.1499009546E-03    0.1762993693E+00    0.2836548918E+00    0.5082784648E+00
    0.1700000000E+08    0.3968739453E+00    0.1410891670E-03    0.1761504629E+00    0.2836935351E+00    0.5084417563E+00
    0.1900000000E+08    0.3968419513E+00    0.1336940414E-03    0.1760180273E+00    0.2837277836E+00    0.5085863107E+00
    0.2100000000E+08    0.3968130640E+00    0.1273714726E-03    0.1758987779E+00    0.2837585348E+00    0.5087159604E+00
    0.2300000000E+08    0.3967867329E+00    0.1218841807E-03    0.1757903246E+00    0.2837864367E+00    0.5088334734E+00
    0.2500000000E+08    0.3967625418E+00    0.1170625099E-03    0.1756908736E+00    0.2838119727E+00    0.5089409139E+00
    0.2700000000E+08    0.3967401688E+00    0.1127814940E-03    0.1755990443E+00    0.2838355125E+00    0.5090398619E+00
