  Pressure (Pa) 22mC5-400 (mol/kg) 2mC6-400 (mol/kg) 3mC6-400 (mol/kg) 23mC5-400 (mol/kg) C7-400 (mol/kg)
    0.1000000000E+01    0.1062186723E-02    0.7870126993E-03    0.1561551930E-02    0.5595241612E-03    0.1351518775E-01
    0.3000000000E+01    0.3166562881E-02    0.2267408970E-02    0.4478557362E-02    0.1668046962E-02    0.3877026723E-01
    0.5000000000E+01    0.5244747957E-02    0.3636047073E-02    0.7149818322E-02    0.2762784105E-02    0.6190816150E-01
    0.7000000000E+01    0.7297294066E-02    0.4906349651E-02    0.9605243184E-02    0.3844026142E-02    0.8318613211E-01
    0.9000000000E+01    0.9324737569E-02    0.6089604622E-02    0.1187007149E-01    0.4912055333E-02    0.1028213127E+00
    0.1100000000E+02    0.1132759962E-01    0.7195373218E-02    0.1396575096E-01    0.5967145940E-02    0.1209982430E+00
    0.1300000000E+02    0.1330638672E-01    0.8231808289E-02    0.1591062397E-01    0.7009564506E-02    0.1378747670E+00
    0.1500000000E+02    0.1526159120E-01    0.9205904977E-02    0.1772047012E-01    0.8039570123E-02    0.1535866946E+00
    0.1700000000E+02    0.1719369171E-01    0.1012369992E-01    0.1940893885E-01    0.9057414692E-02    0.1682515194E+00
    0.1900000000E+02    0.1910315373E-01    0.1099043085E-01    0.2098789731E-01    0.1006334317E-01    0.1819714077E+00
    0.2100000000E+02    0.2099042996E-01    0.1181066543E-01    0.2246771217E-01    0.1105759380E-01    0.1948356213E+00
    0.2300000000E+02    0.2285596082E-01    0.1258840604E-01    0.2385747964E-01    0.1204039834E-01    0.2069224940E+00
    0.2500000000E+02    0.2470017479E-01    0.1332717556E-01    0.2516521441E-01    0.1301198231E-01    0.2183010558E+00
    0.2700000000E+02    0.2652348887E-01    0.1403008801E-01    0.2639800581E-01    0.1397256515E-01    0.2290323758E+00
    0.2900000000E+02    0.2832630893E-01    0.1469990707E-01    0.2756214771E-01    0.1492236046E-01    0.2391706786E+00
    0.3100000000E+02    0.3010903009E-01    0.1533909491E-01    0.2866324713E-01    0.1586157617E-01    0.2487642783E+00
    0.3300000000E+02    0.3187203707E-01    0.1594985302E-01    0.2970631547E-01    0.1679041475E-01    0.2578563631E+00
    0.3500000000E+02    0.3361570453E-01    0.1653415658E-01    0.3069584567E-01    0.1770907337E-01    0.2664856585E+00
    0.3700000000E+02    0.3534039738E-01    0.1709378361E-01    0.3163587755E-01    0.1861774409E-01    0.2746869900E+00
    0.3900000000E+02    0.3704647113E-01    0.1763033958E-01    0.3253005362E-01    0.1951661399E-01    0.2824917623E+00
    0.4100000000E+02    0.3873427215E-01    0.1814527856E-01    0.3338166679E-01    0.2040586536E-01    0.2899283701E+00
    0.4300000000E+02    0.4040413801E-01    0.1863992123E-01    0.3419370133E-01    0.2128567584E-01    0.2970225508E+00
    0.4500000000E+02    0.4205639770E-01    0.1911547042E-01    0.3496886829E-01    0.2215621860E-01    0.3037976884E+00
    0.4700000000E+02    0.4369137194E-01    0.1957302446E-01    0.3570963605E-01    0.2301766241E-01    0.3102750773E+00
    0.4900000000E+02    0.4530937342E-01    0.2001358880E-01    0.3641825693E-01    0.2387017183E-01    0.3164741505E+00
    0.1000000000E+02    0.1032920928E-01    0.6651635378E-02    0.1293784261E-01    0.5441201123E-02    0.1120816280E+00
    0.3000000000E+02    0.2922015759E-01    0.1502318662E-01    0.2812025152E-01    0.1539327798E-01    0.2440327553E+00
    0.5000000000E+02    0.4611210497E-01    0.2022779114E-01    0.3676116281E-01    0.2429312646E-01    0.3194749322E+00
    0.7000000000E+02    0.6134609092E-01    0.2380835482E-01    0.4234843150E-01    0.3232022759E-01    0.3684773297E+00
    0.9000000000E+02    0.7518755112E-01    0.2639667434E-01    0.4626219984E-01    0.3961427783E-01    0.4029566581E+00
    0.1100000000E+03    0.8784618967E-01    0.2831337515E-01    0.4915870558E-01    0.4628564556E-01    0.4285877752E+00
    0.1300000000E+03    0.9948992016E-01    0.2974579020E-01    0.5139017858E-01    0.5242270681E-01    0.4484212315E+00
    0.1500000000E+03    0.1102548351E+00    0.3081439024E-01    0.5316275546E-01    0.5809709132E-01    0.4642450146E+00
    0.1700000000E+03    0.1202524593E+00    0.3160199606E-01    0.5460518173E-01    0.6336749935E-01    0.4771775272E+00
    0.1900000000E+03    0.1295751094E+00    0.3216831476E-01    0.5580205587E-01    0.6828252218E-01    0.4879547822E+00
    0.2100000000E+03    0.1382999110E+00    0.3255790743E-01    0.5681128160E-01    0.7288275607E-01    0.4970813081E+00
    0.2300000000E+03    0.1464918484E+00    0.3280490444E-01    0.5767384160E-01    0.7720240721E-01    0.5049147356E+00
    0.2500000000E+03    0.1542061078E+00    0.3293597220E-01    0.5841956650E-01    0.8127052480E-01    0.5117157713E+00
    0.2700000000E+03    0.1614898968E+00    0.3297227366E-01    0.5907069224E-01    0.8511195870E-01    0.5176790405E+00
    0.2900000000E+03    0.1683838719E+00    0.3293081620E-01    0.5964413612E-01    0.8874811073E-01    0.5229528384E+00
    0.3100000000E+03    0.1749232689E+00    0.3282540846E-01    0.6015299977E-01    0.9219752957E-01    0.5276521848E+00
    0.3300000000E+03    0.1811388059E+00    0.3266735775E-01    0.6060758922E-01    0.9547638596E-01    0.5318676925E+00
    0.3500000000E+03    0.1870574101E+00    0.3246598946E-01    0.6101612394E-01    0.9859885529E-01    0.5356717368E+00
    0.3700000000E+03    0.1927028077E+00    0.3222904097E-01    0.6138524034E-01    0.1015774280E+00    0.5391228407E+00
    0.3900000000E+03    0.1980960056E+00    0.3196296517E-01    0.6172035597E-01    0.1044231633E+00    0.5422688498E+00
    0.4100000000E+03    0.2032556878E+00    0.3167316720E-01    0.6202593748E-01    0.1071458976E+00    0.5451492703E+00
    0.4300000000E+03    0.2081985437E+00    0.3136419145E-01    0.6230570081E-01    0.1097544173E+00    0.5477970173E+00
    0.4500000000E+03    0.2129395405E+00    0.3103987055E-01    0.6256276280E-01    0.1122566024E+00    0.5502397399E+00
    0.4700000000E+03    0.2174921525E+00    0.3070344527E-01    0.6279975741E-01    0.1146595469E+00    0.5525008381E+00
    0.4900000000E+03    0.2218685531E+00    0.3035766173E-01    0.6301892587E-01    0.1169696603E+00    0.5546002521E+00
    0.1000000000E+03    0.8165338162E-01    0.2742519544E-01    0.4781097140E-01    0.4302182783E-01    0.4166476330E+00
    0.3000000000E+03    0.1716958762E+00    0.3288534758E-01    0.5990594035E-01    0.9049510028E-01    0.5253681655E+00
    0.5000000000E+03    0.2239941632E+00    0.3018200333E-01    0.6312243602E-01    0.1180917423E+00    0.5555947682E+00
    0.7000000000E+03    0.2594622726E+00    0.2658393352E-01    0.6460395458E-01    0.1368217993E+00    0.5700986008E+00
    0.9000000000E+03    0.2854084810E+00    0.2329916361E-01    0.6544949449E-01    0.1505334599E+00    0.5787102070E+00
    0.1100000000E+04    0.3052733394E+00    0.2052018432E-01    0.6599191287E-01    0.1610387678E+00    0.5844539107E+00
    0.1300000000E+04    0.3209670553E+00    0.1821419848E-01    0.6636657896E-01    0.1693440280E+00    0.5885779657E+00
    0.1500000000E+04    0.3336616251E+00    0.1630394422E-01    0.6663890776E-01    0.1760668129E+00    0.5916942145E+00
    0.1700000000E+04    0.3441248621E+00    0.1471379907E-01    0.6684435563E-01    0.1816118203E+00    0.5941389069E+00
    0.1900000000E+04    0.3528836543E+00    0.1338032368E-01    0.6700379184E-01    0.1862568337E+00    0.5961126487E+00
    0.2100000000E+04    0.3603124008E+00    0.1225287638E-01    0.6713028876E-01    0.1901992928E+00    0.5977427739E+00
    0.2300000000E+04    0.3666845901E+00    0.1129169802E-01    0.6723244389E-01    0.1935834588E+00    0.5991141276E+00
    0.2500000000E+04    0.3722045804E+00    0.1046567447E-01    0.6731613809E-01    0.1965171544E+00    0.6002854970E+00
    0.2700000000E+04    0.3770280270E+00    0.9750387461E-02    0.6738552607E-01    0.1990825267E+00    0.6012989461E+00
    0.2900000000E+04    0.3812754655E+00    0.9126563296E-02    0.6744362360E-01    0.2013432037E+00    0.6021853956E+00
    0.3100000000E+04    0.3850415971E+00    0.8578880698E-02    0.6749267065E-01    0.2033491884E+00    0.6029681019E+00
    0.3300000000E+04    0.3884017882E+00    0.8095066917E-02    0.6753436429E-01    0.2051402849E+00    0.6036649057E+00
    0.3500000000E+04    0.3914167122E+00    0.7665214587E-02    0.6757001256E-01    0.2067485445E+00    0.6042897305E+00
    0.3700000000E+04    0.3941357231E+00    0.7281264456E-02    0.6760063906E-01    0.2082000459E+00    0.6048536075E+00
    0.3900000000E+04    0.3965993484E+00    0.6936611911E-02    0.6762705555E-01    0.2095162088E+00    0.6053653944E+00
    0.4100000000E+04    0.3988411550E+00    0.6625805855E-02    0.6764991353E-01    0.2107147782E+00    0.6058322889E+00
    0.4300000000E+04    0.4008891647E+00    0.6344316681E-02    0.6766974150E-01    0.2118105718E+00    0.6062602023E+00
    0.4500000000E+04    0.4027669417E+00    0.6088356228E-02    0.6768697232E-01    0.2128160527E+00    0.6066540370E+00
    0.4700000000E+04    0.4044944344E+00    0.5854737053E-02    0.6770196363E-01    0.2137417745E+00    0.6070178939E+00
    0.4900000000E+04    0.4060886363E+00    0.5640761664E-02    0.6771501328E-01    0.2145967295E+00    0.6073552315E+00
    0.1000000000E+04    0.2959585346E+00    0.2184643932E-01    0.6574771224E-01    0.1561118208E+00    0.5818405902E+00
    0.3000000000E+04    0.3832135928E+00    0.8844033863E-02    0.6746916174E-01    0.2023753383E+00    0.6025884950E+00
    0.5000000000E+04    0.4068403863E+00    0.5540409402E-02    0.6772088967E-01    0.2150001217E+00    0.6075148911E+00
    0.7000000000E+04    0.4175099598E+00    0.4155230101E-02    0.6778014002E-01    0.2207466490E+00    0.6098411175E+00
    0.9000000000E+04    0.4235249935E+00    0.3405445306E-02    0.6778437014E-01    0.2240124541E+00    0.6112338110E+00
    0.1100000000E+05    0.4273677723E+00    0.2935088084E-02    0.6776820393E-01    0.2261158563E+00    0.6121776333E+00
    0.1300000000E+05    0.4300280229E+00    0.2610760765E-02    0.6774367659E-01    0.2275839068E+00    0.6128681180E+00
    0.1500000000E+05    0.4319754861E+00    0.2372099542E-02    0.6771576079E-01    0.2286674276E+00    0.6134002071E+00
    0.1700000000E+05    0.4334609860E+00    0.2188016458E-02    0.6768673227E-01    0.2295007111E+00    0.6138259349E+00
    0.1900000000E+05    0.4346303766E+00    0.2040917356E-02    0.6765769514E-01    0.2301620609E+00    0.6141763785E+00
    0.2100000000E+05    0.4355741414E+00    0.1920103932E-02    0.6762919752E-01    0.2307001862E+00    0.6144713312E+00
    0.2300000000E+05    0.4363513394E+00    0.1818693572E-02    0.6760150687E-01    0.2311469672E+00    0.6147240467E+00
    0.2500000000E+05    0.4370021324E+00    0.1732052643E-02    0.6757474291E-01    0.2315241423E+00    0.6149437623E+00
    0.2700000000E+05    0.4375547690E+00    0.1656942943E-02    0.6754894555E-01    0.2318470440E+00    0.6151371314E+00
    0.2900000000E+05    0.4380296896E+00    0.1591029771E-02    0.6752411121E-01    0.2321267971E+00    0.6153090789E+00
    0.3100000000E+05    0.4384420448E+00    0.1532584772E-02    0.6750021296E-01    0.2323716699E+00    0.6154633363E+00
    0.3300000000E+05    0.4388032999E+00    0.1480299167E-02    0.6747721179E-01    0.2325879371E+00    0.6156027876E+00
    0.3500000000E+05    0.4391222892E+00    0.1433162273E-02    0.6745506317E-01    0.2327804465E+00    0.6157297006E+00
    0.3700000000E+05    0.4394059283E+00    0.1390380126E-02    0.6743372084E-01    0.2329530036E+00    0.6158458861E+00
    0.3900000000E+05    0.4396597076E+00    0.1351319537E-02    0.6741313887E-01    0.2331086380E+00    0.6159528089E+00
    0.4100000000E+05    0.4398880405E+00    0.1315468739E-02    0.6739327297E-01    0.2332497916E+00    0.6160516688E+00
    0.4300000000E+05    0.4400945147E+00    0.1282409136E-02    0.6737408102E-01    0.2333784551E+00    0.6161434582E+00
    0.4500000000E+05    0.4402820766E+00    0.1251794662E-02    0.6735552344E-01    0.2334962677E+00    0.6162290069E+00
    0.4700000000E+05    0.4404531678E+00    0.1223336431E-02    0.6733756322E-01    0.2336045915E+00    0.6163090138E+00
    0.4900000000E+05    0.4406098288E+00    0.1196791180E-02    0.6732016591E-01    0.2337045682E+00    0.6163840728E+00
    0.1000000000E+05    0.4256379517E+00    0.3146264934E-02    0.6777783023E-01    0.2251669036E+00    0.6117461188E+00
    0.3000000000E+05    0.4382428993E+00    0.1560963716E-02    0.6751204732E-01    0.2322531624E+00    0.6153882219E+00
    0.5000000000E+05    0.4406832957E+00    0.1184170155E-02    0.6731166826E-01    0.2337517335E+00    0.6164199086E+00
    0.7000000000E+05    0.4416978231E+00    0.9952277353E-03    0.6716466051E-01    0.2344275098E+00    0.6169689352E+00
    0.9000000000E+05    0.4422449417E+00    0.8763347754E-03    0.6704912667E-01    0.2348216735E+00    0.6173287141E+00
    0.1100000000E+06    0.4425828162E+00    0.7925711008E-03    0.6695403693E-01    0.2350844453E+00    0.6175908487E+00
    0.1300000000E+06    0.4428096607E+00    0.7293953119E-03    0.6687325101E-01    0.2352746291E+00    0.6177945254E+00
    0.1500000000E+06    0.4429708433E+00    0.6795179513E-03    0.6680302478E-01    0.2354201527E+00    0.6179597496E+00
    0.1700000000E+06    0.4430901479E+00    0.6388242264E-03    0.6674091209E-01    0.2355360606E+00    0.6180979782E+00
    0.1900000000E+06    0.4431812120E+00    0.6047901930E-03    0.6668522823E-01    0.2356312135E+00    0.6182163271E+00
    0.2100000000E+06    0.4432523979E+00    0.5757693457E-03    0.6663476403E-01    0.2357111904E+00    0.6183194912E+00
    0.2300000000E+06    0.4433091074E+00    0.5506352263E-03    0.6658862230E-01    0.2357796909E+00    0.6184107174E+00
    0.2500000000E+06    0.4433549792E+00    0.5285873813E-03    0.6654611911E-01    0.2358392723E+00    0.6184923360E+00
    0.2700000000E+06    0.4433925494E+00    0.5090391329E-03    0.6650672109E-01    0.2358917635E+00    0.6185660721E+00
    0.2900000000E+06    0.4434236368E+00    0.4915492666E-03    0.6647000429E-01    0.2359385102E+00    0.6186332355E+00
    0.3100000000E+06    0.4434495781E+00    0.4757786583E-03    0.6643562611E-01    0.2359805265E+00    0.6186948421E+00
    0.3300000000E+06    0.4434713759E+00    0.4614617427E-03    0.6640330577E-01    0.2360185925E+00    0.6187516948E+00
    0.3500000000E+06    0.4434897960E+00    0.4483871666E-03    0.6637281027E-01    0.2360533192E+00    0.6188044381E+00
    0.3700000000E+06    0.4435054328E+00    0.4363843252E-03    0.6634394408E-01    0.2360851928E+00    0.6188535968E+00
    0.3900000000E+06    0.4435187540E+00    0.4253137744E-03    0.6631654157E-01    0.2361146054E+00    0.6188996037E+00
    0.4100000000E+06    0.4435301323E+00    0.4150602670E-03    0.6629046115E-01    0.2361418772E+00    0.6189428192E+00
    0.4300000000E+06    0.4435398678E+00    0.4055276016E-03    0.6626558087E-01    0.2361672726E+00    0.6189835466E+00
    0.4500000000E+06    0.4435482049E+00    0.3966347538E-03    0.6624179492E-01    0.2361910120E+00    0.6190220436E+00
    0.4700000000E+06    0.4435553441E+00    0.3883129261E-03    0.6621901092E-01    0.2362132809E+00    0.6190585305E+00
    0.4900000000E+06    0.4435614515E+00    0.3805032708E-03    0.6619714772E-01    0.2362342367E+00    0.6190931973E+00
    0.1000000000E+06    0.4424320330E+00    0.8312201210E-03    0.6699948535E-01    0.2349647275E+00    0.6174688826E+00
    0.3000000000E+06    0.4434371816E+00    0.4834671154E-03    0.6645254168E-01    0.2359600563E+00    0.6186646790E+00
    0.5000000000E+06    0.4435641625E+00    0.3767743927E-03    0.6618653870E-01    0.2362442649E+00    0.6191099006E+00
    0.7000000000E+06    0.4435881882E+00    0.3198095833E-03    0.6600899888E-01    0.2364002078E+00    0.6193790003E+00
    0.9000000000E+06    0.4435847224E+00    0.2829811314E-03    0.6587551181E-01    0.2365054611E+00    0.6195701448E+00
    0.1100000000E+07    0.4435718065E+00    0.2566527020E-03    0.6576849636E-01    0.2365841876E+00    0.6197176452E+00
    0.1300000000E+07    0.4435554347E+00    0.2366170758E-03    0.6567916889E-01    0.2366467830E+00    0.6198373764E+00
    0.1500000000E+07    0.4435379680E+00    0.2207046578E-03    0.6560250315E-01    0.2366986013E+00    0.6199379438E+00
    0.1700000000E+07    0.4435204269E+00    0.2076676747E-03    0.6553535181E-01    0.2367427397E+00    0.6200245187E+00
    0.1900000000E+07    0.4435032690E+00    0.1967306606E-03    0.6547561266E-01    0.2367811420E+00    0.6201004443E+00
    0.2100000000E+07    0.4434866957E+00    0.1873828323E-03    0.6542181158E-01    0.2368151044E+00    0.6201680032E+00
    0.2300000000E+07    0.4434707844E+00    0.1792721585E-03    0.6537287476E-01    0.2368455324E+00    0.6202288209E+00
    0.2500000000E+07    0.4434555514E+00    0.1721470440E-03    0.6532799572E-01    0.2368730825E+00    0.6202840952E+00
    0.2700000000E+07    0.4434409822E+00    0.1658222345E-03    0.6528655328E-01    0.2368982454E+00    0.6203347330E+00
    0.2900000000E+07    0.4434270478E+00    0.1601578838E-03    0.6524805883E-01    0.2369213971E+00    0.6203814376E+00
    0.3100000000E+07    0.4434137129E+00    0.1550461688E-03    0.6521212110E-01    0.2369428319E+00    0.6204247646E+00
    0.3300000000E+07    0.4434009401E+00    0.1504024332E-03    0.6517842187E-01    0.2369627844E+00    0.6204651607E+00
    0.3500000000E+07    0.4433886924E+00    0.1461591523E-03    0.6514669887E-01    0.2369814444E+00    0.6205029902E+00
    0.3700000000E+07    0.4433769345E+00    0.1422617167E-03    0.6511673339E-01    0.2369989677E+00    0.6205385540E+00
    0.3900000000E+07    0.4433656333E+00    0.1386654173E-03    0.6508834112E-01    0.2370154837E+00    0.6205721033E+00
    0.4100000000E+07    0.4433547580E+00    0.1353332504E-03    0.6506136529E-01    0.2370311010E+00    0.6206038502E+00
    0.4300000000E+07    0.4433442803E+00    0.1322342884E-03    0.6503567147E-01    0.2370459116E+00    0.6206339752E+00
    0.4500000000E+07    0.4433341742E+00    0.1293424538E-03    0.6501114349E-01    0.2370599942E+00    0.6206626330E+00
    0.4700000000E+07    0.4433244156E+00    0.1266355826E-03    0.6498768028E-01    0.2370734165E+00    0.6206899577E+00
    0.4900000000E+07    0.4433149827E+00    0.1240946993E-03    0.6496519339E-01    0.2370862373E+00    0.6207160656E+00
    0.1000000000E+07    0.4435789389E+00    0.2688365138E-03    0.6581936663E-01    0.2365473185E+00    0.6196481156E+00
    0.3000000000E+07    0.4434203078E+00    0.1575386994E-03    0.6522979175E-01    0.2369323133E+00    0.6204034931E+00
    0.5000000000E+07    0.4433103820E+00    0.1228813032E-03    0.6495429135E-01    0.2370924385E+00    0.6207286956E+00
    0.7000000000E+07    0.4432314040E+00    0.1043306555E-03    0.6477269216E-01    0.2371944951E+00    0.6209366278E+00
    0.9000000000E+07    0.4431699955E+00    0.9232619516E-04    0.6463705526E-01    0.2372694706E+00    0.6210892430E+00
    0.1100000000E+08    0.4431197920E+00    0.8374037543E-04    0.6452877719E-01    0.2373287348E+00    0.6212096527E+00
    0.1300000000E+08    0.4430773395E+00    0.7720500769E-04    0.6443866711E-01    0.2373777327E+00    0.6213090010E+00
    0.1500000000E+08    0.4430405641E+00    0.7201377734E-04    0.6436150476E-01    0.2374194954E+00    0.6213935104E+00
    0.1700000000E+08    0.4430081249E+00    0.6776020045E-04    0.6429403891E-01    0.2374558839E+00    0.6214670062E+00
    0.1900000000E+08    0.4429791058E+00    0.6419154423E-04    0.6423410692E-01    0.2374881230E+00    0.6215320071E+00
    0.2100000000E+08    0.4429528531E+00    0.6114128760E-04    0.6418019729E-01    0.2375170614E+00    0.6215902586E+00
    0.2300000000E+08    0.4429288843E+00    0.5849463873E-04    0.6413121197E-01    0.2375433118E+00    0.6216430198E+00
    0.2500000000E+08    0.4429068330E+00    0.5616954267E-04    0.6408632813E-01    0.2375673307E+00    0.6216912286E+00
    0.2700000000E+08    0.4428864146E+00    0.5410557310E-04    0.6404491325E-01    0.2375894676E+00    0.6217356021E+00
