  Pressure (Pa) 22mC5-400 (mol/kg) 2mC6-400 (mol/kg) 3mC6-400 (mol/kg) 23mC5-400 (mol/kg) C7-400 (mol/kg)
    0.1000000000E+01    0.1060843202E-02    0.2379358248E-02    0.5258040745E-02    0.3725444671E-03    0.1706469269E-02
    0.3000000000E+01    0.3154717340E-02    0.6954525324E-02    0.1537211681E-01    0.1107872928E-02    0.4989532517E-02
    0.5000000000E+01    0.5212507553E-02    0.1129997406E-01    0.2498452989E-01    0.1830538000E-02    0.8110508214E-02
    0.7000000000E+01    0.7235366637E-02    0.1543216921E-01    0.3413286199E-01    0.2540944194E-02    0.1108152124E-01
    0.9000000000E+01    0.9224397274E-02    0.1936599655E-01    0.4285100489E-01    0.3239478438E-02    0.1391350678E-01
    0.1100000000E+02    0.1118065474E-01    0.2311495097E-01    0.5116960318E-01    0.3926511024E-02    0.1661635316E-01
    0.1300000000E+02    0.1310514943E-01    0.2669129811E-01    0.5911643501E-01    0.4602396500E-02    0.1919902445E-01
    0.1500000000E+02    0.1499884924E-01    0.3010621375E-01    0.6671674035E-01    0.5267474502E-02    0.2166966634E-01
    0.1700000000E+02    0.1686268179E-01    0.3336990452E-01    0.7399350525E-01    0.5922070534E-02    0.2403569768E-01
    0.1900000000E+02    0.1869753651E-01    0.3649171270E-01    0.8096770857E-01    0.6566496699E-02    0.2630389006E-01
    0.2100000000E+02    0.2050426660E-01    0.3948020762E-01    0.8765853702E-01    0.7201052385E-02    0.2848043707E-01
    0.2300000000E+02    0.2228369083E-01    0.4234326560E-01    0.9408357314E-01    0.7826024913E-02    0.3057101493E-01
    0.2500000000E+02    0.2403659535E-01    0.4508813997E-01    0.1002589600E+00    0.8441690139E-02    0.3258083557E-01
    0.2700000000E+02    0.2576373521E-01    0.4772152279E-01    0.1061995461E+00    0.9048313026E-02    0.3451469332E-01
    0.2900000000E+02    0.2746583600E-01    0.5024959918E-01    0.1119190129E+00    0.9646148181E-02    0.3637700608E-01
    0.3100000000E+02    0.2914359517E-01    0.5267809547E-01    0.1174299879E+00    0.1023544036E-01    0.3817185167E-01
    0.3300000000E+02    0.3079768350E-01    0.5501232183E-01    0.1227441442E+00    0.1081642493E-01    0.3990300011E-01
    0.3500000000E+02    0.3242874628E-01    0.5725721024E-01    0.1278722899E+00    0.1138932835E-01    0.4157394220E-01
    0.3700000000E+02    0.3403740457E-01    0.5941734821E-01    0.1328244466E+00    0.1195436855E-01    0.4318791503E-01
    0.3900000000E+02    0.3562425635E-01    0.6149700906E-01    0.1376099199E+00    0.1251175537E-01    0.4474792473E-01
    0.4100000000E+02    0.3718987752E-01    0.6350017887E-01    0.1422373632E+00    0.1306169091E-01    0.4625676678E-01
    0.4300000000E+02    0.3873482300E-01    0.6543058076E-01    0.1467148331E+00    0.1360436990E-01    0.4771704425E-01
    0.4500000000E+02    0.4025962763E-01    0.6729169667E-01    0.1510498410E+00    0.1413998002E-01    0.4913118413E-01
    0.4700000000E+02    0.4176480711E-01    0.6908678701E-01    0.1552493984E+00    0.1466870225E-01    0.5050145208E-01
    0.4900000000E+02    0.4325085882E-01    0.7081890831E-01    0.1593200577E+00    0.1519071112E-01    0.5182996564E-01
    0.1000000000E+02    0.1020655848E-01    0.2126278920E-01    0.4705844788E-01    0.3584409920E-02    0.1528049177E-01
    0.3000000000E+02    0.2830771575E-01    0.5147595366E-01    0.1146998110E+00    0.9941847216E-02    0.3728261978E-01
    0.5000000000E+02    0.4398686239E-01    0.7166225900E-01    0.1613089821E+00    0.1544925092E-01    0.5247918874E-01
    0.7000000000E+02    0.5781099669E-01    0.8583452588E-01    0.1956177838E+00    0.2030559078E-01    0.6369093879E-01
    0.9000000000E+02    0.7017697939E-01    0.9610466538E-01    0.2220793348E+00    0.2465013698E-01    0.7235756111E-01
    0.1100000000E+03    0.8137131620E-01    0.1037004072E+00    0.2432093483E+00    0.2858343593E-01    0.7929301949E-01
    0.1300000000E+03    0.9160633946E-01    0.1093879880E+00    0.2605400215E+00    0.3218000568E-01    0.8499343939E-01
    0.1500000000E+03    0.1010429935E+00    0.1136716838E+00    0.2750599899E+00    0.3549633110E-01    0.8977918284E-01
    0.1700000000E+03    0.1098056793E+00    0.1168972972E+00    0.2874370279E+00    0.3857607284E-01    0.9386680014E-01
    0.1900000000E+03    0.1179922140E+00    0.1193098612E+00    0.2981392731E+00    0.4145356220E-01    0.9740821406E-01
    0.2100000000E+03    0.1256806861E+00    0.1210877120E+00    0.3075051841E+00    0.4415620680E-01    0.1005133434E+00
    0.2300000000E+03    0.1329342826E+00    0.1223635649E+00    0.3157859020E+00    0.4670618442E-01    0.1032638086E+00
    0.2500000000E+03    0.1398047556E+00    0.1232380594E+00    0.3231719572E+00    0.4912165974E-01    0.1057215759E+00
    0.2700000000E+03    0.1463349587E+00    0.1237887509E+00    0.3298106944E+00    0.5141767418E-01    0.1079346005E+00
    0.2900000000E+03    0.1525607307E+00    0.1240762441E+00    0.3358179822E+00    0.5360680731E-01    0.1099406197E+00
    0.3100000000E+03    0.1585123175E+00    0.1241484778E+00    0.3412862883E+00    0.5569967560E-01    0.1117697704E+00
    0.3300000000E+03    0.1642154578E+00    0.1240437801E+00    0.3462903747E+00    0.5770531358E-01    0.1134464359E+00
    0.3500000000E+03    0.1696922231E+00    0.1237930874E+00    0.3508913964E+00    0.5963146861E-01    0.1149905751E+00
    0.3700000000E+03    0.1749616744E+00    0.1234215812E+00    0.3551399036E+00    0.6148483148E-01    0.1164186973E+00
    0.3900000000E+03    0.1800403819E+00    0.1229499136E+00    0.3590780780E+00    0.6327121855E-01    0.1177445879E+00
    0.4100000000E+03    0.1849428379E+00    0.1223951371E+00    0.3627414202E+00    0.6499571700E-01    0.1189798567E+00
    0.4300000000E+03    0.1896817907E+00    0.1217714174E+00    0.3661600430E+00    0.6666280170E-01    0.1201343578E+00
    0.4500000000E+03    0.1942685137E+00    0.1210905862E+00    0.3693596716E+00    0.6827642995E-01    0.1212165155E+00
    0.4700000000E+03    0.1987130266E+00    0.1203625745E+00    0.3723624277E+00    0.6984011894E-01    0.1222335784E+00
    0.4900000000E+03    0.2030242769E+00    0.1195957548E+00    0.3751874500E+00    0.7135700943E-01    0.1231918218E+00
    0.1000000000E+03    0.7590591003E-01    0.1001811228E+00    0.2331986169E+00    0.2666303572E-01    0.7600537473E-01
    0.3000000000E+03    0.1555690938E+00    0.1241366770E+00    0.3386144748E+00    0.5466467664E-01    0.1108756624E+00
    0.5000000000E+03    0.2051324688E+00    0.1192000502E+00    0.3765385998E+00    0.7209879696E-01    0.1236506215E+00
    0.7000000000E+03    0.2418780553E+00    0.1104905303E+00    0.3973259524E+00    0.8503156910E-01    0.1307554224E+00
    0.9000000000E+03    0.2710078663E+00    0.1018020091E+00    0.4108549109E+00    0.9528908026E-01    0.1354372205E+00
    0.1100000000E+04    0.2948871057E+00    0.9393482980E-01    0.4205332423E+00    0.1037016482E+00    0.1388234897E+00
    0.1300000000E+04    0.3148611489E+00    0.8700749699E-01    0.4278858246E+00    0.1107416224E+00    0.1414216991E+00
    0.1500000000E+04    0.3318034628E+00    0.8095630730E-01    0.4337090979E+00    0.1167157151E+00    0.1434983300E+00
    0.1700000000E+04    0.3463285048E+00    0.7567333946E-01    0.4384644272E+00    0.1218397277E+00    0.1452085276E+00
    0.1900000000E+04    0.3588907532E+00    0.7104896618E-01    0.4424397551E+00    0.1262733070E+00    0.1466495770E+00
    0.2100000000E+04    0.3698375456E+00    0.6698472332E-01    0.4458252065E+00    0.1301384884E+00    0.1478860007E+00
    0.2300000000E+04    0.3794403987E+00    0.6339614561E-01    0.4487519862E+00    0.1335306871E+00    0.1489625133E+00
    0.2500000000E+04    0.3879150985E+00    0.6021216173E-01    0.4513139159E+00    0.1365257487E+00    0.1499112175E+00
    0.2700000000E+04    0.3954353542E+00    0.5737343272E-01    0.4535800789E+00    0.1391847411E+00    0.1507558415E+00
    0.2900000000E+04    0.4021424761E+00    0.5483051874E-01    0.4556026059E+00    0.1415573516E+00    0.1515143565E+00
    0.3100000000E+04    0.4081524475E+00    0.5254219027E-01    0.4574216643E+00    0.1436843697E+00    0.1522006576E+00
    0.3300000000E+04    0.4135612128E+00    0.5047397610E-01    0.4590687643E+00    0.1455995437E+00    0.1528256822E+00
    0.3500000000E+04    0.4184487001E+00    0.4859695447E-01    0.4605690141E+00    0.1473309931E+00    0.1533981736E+00
    0.3700000000E+04    0.4228819244E+00    0.4688676206E-01    0.4619426972E+00    0.1489022986E+00    0.1539252171E+00
    0.3900000000E+04    0.4269174090E+00    0.4532278758E-01    0.4632063993E+00    0.1503333528E+00    0.1544126239E+00
    0.4100000000E+04    0.4306030931E+00    0.4388751735E-01    0.4643738306E+00    0.1516410299E+00    0.1548652118E+00
    0.4300000000E+04    0.4339798474E+00    0.4256600424E-01    0.4654564347E+00    0.1528397187E+00    0.1552870135E+00
    0.4500000000E+04    0.4370826872E+00    0.4134543605E-01    0.4664638477E+00    0.1539417484E+00    0.1556814342E+00
    0.4700000000E+04    0.4399417503E+00    0.4021478380E-01    0.4674042482E+00    0.1549577329E+00    0.1560513720E+00
    0.4900000000E+04    0.4425830903E+00    0.3916451418E-01    0.4682846285E+00    0.1558968491E+00    0.1563993109E+00
    0.1000000000E+04    0.2835048201E+00    0.9775119865E-01    0.4160555614E+00    0.9969122992E-01    0.1372524742E+00
    0.3000000000E+04    0.4052281918E+00    0.5365682886E-01    0.4565354268E+00    0.1426493038E+00    0.1518657912E+00
    0.5000000000E+04    0.4438293011E+00    0.3866689372E-01    0.4687042248E+00    0.1563401135E+00    0.1565657122E+00
    0.7000000000E+04    0.4614898931E+00    0.3141124048E-01    0.4750449810E+00    0.1626382307E+00    0.1591323775E+00
    0.9000000000E+04    0.4713209538E+00    0.2709823662E-01    0.4790616556E+00    0.1661648280E+00    0.1608219004E+00
    0.1100000000E+05    0.4774949775E+00    0.2419985562E-01    0.4818837451E+00    0.1683932519E+00    0.1620490122E+00
    0.1300000000E+05    0.4816984539E+00    0.2209162065E-01    0.4839990278E+00    0.1699201201E+00    0.1629964022E+00
    0.1500000000E+05    0.4847297673E+00    0.2047233366E-01    0.4856564717E+00    0.1710284086E+00    0.1637589551E+00
    0.1700000000E+05    0.4870116056E+00    0.1917872462E-01    0.4869979145E+00    0.1718682260E+00    0.1643915845E+00
    0.1900000000E+05    0.4887871624E+00    0.1811432367E-01    0.4881107421E+00    0.1725261103E+00    0.1649286164E+00
    0.2100000000E+05    0.4902056390E+00    0.1721824563E-01    0.4890520537E+00    0.1730552616E+00    0.1653927841E+00
    0.2300000000E+05    0.4913633631E+00    0.1645001699E-01    0.4898609101E+00    0.1734900990E+00    0.1657998375E+00
    0.2500000000E+05    0.4923251618E+00    0.1578158440E-01    0.4905650348E+00    0.1738538349E+00    0.1661610894E+00
    0.2700000000E+05    0.4931361897E+00    0.1519282424E-01    0.4911847090E+00    0.1741626722E+00    0.1664849103E+00
    0.2900000000E+05    0.4938288230E+00    0.1466888179E-01    0.4917351491E+00    0.1744282540E+00    0.1667776488E+00
    0.3100000000E+05    0.4944268568E+00    0.1419852283E-01    0.4922280198E+00    0.1746591561E+00    0.1670442223E+00
    0.3300000000E+05    0.4949481564E+00    0.1377307317E-01    0.4926724294E+00    0.1748618315E+00    0.1672885090E+00
    0.3500000000E+05    0.4954063872E+00    0.1338571411E-01    0.4930756051E+00    0.1750412271E+00    0.1675136159E+00
    0.3700000000E+05    0.4958121742E+00    0.1303100091E-01    0.4934433628E+00    0.1752011978E+00    0.1677220663E+00
    0.3900000000E+05    0.4961738990E+00    0.1270452568E-01    0.4937804416E+00    0.1753447915E+00    0.1679159349E+00
    0.4100000000E+05    0.4964982594E+00    0.1240267605E-01    0.4940907457E+00    0.1754744494E+00    0.1680969459E+00
    0.4300000000E+05    0.4967906705E+00    0.1212245921E-01    0.4943775242E+00    0.1755921495E+00    0.1682665461E+00
    0.4500000000E+05    0.4970555560E+00    0.1186137125E-01    0.4946435049E+00    0.1756995115E+00    0.1684259603E+00
    0.4700000000E+05    0.4972965644E+00    0.1161729880E-01    0.4948909970E+00    0.1757978743E+00    0.1685762334E+00
    0.4900000000E+05    0.4975167309E+00    0.1138844374E-01    0.4951219695E+00    0.1758883544E+00    0.1687182636E+00
    0.1000000000E+05    0.4747288779E+00    0.2552244184E-01    0.4805834086E+00    0.1673931468E+00    0.1614788670E+00
    0.3000000000E+05    0.4941384330E+00    0.1442759692E-01    0.4919881606E+00    0.1745475954E+00    0.1669139431E+00
    0.5000000000E+05    0.4976198101E+00    0.1127923244E-01    0.4952317988E+00    0.1759309375E+00    0.1687864346E+00
    0.7000000000E+05    0.4990326081E+00    0.9613842347E-02    0.4968688732E+00    0.1765336594E+00    0.1698604531E+00
    0.9000000000E+05    0.4997873463E+00    0.8537554835E-02    0.4978789390E+00    0.1768785799E+00    0.1705946521E+00
    0.1100000000E+06    0.5002521263E+00    0.7766820505E-02    0.4985718376E+00    0.1771057126E+00    0.1711445229E+00
    0.1300000000E+06    0.5005644784E+00    0.7179008415E-02    0.4990796109E+00    0.1772686872E+00    0.1715801510E+00
    0.1500000000E+06    0.5007871969E+00    0.6711113245E-02    0.4994689324E+00    0.1773925940E+00    0.1719386779E+00
    0.1700000000E+06    0.5009529404E+00    0.6326943727E-02    0.4997774304E+00    0.1774907984E+00    0.1722419879E+00
    0.1900000000E+06    0.5010803306E+00    0.6004008370E-02    0.5000280901E+00    0.1775711037E+00    0.1725039829E+00
    0.2100000000E+06    0.5011807405E+00    0.5727483895E-02    0.5002358109E+00    0.1776383888E+00    0.1727340063E+00
    0.2300000000E+06    0.5012614964E+00    0.5487144928E-02    0.5004107083E+00    0.1776958699E+00    0.1729386187E+00
    0.2500000000E+06    0.5013275236E+00    0.5275675676E-02    0.5005599101E+00    0.1777457595E+00    0.1731225914E+00
    0.2700000000E+06    0.5013822509E+00    0.5087683260E-02    0.5006885937E+00    0.1777896331E+00    0.1732894957E+00
    0.2900000000E+06    0.5014281358E+00    0.4919091917E-02    0.5008006174E+00    0.1778286456E+00    0.1734420695E+00
    0.3100000000E+06    0.5014669834E+00    0.4766755533E-02    0.5008989191E+00    0.1778636649E+00    0.1735824551E+00
    0.3300000000E+06    0.5015001485E+00    0.4628201141E-02    0.5009857777E+00    0.1778953563E+00    0.1737123581E+00
    0.3500000000E+06    0.5015286663E+00    0.4501454038E-02    0.5010629901E+00    0.1779242399E+00    0.1738331573E+00
    0.3700000000E+06    0.5015533407E+00    0.4384915475E-02    0.5011319928E+00    0.1779507285E+00    0.1739459819E+00
    0.3900000000E+06    0.5015748051E+00    0.4277275202E-02    0.5011939492E+00    0.1779751542E+00    0.1740517679E+00
    0.4100000000E+06    0.5015935648E+00    0.4177447676E-02    0.5012498118E+00    0.1779977879E+00    0.1741512993E+00
    0.4300000000E+06    0.5016100274E+00    0.4084524740E-02    0.5013003684E+00    0.1780188528E+00    0.1742452385E+00
    0.4500000000E+06    0.5016245251E+00    0.3997739938E-02    0.5013462764E+00    0.1780385348E+00    0.1743341506E+00
    0.4700000000E+06    0.5016373313E+00    0.3916441251E-02    0.5013880889E+00    0.1780569899E+00    0.1744185206E+00
    0.4900000000E+06    0.5016486726E+00    0.3840069986E-02    0.5014262747E+00    0.1780743504E+00    0.1744987682E+00
    0.1000000000E+06    0.5000447376E+00    0.8123687122E-02    0.4982545484E+00    0.1770025130E+00    0.1708871400E+00
    0.3000000000E+06    0.5014483458E+00    0.4841059831E-02    0.5008513280E+00    0.1778466089E+00    0.1735136705E+00
    0.5000000000E+06    0.5016538544E+00    0.3803578920E-02    0.5014441349E+00    0.1780826561E+00    0.1745374622E+00
    0.7000000000E+06    0.5017135361E+00    0.3244003082E-02    0.5016829833E+00    0.1782116865E+00    0.1751630551E+00
    0.9000000000E+06    0.5017313326E+00    0.2880073638E-02    0.5017961211E+00    0.1782987092E+00    0.1756093394E+00
    0.1100000000E+07    0.5017329791E+00    0.2618824351E-02    0.5018513260E+00    0.1783638118E+00    0.1759544070E+00
    0.1300000000E+07    0.5017274489E+00    0.2419390893E-02    0.5018758048E+00    0.1784156024E+00    0.1762347776E+00
    0.1500000000E+07    0.5017185137E+00    0.2260600034E-02    0.5018825076E+00    0.1784585045E+00    0.1764703750E+00
    0.1700000000E+07    0.5017079543E+00    0.2130230544E-02    0.5018783219E+00    0.1784950735E+00    0.1766732237E+00
    0.1900000000E+07    0.5016966782E+00    0.2020665085E-02    0.5018672073E+00    0.1785269120E+00    0.1768511196E+00
    0.2100000000E+07    0.5016851712E+00    0.1926874143E-02    0.5018515758E+00    0.1785550881E+00    0.1770093962E+00
    0.2300000000E+07    0.5016737009E+00    0.1845384230E-02    0.5018329624E+00    0.1785803480E+00    0.1771518580E+00
    0.2500000000E+07    0.5016624159E+00    0.1773708409E-02    0.5018123782E+00    0.1786032324E+00    0.1772813105E+00
    0.2700000000E+07    0.5016513973E+00    0.1710012607E-02    0.5017905073E+00    0.1786241457E+00    0.1773998808E+00
    0.2900000000E+07    0.5016406869E+00    0.1652910341E-02    0.5017678230E+00    0.1786433977E+00    0.1775092185E+00
    0.3100000000E+07    0.5016303033E+00    0.1601331254E-02    0.5017446577E+00    0.1786612310E+00    0.1776106280E+00
    0.3300000000E+07    0.5016202508E+00    0.1554433988E-02    0.5017212484E+00    0.1786778388E+00    0.1777051579E+00
    0.3500000000E+07    0.5016105258E+00    0.1511546736E-02    0.5016977652E+00    0.1786933777E+00    0.1777936638E+00
    0.3700000000E+07    0.5016011194E+00    0.1472125646E-02    0.5016743312E+00    0.1787079762E+00    0.1778768524E+00
    0.3900000000E+07    0.5015920201E+00    0.1435725064E-02    0.5016510355E+00    0.1787217410E+00    0.1779553140E+00
    0.4100000000E+07    0.5015832150E+00    0.1401975823E-02    0.5016279425E+00    0.1787347617E+00    0.1780295466E+00
    0.4300000000E+07    0.5015746907E+00    0.1370569132E-02    0.5016050985E+00    0.1787471144E+00    0.1780999743E+00
    0.4500000000E+07    0.5015664335E+00    0.1341244432E-02    0.5015825362E+00    0.1787588639E+00    0.1781669609E+00
    0.4700000000E+07    0.5015584303E+00    0.1313780107E-02    0.5015602784E+00    0.1787700661E+00    0.1782308209E+00
    0.4900000000E+07    0.5015506681E+00    0.1287986301E-02    0.5015383402E+00    0.1787807697E+00    0.1782918278E+00
    0.1000000000E+07    0.5017334265E+00    0.2739834918E-02    0.5018287702E+00    0.1783333196E+00    0.1757916905E+00
    0.3000000000E+07    0.5016354537E+00    0.1626487549E-02    0.5017562838E+00    0.1786524786E+00    0.1775608436E+00
    0.5000000000E+07    0.5015468736E+00    0.1275663784E-02    0.5015274941E+00    0.1787859479E+00    0.1783213374E+00
    0.7000000000E+07    0.5014810183E+00    0.1086877606E-02    0.5013278679E+00    0.1788712786E+00    0.1788068614E+00
    0.9000000000E+07    0.5014291393E+00    0.9642835211E-03    0.5011575372E+00    0.1789340945E+00    0.1791628841E+00
    0.1100000000E+08    0.5013864411E+00    0.8763743033E-03    0.5010100403E+00    0.1789838208E+00    0.1794436087E+00
    0.1300000000E+08    0.5013501914E+00    0.8093214932E-03    0.5008801992E+00    0.1790249804E+00    0.1796751407E+00
    0.1500000000E+08    0.5013187084E+00    0.7559685699E-03    0.5007642753E+00    0.1790600946E+00    0.1798720412E+00
    0.1700000000E+08    0.5012908886E+00    0.7121887298E-03    0.5006595624E+00    0.1790907136E+00    0.1800432545E+00
    0.1900000000E+08    0.5012659703E+00    0.6754118283E-03    0.5005640607E+00    0.1791178587E+00    0.1801946652E+00
    0.2100000000E+08    0.5012434065E+00    0.6439420096E-03    0.5004762573E+00    0.1791422384E+00    0.1803303488E+00
    0.2300000000E+08    0.5012227911E+00    0.6166087569E-03    0.5003949828E+00    0.1791643644E+00    0.1804532437E+00
    0.2500000000E+08    0.5012038147E+00    0.5925744292E-03    0.5003193155E+00    0.1791846184E+00    0.1805655375E+00
    0.2700000000E+08    0.5011862359E+00    0.5712215542E-03    0.5002485167E+00    0.1792032926E+00    0.1806689022E+00
