  Pressure (Pa) 22mC5-400 (mol/kg) 2mC6-400 (mol/kg) 3mC6-400 (mol/kg) 23mC5-400 (mol/kg) C7-400 (mol/kg)
    0.1000000000E+01    0.1059445236E-02    0.3159864691E-02    0.5237184939E-03    0.7441077008E-03    0.8498659324E-02
    0.3000000000E+01    0.3142450650E-02    0.9165649484E-02    0.1519552961E-02    0.2207135827E-02    0.2466240726E-01
    0.5000000000E+01    0.5179274924E-02    0.1478569181E-01    0.2452218786E-02    0.3637749828E-02    0.3980561755E-01
    0.7000000000E+01    0.7171817715E-02    0.2005510110E-01    0.3327721630E-02    0.5037282877E-02    0.5402517251E-01
    0.9000000000E+01    0.9121872613E-02    0.2500474277E-01    0.4151323758E-02    0.6406993717E-02    0.6740597118E-01
    0.1100000000E+02    0.1103113448E-01    0.2966187134E-01    0.4927655859E-02    0.7748071813E-02    0.8002273086E-01
    0.1300000000E+02    0.1290120620E-01    0.3405065256E-01    0.5660809251E-02    0.9061642077E-02    0.9194147296E-01
    0.1500000000E+02    0.1473360486E-01    0.3819259673E-01    0.6354412386E-02    0.1034876922E-01    0.1032207558E+00
    0.1700000000E+02    0.1652976746E-01    0.4210692035E-01    0.7011694678E-02    0.1161046174E-01    0.1139127031E+00
    0.1900000000E+02    0.1829105614E-01    0.4581084974E-01    0.7635540045E-02    0.1284767563E-01    0.1240638672E+00
    0.2100000000E+02    0.2001876307E-01    0.4931987706E-01    0.8228532045E-02    0.1406131776E-01    0.1337159563E+00
    0.2300000000E+02    0.2171411486E-01    0.5264797752E-01    0.8792992112E-02    0.1525224899E-01    0.1429064506E+00
    0.2500000000E+02    0.2337827676E-01    0.5580779422E-01    0.9331012082E-02    0.1642128713E-01    0.1516691272E+00
    0.2700000000E+02    0.2501235643E-01    0.5881079640E-01    0.9844481998E-02    0.1756920956E-01    0.1600345077E+00
    0.2900000000E+02    0.2661740748E-01    0.6166741532E-01    0.1033511396E-01    0.1869675576E-01    0.1680302431E+00
    0.3100000000E+02    0.2819443281E-01    0.6438716143E-01    0.1080446264E-01    0.1980462958E-01    0.1756814448E+00
    0.3300000000E+02    0.2974438757E-01    0.6697872590E-01    0.1125394310E-01    0.2089350141E-01    0.1830109707E+00
    0.3500000000E+02    0.3126818207E-01    0.6945006872E-01    0.1168484612E-01    0.2196401014E-01    0.1900396739E+00
    0.3700000000E+02    0.3276668435E-01    0.7180849558E-01    0.1209835163E-01    0.2301676499E-01    0.1967866187E+00
    0.3900000000E+02    0.3424072264E-01    0.7406072508E-01    0.1249554045E-01    0.2405234726E-01    0.2032692692E+00
    0.4100000000E+02    0.3569108767E-01    0.7621294776E-01    0.1287740446E-01    0.2507131193E-01    0.2095036548E+00
    0.4300000000E+02    0.3711853473E-01    0.7827087791E-01    0.1324485569E-01    0.2607418911E-01    0.2155045152E+00
    0.4500000000E+02    0.3852378573E-01    0.8023979949E-01    0.1359873415E-01    0.2706148547E-01    0.2212854282E+00
    0.4700000000E+02    0.3990753095E-01    0.8212460660E-01    0.1393981492E-01    0.2803368550E-01    0.2268589229E+00
    0.4900000000E+02    0.4127043085E-01    0.8392983949E-01    0.1426881428E-01    0.2899125275E-01    0.2322365792E+00
    0.1000000000E+02    0.1008150042E-01    0.2736829390E-01    0.4545131178E-02    0.7081040091E-02    0.7380554130E-01
    0.3000000000E+02    0.2740936258E-01    0.6304383617E-01    0.1057235719E-01    0.1925310906E-01    0.1718974323E+00
    0.5000000000E+02    0.4194426244E-01    0.8480394561E-01    0.1442899257E-01    0.2946468850E-01    0.2348553492E+00
    0.7000000000E+02    0.5446674739E-01    0.9898930825E-01    0.1713567259E-01    0.3826360827E-01    0.2791710448E+00
    0.9000000000E+02    0.6548121451E-01    0.1085909008E+00    0.1915559707E-01    0.4600389575E-01    0.3123368626E+00
    0.1100000000E+03    0.7532898907E-01    0.1152191538E+00    0.2073033892E-01    0.5292512983E-01    0.3382642506E+00
    0.1300000000E+03    0.8424991131E-01    0.1198220250E+00    0.2199872215E-01    0.5919566162E-01    0.3592032189E+00
    0.1500000000E+03    0.9241788221E-01    0.1229944778E+00    0.2304646424E-01    0.6493756099E-01    0.3765444017E+00
    0.1700000000E+03    0.9996238645E-01    0.1251284439E+00    0.2392950665E-01    0.7024172201E-01    0.3911962355E+00
    0.1900000000E+03    0.1069820603E+00    0.1264920700E+00    0.2468600319E-01    0.7517738572E-01    0.4037788899E+00
    0.2100000000E+03    0.1135535437E+00    0.1272744854E+00    0.2534292734E-01    0.7979835316E-01    0.4147312153E+00
    0.2300000000E+03    0.1197374294E+00    0.1276124670E+00    0.2591992578E-01    0.8414716097E-01    0.4243731535E+00
    0.2500000000E+03    0.1255823659E+00    0.1276070215E+00    0.2643167330E-01    0.8825796137E-01    0.4329438989E+00
    0.2700000000E+03    0.1311279522E+00    0.1273340741E+00    0.2688936940E-01    0.9215855399E-01    0.4406261653E+00
    0.2900000000E+03    0.1364068218E+00    0.1268515682E+00    0.2730172188E-01    0.9587184871E-01    0.4475621431E+00
    0.3100000000E+03    0.1414461700E+00    0.1262043073E+00    0.2767561208E-01    0.9941693787E-01    0.4538642977E+00
    0.3300000000E+03    0.1462688921E+00    0.1254273301E+00    0.2801655632E-01    0.1028098951E+00    0.4596228647E+00
    0.3500000000E+03    0.1508944432E+00    0.1245483111E+00    0.2832903319E-01    0.1060643788E+00    0.4649111680E+00
    0.3700000000E+03    0.1553394971E+00    0.1235892982E+00    0.2861672017E-01    0.1091920950E+00    0.4697894676E+00
    0.3900000000E+03    0.1596184569E+00    0.1225679892E+00    0.2888266789E-01    0.1122031556E+00    0.4743077940E+00
    0.4100000000E+03    0.1637438555E+00    0.1214986836E+00    0.2912943029E-01    0.1151063596E+00    0.4785080675E+00
    0.4300000000E+03    0.1677266723E+00    0.1203930004E+00    0.2935916344E-01    0.1179094151E+00    0.4824257074E+00
    0.4500000000E+03    0.1715765870E+00    0.1192604271E+00    0.2957370143E-01    0.1206191181E+00    0.4860908683E+00
    0.4700000000E+03    0.1753021835E+00    0.1181087415E+00    0.2977461532E-01    0.1232414950E+00    0.4895294014E+00
    0.4900000000E+03    0.1789111159E+00    0.1169443420E+00    0.2996325949E-01    0.1257819196E+00    0.4927636109E+00
    0.1000000000E+03    0.7053407535E-01    0.1122066653E+00    0.1998829903E-01    0.4955505792E-01    0.3260381992E+00
    0.3000000000E+03    0.1389549156E+00    0.1265461453E+00    0.2749310237E-01    0.9766435151E-01    0.4507863584E+00
    0.5000000000E+03    0.1806740047E+00    0.1163590614E+00    0.3005335365E-01    0.1270229245E+00    0.4943102447E+00
    0.7000000000E+03    0.2111577960E+00    0.1048626375E+00    0.3142831090E-01    0.1484889599E+00    0.5181016028E+00
    0.9000000000E+03    0.2348877656E+00    0.9465550238E-01    0.3231071571E-01    0.1652088887E+00    0.5336035814E+00
    0.1100000000E+04    0.2539542611E+00    0.8598356081E-01    0.3293473022E-01    0.1786505005E+00    0.5447154776E+00
    0.1300000000E+04    0.2695827990E+00    0.7867542085E-01    0.3340397809E-01    0.1896744819E+00    0.5531752494E+00
    0.1500000000E+04    0.2825830643E+00    0.7250186571E-01    0.3377216741E-01    0.1988496109E+00    0.5598895993E+00
    0.1700000000E+04    0.2935265752E+00    0.6725516059E-01    0.3407022204E-01    0.2065774608E+00    0.5653837651E+00
    0.1900000000E+04    0.3028330308E+00    0.6276345627E-01    0.3431734218E-01    0.2131530045E+00    0.5699857162E+00
    0.2100000000E+04    0.3108187788E+00    0.5888873206E-01    0.3452614697E-01    0.2187986322E+00    0.5739121610E+00
    0.2300000000E+04    0.3177268059E+00    0.5552111022E-01    0.3470530789E-01    0.2236852029E+00    0.5773127690E+00
    0.2500000000E+04    0.3237465342E+00    0.5257313927E-01    0.3486100114E-01    0.2279459421E+00    0.5802946539E+00
    0.2700000000E+04    0.3290274649E+00    0.4997495953E-01    0.3499775731E-01    0.2316860217E+00    0.5829367505E+00
    0.2900000000E+04    0.3336888675E+00    0.4767045234E-01    0.3511898295E-01    0.2349893649E+00    0.5852986709E+00
    0.3100000000E+04    0.3378268143E+00    0.4561424532E-01    0.3522729383E-01    0.2379235869E+00    0.5874263823E+00
    0.3300000000E+04    0.3415193746E+00    0.4376940382E-01    0.3532473511E-01    0.2405436444E+00    0.5893559716E+00
    0.3500000000E+04    0.3448305034E+00    0.4210565443E-01    0.3541293120E-01    0.2428945679E+00    0.5911162141E+00
    0.3700000000E+04    0.3478129885E+00    0.4059801480E-01    0.3549319025E-01    0.2450135332E+00    0.5927303718E+00
    0.3900000000E+04    0.3505107074E+00    0.3922573268E-01    0.3556657871E-01    0.2469314471E+00    0.5942174787E+00
    0.4100000000E+04    0.3529603712E+00    0.3797145986E-01    0.3563397548E-01    0.2486741743E+00    0.5955932790E+00
    0.4300000000E+04    0.3551928854E+00    0.3682060527E-01    0.3569611209E-01    0.2502634935E+00    0.5968709223E+00
    0.4500000000E+04    0.3572344192E+00    0.3576082526E-01    0.3575360273E-01    0.2517178497E+00    0.5980614878E+00
    0.4700000000E+04    0.3591072528E+00    0.3478161946E-01    0.3580696728E-01    0.2530529501E+00    0.5991743850E+00
    0.4900000000E+04    0.3608304536E+00    0.3387400830E-01    0.3585664899E-01    0.2542822397E+00    0.6002176628E+00
    0.1000000000E+04    0.2449144481E+00    0.9013515034E-01    0.3264685844E-01    0.1722766325E+00    0.5395716311E+00
    0.3000000000E+04    0.3358180225E+00    0.4661379441E-01    0.3517461356E-01    0.2364989204E+00    0.5863893504E+00
    0.5000000000E+04    0.3616411576E+00    0.3344459568E-01    0.3588022982E-01    0.2548608840E+00    0.6007153986E+00
    0.7000000000E+04    0.3729755165E+00    0.2721486619E-01    0.3622770171E-01    0.2629784480E+00    0.6082833019E+00
    0.9000000000E+04    0.3791677739E+00    0.2352036559E-01    0.3643708245E-01    0.2674475005E+00    0.6131349763E+00
    0.1100000000E+05    0.3830182464E+00    0.2103044625E-01    0.3657751126E-01    0.2702488490E+00    0.6165807549E+00
    0.1300000000E+05    0.3856243486E+00    0.1921219288E-01    0.3667820189E-01    0.2721606199E+00    0.6191893644E+00
    0.1500000000E+05    0.3874964336E+00    0.1781039511E-01    0.3675377544E-01    0.2735455793E+00    0.6212524457E+00
    0.1700000000E+05    0.3889017145E+00    0.1668689911E-01    0.3681241149E-01    0.2745941502E+00    0.6229368784E+00
    0.1900000000E+05    0.3899928098E+00    0.1575996909E-01    0.3685906396E-01    0.2754153769E+00    0.6243459065E+00
    0.2100000000E+05    0.3908628801E+00    0.1497788991E-01    0.3689691748E-01    0.2760759990E+00    0.6255472603E+00
    0.2300000000E+05    0.3915718562E+00    0.1430618142E-01    0.3692811678E-01    0.2766190666E+00    0.6265874507E+00
    0.2500000000E+05    0.3921599640E+00    0.1372087056E-01    0.3695416124E-01    0.2770735548E+00    0.6274996105E+00
    0.2700000000E+05    0.3926551669E+00    0.1320470887E-01    0.3697613176E-01    0.2774596620E+00    0.6283080643E+00
    0.2900000000E+05    0.3930774843E+00    0.1274492778E-01    0.3699482777E-01    0.2777918892E+00    0.6290311251E+00
    0.3100000000E+05    0.3934416120E+00    0.1233184535E-01    0.3701085361E-01    0.2780809112E+00    0.6296828778E+00
    0.3300000000E+05    0.3937585732E+00    0.1195796787E-01    0.3702467472E-01    0.2783347581E+00    0.6302743566E+00
    0.3500000000E+05    0.3940367927E+00    0.1161739164E-01    0.3703665549E-01    0.2785595851E+00    0.6308143442E+00
    0.3700000000E+05    0.3942828168E+00    0.1130539318E-01    0.3704708526E-01    0.2787601883E+00    0.6313099303E+00
    0.3900000000E+05    0.3945018067E+00    0.1101814157E-01    0.3705619675E-01    0.2789403604E+00    0.6317669086E+00
    0.4100000000E+05    0.3946978847E+00    0.1075249220E-01    0.3706417922E-01    0.2791031393E+00    0.6321900668E+00
    0.4300000000E+05    0.3948743821E+00    0.1050583592E-01    0.3707118813E-01    0.2792509874E+00    0.6325834002E+00
    0.4500000000E+05    0.3950340193E+00    0.1027598694E-01    0.3707735241E-01    0.2793859213E+00    0.6329502729E+00
    0.4700000000E+05    0.3951790393E+00    0.1006109814E-01    0.3708277979E-01    0.2795096085E+00    0.6332935402E+00
    0.4900000000E+05    0.3953113070E+00    0.9859596269E-02    0.3708756103E-01    0.2796234399E+00    0.6336156435E+00
    0.1000000000E+05    0.3812965978E+00    0.2216781145E-01    0.3651359035E-01    0.2689934762E+00    0.6149886382E+00
    0.3000000000E+05    0.3932660616E+00    0.1253306074E-01    0.3700314263E-01    0.2779412475E+00    0.6293651646E+00
    0.5000000000E+05    0.3953731575E+00    0.9763436065E-02    0.3708973385E-01    0.2796770326E+00    0.6337694271E+00
    0.7000000000E+05    0.3962141486E+00    0.8297390088E-02    0.3711295882E-01    0.2804370969E+00    0.6361184346E+00
    0.9000000000E+05    0.3966549622E+00    0.7350989070E-02    0.3711601118E-01    0.2808735562E+00    0.6376381012E+00
    0.1100000000E+06    0.3969207367E+00    0.6674237156E-02    0.3711085416E-01    0.2811616783E+00    0.6387261678E+00
    0.1300000000E+06    0.3970952452E+00    0.6158836325E-02    0.3710196751E-01    0.2813687978E+00    0.6395558236E+00
    0.1500000000E+06    0.3972165610E+00    0.5749126755E-02    0.3709133099E-01    0.2815264928E+00    0.6402162179E+00
    0.1700000000E+06    0.3973043853E+00    0.5413143915E-02    0.3707991391E-01    0.2816516182E+00    0.6407585612E+00
    0.1900000000E+06    0.3973698903E+00    0.5131032787E-02    0.3706822298E-01    0.2817540311E+00    0.6412146562E+00
    0.2100000000E+06    0.3974198601E+00    0.4889715653E-02    0.3705653378E-01    0.2818399028E+00    0.6416054420E+00
    0.2300000000E+06    0.3974586382E+00    0.4680177214E-02    0.3704499883E-01    0.2819133069E+00    0.6419453472E+00
    0.2500000000E+06    0.3974891263E+00    0.4495971789E-02    0.3703370200E-01    0.2819770486E+00    0.6422446841E+00
    0.2700000000E+06    0.3975133309E+00    0.4332351095E-02    0.3702268752E-01    0.2820331273E+00    0.6425110472E+00
    0.2900000000E+06    0.3975326806E+00    0.4185728895E-02    0.3701197622E-01    0.2820830100E+00    0.6427501709E+00
    0.3100000000E+06    0.3975482173E+00    0.4053338714E-02    0.3700157488E-01    0.2821277996E+00    0.6429664781E+00
    0.3300000000E+06    0.3975607170E+00    0.3933007335E-02    0.3699148185E-01    0.2821683427E+00    0.6431634430E+00
    0.3500000000E+06    0.3975707686E+00    0.3823000441E-02    0.3698169047E-01    0.2822053011E+00    0.6433438382E+00
    0.3700000000E+06    0.3975788256E+00    0.3721914707E-02    0.3697219116E-01    0.2822392006E+00    0.6435099071E+00
    0.3900000000E+06    0.3975852426E+00    0.3628600672E-02    0.3696297280E-01    0.2822704643E+00    0.6436634874E+00
    0.4100000000E+06    0.3975903001E+00    0.3542106514E-02    0.3695402352E-01    0.2822994375E+00    0.6438061013E+00
    0.4300000000E+06    0.3975942225E+00    0.3461636345E-02    0.3694533126E-01    0.2823264050E+00    0.6439390216E+00
    0.4500000000E+06    0.3975971912E+00    0.3386518794E-02    0.3693688408E-01    0.2823516037E+00    0.6440633224E+00
    0.4700000000E+06    0.3975993539E+00    0.3316182995E-02    0.3692867039E-01    0.2823752330E+00    0.6441799170E+00
    0.4900000000E+06    0.3976008322E+00    0.3250140015E-02    0.3692067905E-01    0.2823974617E+00    0.6442895881E+00
    0.1000000000E+06    0.3968028728E+00    0.6987466048E-02    0.3711409065E-01    0.2810306931E+00    0.6382224058E+00
    0.3000000000E+06    0.3975408719E+00    0.4117902448E-02    0.3700673676E-01    0.2821059835E+00    0.6428609405E+00
    0.5000000000E+06    0.3976013468E+00    0.3218594299E-02    0.3691676342E-01    0.2824080967E+00    0.6443420419E+00
    0.7000000000E+06    0.3975928896E+00    0.2735745283E-02    0.3684784013E-01    0.2825733110E+00    0.6451515028E+00
    0.9000000000E+06    0.3975693945E+00    0.2422699032E-02    0.3679226465E-01    0.2826846989E+00    0.6456847617E+00
    0.1100000000E+07    0.3975425416E+00    0.2198513502E-02    0.3674570941E-01    0.2827679838E+00    0.6460722250E+00
    0.1300000000E+07    0.3975157267E+00    0.2027704518E-02    0.3670563452E-01    0.2828342000E+00    0.6463713795E+00
    0.1500000000E+07    0.3974900347E+00    0.1891925162E-02    0.3667043780E-01    0.2828890205E+00    0.6466121169E+00
    0.1700000000E+07    0.3974657790E+00    0.1780603998E-02    0.3663904655E-01    0.2829357232E+00    0.6468117568E+00
    0.1900000000E+07    0.3974429904E+00    0.1687161773E-02    0.3661070790E-01    0.2829763643E+00    0.6469811373E+00
    0.2100000000E+07    0.3974215955E+00    0.1607260022E-02    0.3658487318E-01    0.2830123136E+00    0.6471274428E+00
    0.2300000000E+07    0.3974014863E+00    0.1537905957E-02    0.3656113014E-01    0.2830445282E+00    0.6472556547E+00
    0.2500000000E+07    0.3973825482E+00    0.1476959025E-02    0.3653916112E-01    0.2830737018E+00    0.6473693536E+00
    0.2700000000E+07    0.3973646721E+00    0.1422842084E-02    0.3651871607E-01    0.2831003526E+00    0.6474711902E+00
    0.2900000000E+07    0.3973477578E+00    0.1374363904E-02    0.3649959464E-01    0.2831248779E+00    0.6475631762E+00
    0.3100000000E+07    0.3973317158E+00    0.1330605590E-02    0.3648163376E-01    0.2831475885E+00    0.6476468700E+00
    0.3300000000E+07    0.3973164666E+00    0.1290845372E-02    0.3646469891E-01    0.2831687321E+00    0.6477235015E+00
    0.3500000000E+07    0.3973019398E+00    0.1254507323E-02    0.3644867782E-01    0.2831885093E+00    0.6477940559E+00
    0.3700000000E+07    0.3972880730E+00    0.1221125513E-02    0.3643347579E-01    0.2832070846E+00    0.6478593337E+00
    0.3900000000E+07    0.3972748113E+00    0.1190318364E-02    0.3641901218E-01    0.2832245948E+00    0.6479199931E+00
    0.4100000000E+07    0.3972621057E+00    0.1161769973E-02    0.3640521778E-01    0.2832411546E+00    0.6479765812E+00
    0.4300000000E+07    0.3972499128E+00    0.1135216242E-02    0.3639203273E-01    0.2832568611E+00    0.6480295571E+00
    0.4500000000E+07    0.3972381938E+00    0.1110434436E-02    0.3637940490E-01    0.2832717975E+00    0.6480793094E+00
    0.4700000000E+07    0.3972269140E+00    0.1087235205E-02    0.3636728860E-01    0.2832860354E+00    0.6481261698E+00
    0.4900000000E+07    0.3972160424E+00    0.1065456407E-02    0.3635564358E-01    0.2832996368E+00    0.6481704231E+00
    0.1000000000E+07    0.3975560891E+00    0.2302297310E-02    0.3676804714E-01    0.2827289815E+00    0.6458921909E+00
    0.3000000000E+07    0.3973396330E+00    0.1351943802E-02    0.3649047812E-01    0.2831364433E+00    0.6476059762E+00
    0.5000000000E+07    0.3972107508E+00    0.1055055231E-02    0.3634998649E-01    0.2833062161E+00    0.6481916505E+00
    0.7000000000E+07    0.3971208275E+00    0.8959823285E-03    0.3625473306E-01    0.2834145496E+00    0.6485248096E+00
    0.9000000000E+07    0.3970518341E+00    0.7929881269E-03    0.3618245371E-01    0.2834942002E+00    0.6487509141E+00
    0.1100000000E+08    0.3969958685E+00    0.7192996627E-03    0.3612414522E-01    0.2835571968E+00    0.6489191873E+00
    0.1300000000E+08    0.3969487892E+00    0.6631960842E-03    0.3607524973E-01    0.2836093044E+00    0.6490517601E+00
    0.1500000000E+08    0.3969081584E+00    0.6186236027E-03    0.3603313456E-01    0.2836537339E+00    0.6491603296E+00
    0.1700000000E+08    0.3968724205E+00    0.5820969964E-03    0.3599613943E-01    0.2836924580E+00    0.6492517692E+00
    0.1900000000E+08    0.3968405226E+00    0.5514487092E-03    0.3596314907E-01    0.2837267751E+00    0.6493304339E+00
    0.2100000000E+08    0.3968117184E+00    0.5252502581E-03    0.3593337779E-01    0.2837575859E+00    0.6493992433E+00
    0.2300000000E+08    0.3967854604E+00    0.5025167327E-03    0.3590625099E-01    0.2837855402E+00    0.6494602423E+00
    0.2500000000E+08    0.3967613342E+00    0.4825439957E-03    0.3588133569E-01    0.2838111227E+00    0.6495149148E+00
    0.2700000000E+08    0.3967390195E+00    0.4648134438E-03    0.3585829741E-01    0.2838347042E+00    0.6495643690E+00
