  Pressure (Pa) 22mC5-400 (mol/kg) 2mC6-400 (mol/kg) 3mC6-400 (mol/kg) 23mC5-400 (mol/kg) C7-400 (mol/kg)
    0.1000000000E+01    0.1059206097E-02    0.3922889740E-02    0.5193528113E-03    0.3719698187E-03    0.1348504447E-01
    0.3000000000E+01    0.3140379102E-02    0.1123561689E-01    0.1483437970E-02    0.1102839963E-02    0.3852651689E-01
    0.5000000000E+01    0.5173733901E-02    0.1791824180E-01    0.2359673960E-02    0.1816927716E-02    0.6129703056E-01
    0.7000000000E+01    0.7161355316E-02    0.2405232075E-01    0.3159834428E-02    0.2514964682E-02    0.8210048253E-01
    0.9000000000E+01    0.9105204500E-02    0.2970542891E-01    0.3893666527E-02    0.3197639068E-02    0.1011885024E+00
    0.1100000000E+02    0.1100712805E-01    0.3493406802E-01    0.4569309711E-02    0.3865598889E-02    0.1187712487E+00
    0.1300000000E+02    0.1286886635E-01    0.3978587555E-01    0.5193614737E-02    0.4519454886E-02    0.1350256338E+00
    0.1500000000E+02    0.1469206114E-01    0.4430132354E-01    0.5772389561E-02    0.5159783192E-02    0.1501016646E+00
    0.1700000000E+02    0.1647826252E-01    0.4851503959E-01    0.6310590963E-02    0.5787127777E-02    0.1641273833E+00
    0.1900000000E+02    0.1822893530E-01    0.5245684442E-01    0.6812475367E-02    0.6402002686E-02    0.1772127580E+00
    0.2100000000E+02    0.1994546484E-01    0.5615257476E-01    0.7281718673E-02    0.7004894087E-02    0.1894527731E+00
    0.2300000000E+02    0.2162916244E-01    0.5962474154E-01    0.7721512262E-02    0.7596262160E-02    0.2009299057E+00
    0.2500000000E+02    0.2328127029E-01    0.6289306077E-01    0.8134640544E-02    0.8176542828E-02    0.2117161264E+00
    0.2700000000E+02    0.2490296598E-01    0.6597488496E-01    0.8523544048E-02    0.8746149353E-02    0.2218745268E+00
    0.2900000000E+02    0.2649536672E-01    0.6888555618E-01    0.8890371119E-02    0.9305473808E-02    0.2314606535E+00
    0.3100000000E+02    0.2805953321E-01    0.7163869708E-01    0.9237020543E-02    0.9854888433E-02    0.2405236082E+00
    0.3300000000E+02    0.2959647321E-01    0.7424645204E-01    0.9565176910E-02    0.1039474689E-01    0.2491069603E+00
    0.3500000000E+02    0.3110714482E-01    0.7671968841E-01    0.9876340121E-02    0.1092538542E-01    0.2572495080E+00
    0.3700000000E+02    0.3259245958E-01    0.7906816523E-01    0.1017185014E-01    0.1144712392E-01    0.2649859180E+00
    0.3900000000E+02    0.3405328526E-01    0.8130067554E-01    0.1045290784E-01    0.1196026694E-01    0.2723472633E+00
    0.4100000000E+02    0.3549044854E-01    0.8342516689E-01    0.1072059273E-01    0.1246510459E-01    0.2793614802E+00
    0.4300000000E+02    0.3690473739E-01    0.8544884401E-01    0.1097587794E-01    0.1296191341E-01    0.2860537563E+00
    0.4500000000E+02    0.3829690339E-01    0.8737825657E-01    0.1121964309E-01    0.1345095716E-01    0.2924468624E+00
    0.4700000000E+02    0.3966766381E-01    0.8921937456E-01    0.1145268534E-01    0.1393248758E-01    0.2985614375E+00
    0.4900000000E+02    0.4101770358E-01    0.9097765328E-01    0.1167572888E-01    0.1440674505E-01    0.3044162341E+00
    0.1000000000E+02    0.1006129581E-01    0.3236964403E-01    0.4238306543E-02    0.3533419287E-02    0.1101562806E+00
    0.3000000000E+02    0.2728091506E-01    0.7028102679E-01    0.9066108101E-02    0.9581397324E-02    0.2360546842E+00
    0.5000000000E+02    0.4168515887E-01    0.9182730597E-01    0.1178370953E-01    0.1464121860E-01    0.3072516126E+00
    0.7000000000E+02    0.5409102123E-01    0.1054878544E+00    0.1355088681E-01    0.1899960455E-01    0.3537533391E+00
    0.9000000000E+02    0.6501646296E-01    0.1146524798E+00    0.1480438310E-01    0.2283833943E-01    0.3868774904E+00
    0.1100000000E+03    0.7480701361E-01    0.1209899240E+00    0.1574666041E-01    0.2627869520E-01    0.4118786843E+00
    0.1300000000E+03    0.8370282238E-01    0.1254326281E+00    0.1648497527E-01    0.2940496084E-01    0.4315448063E+00
    0.1500000000E+03    0.9187652596E-01    0.1285475606E+00    0.1708172350E-01    0.3227773118E-01    0.4475000890E+00
    0.1700000000E+03    0.9945578636E-01    0.1307008743E+00    0.1757581549E-01    0.3494181630E-01    0.4607588862E+00
    0.1900000000E+03    0.1065373034E+00    0.1321399582E+00    0.1799285467E-01    0.3743115918E-01    0.4719896088E+00
    0.2100000000E+03    0.1131958547E+00    0.1330379455E+00    0.1835042458E-01    0.3977200838E-01    0.4816519458E+00
    0.2300000000E+03    0.1194903155E+00    0.1335194752E+00    0.1866102965E-01    0.4198503074E-01    0.4900732560E+00
    0.2500000000E+03    0.1254677786E+00    0.1336763847E+00    0.1893382386E-01    0.4408675745E-01    0.4974935138E+00
    0.2700000000E+03    0.1311664431E+00    0.1335776725E+00    0.1917567448E-01    0.4609059793E-01    0.5040929903E+00
    0.2900000000E+03    0.1366176835E+00    0.1332760435E+00    0.1939184231E-01    0.4800756597E-01    0.5100099688E+00
    0.3100000000E+03    0.1418475589E+00    0.1328123343E+00    0.1958643112E-01    0.4984680960E-01    0.5153524609E+00
    0.3300000000E+03    0.1468779343E+00    0.1322185802E+00    0.1976269313E-01    0.5161600453E-01    0.5202061771E+00
    0.3500000000E+03    0.1517273249E+00    0.1315201857E+00    0.1992324193E-01    0.5332165059E-01    0.5246400840E+00
    0.3700000000E+03    0.1564115413E+00    0.1307374905E+00    0.2007020397E-01    0.5496929824E-01    0.5287103653E+00
    0.3900000000E+03    0.1609441894E+00    0.1298869170E+00    0.2020532860E-01    0.5656372389E-01    0.5324632987E+00
    0.4100000000E+03    0.1653370606E+00    0.1289818246E+00    0.2033006930E-01    0.5810906708E-01    0.5359373822E+00
    0.4300000000E+03    0.1696004415E+00    0.1280331533E+00    0.2044564461E-01    0.5960893900E-01    0.5391649299E+00
    0.4500000000E+03    0.1737433603E+00    0.1270499152E+00    0.2055308444E-01    0.6106650912E-01    0.5421732872E+00
    0.4700000000E+03    0.1777737860E+00    0.1260395729E+00    0.2065326580E-01    0.6248457503E-01    0.5449857665E+00
    0.4900000000E+03    0.1816987897E+00    0.1250083349E+00    0.2074694054E-01    0.6386561915E-01    0.5476223777E+00
    0.1000000000E+03    0.7003666238E-01    0.1181049116E+00    0.1530629236E-01    0.2460237001E-01    0.4001821829E+00
    0.3000000000E+03    0.1392588380E+00    0.1330622694E+00    0.1949161373E-01    0.4893639296E-01    0.5127472206E+00
    0.5000000000E+03    0.1836237556E+00    0.1244865351E+00    0.2079154415E-01    0.6454295921E-01    0.5488802268E+00
    0.7000000000E+03    0.2178164343E+00    0.1138410138E+00    0.2146096318E-01    0.7657722368E-01    0.5679801695E+00
    0.9000000000E+03    0.2458700281E+00    0.1038182058E+00    0.2187843558E-01    0.8645505677E-01    0.5801654812E+00
    0.1100000000E+04    0.2695628562E+00    0.9487651106E-01    0.2216714606E-01    0.9480073740E-01    0.5887672353E+00
    0.1300000000E+04    0.2899009724E+00    0.8701590028E-01    0.2238026576E-01    0.1019674464E+00    0.5952382108E+00
    0.1500000000E+04    0.3075453617E+00    0.8012857077E-01    0.2254483406E-01    0.1081872447E+00    0.6003242876E+00
    0.1700000000E+04    0.3229720534E+00    0.7408881940E-01    0.2267617881E-01    0.1136272808E+00    0.6044520933E+00
    0.1900000000E+04    0.3365438485E+00    0.6877853243E-01    0.2278369110E-01    0.1184149668E+00    0.6078852476E+00
    0.2100000000E+04    0.3485472229E+00    0.6409381959E-01    0.2287347170E-01    0.1226509286E+00    0.6107963997E+00
    0.2300000000E+04    0.3592136076E+00    0.5994562179E-01    0.2294966954E-01    0.1264164730E+00    0.6133038771E+00
    0.2500000000E+04    0.3687328600E+00    0.5625840275E-01    0.2301521206E-01    0.1297783136E+00    0.6154917931E+00
    0.2700000000E+04    0.3772624427E+00    0.5296834924E-01    0.2307222838E-01    0.1327917911E+00    0.6174217614E+00
    0.2900000000E+04    0.3849340324E+00    0.5002158659E-01    0.2312230682E-01    0.1355031922E+00    0.6191400612E+00
    0.3100000000E+04    0.3918584728E+00    0.4737257938E-01    0.2316665803E-01    0.1379514874E+00    0.6206822033E+00
    0.3300000000E+04    0.3981295919E+00    0.4498275824E-01    0.2320622217E-01    0.1401696701E+00    0.6220759397E+00
    0.3500000000E+04    0.4038272056E+00    0.4281936512E-01    0.2324174117E-01    0.1421858115E+00    0.6233433070E+00
    0.3700000000E+04    0.4090195130E+00    0.4085449217E-01    0.2327380891E-01    0.1440239010E+00    0.6245020506E+00
    0.3900000000E+04    0.4137650294E+00    0.3906428590E-01    0.2330290678E-01    0.1457045249E+00    0.6255666376E+00
    0.4100000000E+04    0.4181141576E+00    0.3742828949E-01    0.2332942935E-01    0.1472454183E+00    0.6265489940E+00
    0.4300000000E+04    0.4221104743E+00    0.3592889934E-01    0.2335370333E-01    0.1486619167E+00    0.6274590481E+00
    0.4500000000E+04    0.4257917890E+00    0.3455091557E-01    0.2337600168E-01    0.1499673282E+00    0.6283051398E+00
    0.4700000000E+04    0.4291910195E+00    0.3328116963E-01    0.2339655433E-01    0.1511732405E+00    0.6290943312E+00
    0.4900000000E+04    0.4323369194E+00    0.3210821499E-01    0.2341555645E-01    0.1522897774E+00    0.6298326470E+00
    0.1000000000E+04    0.2581876386E+00    0.9920777154E-01    0.2203467345E-01    0.9079347381E-01    0.5847995109E+00
    0.3000000000E+04    0.3884834218E+00    0.4866242286E-01    0.2314513421E-01    0.1367580394E+00    0.6199312633E+00
    0.5000000000E+04    0.4338228689E+00    0.3155486398E-01    0.2342452914E-01    0.1528173464E+00    0.6301843724E+00
    0.7000000000E+04    0.4549512283E+00    0.2372004791E-01    0.2355268543E-01    0.1603352465E+00    0.6354904379E+00
    0.9000000000E+04    0.4667005964E+00    0.1935569520E-01    0.2362513632E-01    0.1645369156E+00    0.6388500281E+00
    0.1100000000E+05    0.4740313232E+00    0.1659595070E-01    0.2367077368E-01    0.1671725330E+00    0.6412158346E+00
    0.1300000000E+05    0.4789832138E+00    0.1469324647E-01    0.2370145157E-01    0.1689629356E+00    0.6429956255E+00
    0.1500000000E+05    0.4825264355E+00    0.1329781562E-01    0.2372295561E-01    0.1702515190E+00    0.6443963671E+00
    0.1700000000E+05    0.4851742116E+00    0.1222639342E-01    0.2373845021E-01    0.1712202441E+00    0.6455355488E+00
    0.1900000000E+05    0.4872208467E+00    0.1137436347E-01    0.2374981200E-01    0.1719736354E+00    0.6464853949E+00
    0.2100000000E+05    0.4888460931E+00    0.1067787506E-01    0.2375822358E-01    0.1725756464E+00    0.6472930366E+00
    0.2300000000E+05    0.4901654303E+00    0.1009581623E-01    0.2376446623E-01    0.1730674385E+00    0.6479906956E+00
    0.2500000000E+05    0.4912561809E+00    0.9600533943E-02    0.2376907603E-01    0.1734766236E+00    0.6486012383E+00
    0.2700000000E+05    0.4921719339E+00    0.9172740769E-02    0.2377243238E-01    0.1738223749E+00    0.6491413964E+00
    0.2900000000E+05    0.4929509269E+00    0.8798566595E-02    0.2377481082E-01    0.1741183997E+00    0.6496237300E+00
    0.3100000000E+05    0.4936211328E+00    0.8467773623E-02    0.2377641592E-01    0.1743747454E+00    0.6500578743E+00
    0.3300000000E+05    0.4942034610E+00    0.8172633449E-02    0.2377740241E-01    0.1745989373E+00    0.6504513601E+00
    0.3500000000E+05    0.4947138386E+00    0.7907196838E-02    0.2377788922E-01    0.1747967190E+00    0.6508101690E+00
    0.3700000000E+05    0.4951645999E+00    0.7666804972E-02    0.2377796910E-01    0.1749725479E+00    0.6511391203E+00
    0.3900000000E+05    0.4955654389E+00    0.7447753889E-02    0.2377771527E-01    0.1751299341E+00    0.6514421459E+00
    0.4100000000E+05    0.4959240751E+00    0.7247058873E-02    0.2377718618E-01    0.1752716789E+00    0.6517224894E+00
    0.4300000000E+05    0.4962467284E+00    0.7062285649E-02    0.2377642894E-01    0.1754000440E+00    0.6519828536E+00
    0.4500000000E+05    0.4965384644E+00    0.6891427266E-02    0.2377548186E-01    0.1755168752E+00    0.6522255115E+00
    0.4700000000E+05    0.4968034486E+00    0.6732812820E-02    0.2377437635E-01    0.1756236937E+00    0.6524523895E+00
    0.4900000000E+05    0.4970451364E+00    0.6585038783E-02    0.2377313833E-01    0.1757217640E+00    0.6526651332E+00
    0.1000000000E+05    0.4707538748E+00    0.1783581595E-01    0.2365035637E-01    0.1659924033E+00    0.6401248150E+00
    0.3000000000E+05    0.4932981844E+00    0.8628279280E-02    0.2377569940E-01    0.1742510132E+00    0.6498463133E+00
    0.5000000000E+05    0.4971581661E+00    0.6514838281E-02    0.2377247650E-01    0.1757678566E+00    0.6527666547E+00
    0.7000000000E+05    0.4986993317E+00    0.5468080449E-02    0.2375596679E-01    0.1764158567E+00    0.6543133756E+00
    0.9000000000E+05    0.4995169578E+00    0.4812791529E-02    0.2373761684E-01    0.1767829612E+00    0.6553100347E+00
    0.1100000000E+06    0.5000190534E+00    0.4352280071E-02    0.2371978854E-01    0.1770232574E+00    0.6560217247E+00
    0.1300000000E+06    0.5003562848E+00    0.4005419919E-02    0.2370303513E-01    0.1771950084E+00    0.6565633252E+00
    0.1500000000E+06    0.5005969283E+00    0.3731777190E-02    0.2368743024E-01    0.1773252381E+00    0.6569937735E+00
    0.1700000000E+06    0.5007763123E+00    0.3508612188E-02    0.2367290790E-01    0.1774282539E+00    0.6573468403E+00
    0.1900000000E+06    0.5009145096E+00    0.3322011717E-02    0.2365936591E-01    0.1775123712E+00    0.6576434557E+00
    0.2100000000E+06    0.5010237487E+00    0.3162915344E-02    0.2364669973E-01    0.1775827705E+00    0.6578973778E+00
    0.2300000000E+06    0.5011118936E+00    0.3025132151E-02    0.2363481340E-01    0.1776428577E+00    0.6581180740E+00
    0.2500000000E+06    0.5011842245E+00    0.2904266951E-02    0.2362362224E-01    0.1776949706E+00    0.6583123027E+00
    0.2700000000E+06    0.5012444148E+00    0.2797100560E-02    0.2361305269E-01    0.1777407710E+00    0.6584850358E+00
    0.2900000000E+06    0.5012950960E+00    0.2701213201E-02    0.2360304117E-01    0.1777814753E+00    0.6586400244E+00
    0.3100000000E+06    0.5013382011E+00    0.2614745708E-02    0.2359353271E-01    0.1778179961E+00    0.6587801593E+00
    0.3300000000E+06    0.5013751806E+00    0.2536242598E-02    0.2358447971E-01    0.1778510328E+00    0.6589077094E+00
    0.3500000000E+06    0.5014071433E+00    0.2464545759E-02    0.2357584073E-01    0.1778811315E+00    0.6590244843E+00
    0.3700000000E+06    0.5014349506E+00    0.2398720509E-02    0.2356757962E-01    0.1779087250E+00    0.6591319475E+00
    0.3900000000E+06    0.5014592816E+00    0.2338002974E-02    0.2355966465E-01    0.1779341617E+00    0.6592312970E+00
    0.4100000000E+06    0.5014806782E+00    0.2281761880E-02    0.2355206784E-01    0.1779577254E+00    0.6593235247E+00
    0.4300000000E+06    0.5014995780E+00    0.2229470310E-02    0.2354476447E-01    0.1779796499E+00    0.6594094594E+00
    0.4500000000E+06    0.5015163380E+00    0.2180684488E-02    0.2353773252E-01    0.1780001298E+00    0.6594898006E+00
    0.4700000000E+06    0.5015312522E+00    0.2135027612E-02    0.2353095237E-01    0.1780193284E+00    0.6595651425E+00
    0.4900000000E+06    0.5015445645E+00    0.2092177378E-02    0.2352440643E-01    0.1780373840E+00    0.6596359943E+00
    0.1000000000E+06    0.4997951018E+00    0.4564662918E-02    0.2372858447E-01    0.1769142151E+00    0.6556924182E+00
    0.3000000000E+06    0.5013174956E+00    0.2656900962E-02    0.2359822719E-01    0.1778002107E+00    0.6587117944E+00
    0.5000000000E+06    0.5015506851E+00    0.2071716490E-02    0.2352121628E-01    0.1780460209E+00    0.6596698760E+00
    0.7000000000E+06    0.5016245775E+00    0.1759038968E-02    0.2346659521E-01    0.1781800633E+00    0.6601922801E+00
    0.9000000000E+06    0.5016515059E+00    0.1556774735E-02    0.2342416081E-01    0.1782703067E+00    0.6605359707E+00
    0.1100000000E+07    0.5016596994E+00    0.1412117086E-02    0.2338941240E-01    0.1783377183E+00    0.6607854699E+00
    0.1300000000E+07    0.5016591803E+00    0.1301999365E-02    0.2335996451E-01    0.1783912761E+00    0.6609779779E+00
    0.1500000000E+07    0.5016542519E+00    0.1214521342E-02    0.2333439811E-01    0.1784355910E+00    0.6611328158E+00
    0.1700000000E+07    0.5016469980E+00    0.1142836472E-02    0.2331179937E-01    0.1784733255E+00    0.6612611690E+00
    0.1900000000E+07    0.5016385138E+00    0.1082688443E-02    0.2329154466E-01    0.1785061483E+00    0.6613700318E+00
    0.2100000000E+07    0.5016294086E+00    0.1031272957E-02    0.2327318914E-01    0.1785351711E+00    0.6614640383E+00
    0.2300000000E+07    0.5016200353E+00    0.9866568497E-03    0.2325640417E-01    0.1785611700E+00    0.6615463998E+00
    0.2500000000E+07    0.5016106034E+00    0.9474582166E-03    0.2324093998E-01    0.1785847075E+00    0.6616194238E+00
    0.2700000000E+07    0.5016012390E+00    0.9126593542E-03    0.2322660226E-01    0.1786062038E+00    0.6616848180E+00
    0.2900000000E+07    0.5015920180E+00    0.8814918880E-03    0.2321323681E-01    0.1786259805E+00    0.6617438775E+00
    0.3100000000E+07    0.5015829853E+00    0.8533633081E-03    0.2320071918E-01    0.1786442896E+00    0.6617976060E+00
    0.3300000000E+07    0.5015741660E+00    0.8278083503E-03    0.2318894749E-01    0.1786613318E+00    0.6618467949E+00
    0.3500000000E+07    0.5015655730E+00    0.8044558642E-03    0.2317783724E-01    0.1786772693E+00    0.6618920782E+00
    0.3700000000E+07    0.5015572110E+00    0.7830056530E-03    0.2316731756E-01    0.1786922355E+00    0.6619339709E+00
    0.3900000000E+07    0.5015490794E+00    0.7632119234E-03    0.2315732845E-01    0.1787063410E+00    0.6619728964E+00
    0.4100000000E+07    0.5015411747E+00    0.7448712225E-03    0.2314781864E-01    0.1787196787E+00    0.6620092065E+00
    0.4300000000E+07    0.5015334909E+00    0.7278134928E-03    0.2313874396E-01    0.1787323272E+00    0.6620431964E+00
    0.4500000000E+07    0.5015260210E+00    0.7118953343E-03    0.2313006612E-01    0.1787443537E+00    0.6620751160E+00
    0.4700000000E+07    0.5015187573E+00    0.6969948581E-03    0.2312175168E-01    0.1787558161E+00    0.6621051785E+00
    0.4900000000E+07    0.5015116917E+00    0.6830077044E-03    0.2311377125E-01    0.1787667647E+00    0.6621335671E+00
    0.1000000000E+07    0.5016571131E+00    0.1479065642E-02    0.2340600585E-01    0.1783061561E+00    0.6606695638E+00
    0.3000000000E+07    0.5015874762E+00    0.8670793511E-03    0.2320687885E-01    0.1786353049E+00    0.6617713545E+00
    0.5000000000E+07    0.5015082307E+00    0.6763280233E-03    0.2310989807E-01    0.1787720603E+00    0.6621471840E+00
    0.7000000000E+07    0.5014475485E+00    0.5741979733E-03    0.2304501051E-01    0.1788592090E+00    0.6623608597E+00
    0.9000000000E+07    0.5013991022E+00    0.5080993819E-03    0.2299613507E-01    0.1789232295E+00    0.6625058423E+00
    0.1100000000E+08    0.5013589083E+00    0.4608213648E-03    0.2295689850E-01    0.1789738332E+00    0.6626137318E+00
    0.1300000000E+08    0.5013245964E+00    0.4248330152E-03    0.2292411202E-01    0.1790156707E+00    0.6626987289E+00
    0.1500000000E+08    0.5012946745E+00    0.3962459848E-03    0.2289594847E-01    0.1790513301E+00    0.6627683365E+00
    0.1700000000E+08    0.5012681496E+00    0.3728222953E-03    0.2287126234E-01    0.1790824008E+00    0.6628269628E+00
    0.1900000000E+08    0.5012443297E+00    0.3531703703E-03    0.2284928772E-01    0.1791099284E+00    0.6628774003E+00
    0.2100000000E+08    0.5012227141E+00    0.3363732735E-03    0.2282948702E-01    0.1791346379E+00    0.6629215205E+00
    0.2300000000E+08    0.5012029290E+00    0.3217988847E-03    0.2281146835E-01    0.1791570522E+00    0.6629606346E+00
    0.2500000000E+08    0.5011846881E+00    0.3089953400E-03    0.2279493713E-01    0.1791775613E+00    0.6629956938E+00
    0.2700000000E+08    0.5011677672E+00    0.2976298723E-03    0.2277966634E-01    0.1791964634E+00    0.6630274083E+00
