  Pressure (Pa) 22mC5-400 (mol/kg) 2mC6-400 (mol/kg) 3mC6-400 (mol/kg) 23mC5-400 (mol/kg) C7-400 (mol/kg)
    0.1000000000E+01    0.1060168140E-02    0.3151388145E-02    0.3130265039E-02    0.2792306156E-03    0.8466239866E-02
    0.3000000000E+01    0.3148794429E-02    0.9095915512E-02    0.9016752573E-02    0.8293452642E-03    0.2439172561E-01
    0.5000000000E+01    0.5196463384E-02    0.1460812551E-01    0.1445344588E-01    0.1368679235E-02    0.3910608728E-01
    0.7000000000E+01    0.7204691234E-02    0.1973522523E-01    0.1949125425E-01    0.1897631576E-02    0.5274619793E-01
    0.9000000000E+01    0.9174917765E-02    0.2451754937E-01    0.2417363766E-01    0.2416581216E-02    0.6542891772E-01
    0.1100000000E+02    0.1110851111E-01    0.2898978210E-01    0.2853792358E-01    0.2925888231E-02    0.7725463007E-01
    0.1300000000E+02    0.1300677220E-01    0.3318192652E-01    0.3261635395E-01    0.3425895007E-02    0.8831005311E-01
    0.1500000000E+02    0.1487093886E-01    0.3712008045E-01    0.3643692450E-01    0.3916927326E-02    0.9867049405E-01
    0.1700000000E+02    0.1670218962E-01    0.4082706221E-01    0.4002406310E-01    0.4399295368E-02    0.1084016711E+00
    0.1900000000E+02    0.1850164728E-01    0.4432291929E-01    0.4339918202E-01    0.4873294642E-02    0.1175611970E+00
    0.2100000000E+02    0.2027038219E-01    0.4762534459E-01    0.4658113051E-01    0.5339206853E-02    0.1261997946E+00
    0.2300000000E+02    0.2200941527E-01    0.5075001937E-01    0.4958656827E-01    0.5797300703E-02    0.1343623006E+00
    0.2500000000E+02    0.2371972091E-01    0.5371089749E-01    0.5243027533E-01    0.6247832644E-02    0.1420884979E+00
    0.2700000000E+02    0.2540222958E-01    0.5652044239E-01    0.5512541071E-01    0.6691047572E-02    0.1494138104E+00
    0.2900000000E+02    0.2705783032E-01    0.5918982579E-01    0.5768372949E-01    0.7127179480E-02    0.1563698869E+00
    0.3100000000E+02    0.2868737304E-01    0.6172909504E-01    0.6011576579E-01    0.7556452061E-02    0.1629850925E+00
    0.3300000000E+02    0.3029167067E-01    0.6414731489E-01    0.6243098793E-01    0.7979079277E-02    0.1692849253E+00
    0.3500000000E+02    0.3187150118E-01    0.6645268807E-01    0.6463793034E-01    0.8395265888E-02    0.1752923717E+00
    0.3700000000E+02    0.3342760944E-01    0.6865265831E-01    0.6674430647E-01    0.8805207946E-02    0.1810282093E+00
    0.3900000000E+02    0.3496070900E-01    0.7075399875E-01    0.6875710556E-01    0.9209093260E-02    0.1865112673E+00
    0.4100000000E+02    0.3647148374E-01    0.7276288809E-01    0.7068267606E-01    0.9607101827E-02    0.1917586507E+00
    0.4300000000E+02    0.3796058941E-01    0.7468497645E-01    0.7252679777E-01    0.9999406241E-02    0.1967859344E+00
    0.4500000000E+02    0.3942865506E-01    0.7652544247E-01    0.7429474442E-01    0.1038617207E-01    0.2016073311E+00
    0.4700000000E+02    0.4087628443E-01    0.7828904314E-01    0.7599133811E-01    0.1076755823E-01    0.2062358382E+00
    0.4900000000E+02    0.4230405721E-01    0.7998015727E-01    0.7762099694E-01    0.1114371729E-01    0.2106833657E+00
    0.1000000000E+02    0.1014621075E-01    0.2679045217E-01    0.2639341921E-01    0.2672418251E-02    0.7144318846E-01
    0.3000000000E+02    0.2787580728E-01    0.6047513661E-01    0.5891491785E-01    0.7342659592E-02    0.1597184422E+00
    0.5000000000E+02    0.4301067226E-01    0.8079980632E-01    0.7841200632E-01    0.1132988269E-01    0.2128427143E+00
    0.7000000000E+02    0.5622494143E-01    0.9421946630E-01    0.9154536790E-01    0.1481152165E-01    0.2487591337E+00
    0.9000000000E+02    0.6796990604E-01    0.1035346204E+00    0.1010703260E+00    0.1790636177E-01    0.2748998927E+00
    0.1100000000E+03    0.7855984237E-01    0.1101908976E+00    0.1083394847E+00    0.2069712706E-01    0.2949181174E+00
    0.1300000000E+03    0.8822087557E-01    0.1150225761E+00    0.1140975380E+00    0.2324334014E-01    0.3108275843E+00
    0.1500000000E+03    0.9712023647E-01    0.1185495864E+00    0.1187898027E+00    0.2558902215E-01    0.3238339789E+00
    0.1700000000E+03    0.1053845330E+00    0.1211145795E+00    0.1226997492E+00    0.2776750166E-01    0.3347057176E+00
    0.1900000000E+03    0.1131115772E+00    0.1229531525E+00    0.1260168836E+00    0.2980452749E-01    0.3439571176E+00
    0.2100000000E+03    0.1203782798E+00    0.1242327751E+00    0.1288729944E+00    0.3172034667E-01    0.3519462715E+00
    0.2300000000E+03    0.1272460634E+00    0.1250757268E+00    0.1313627550E+00    0.3353112923E-01    0.3589307244E+00
    0.2500000000E+03    0.1337646622E+00    0.1255732887E+00    0.1335560506E+00    0.3524996832E-01    0.3651008069E+00
    0.2700000000E+03    0.1399748452E+00    0.1257948786E+00    0.1355056733E+00    0.3688759705E-01    0.3706004607E+00
    0.2900000000E+03    0.1459104046E+00    0.1257941305E+00    0.1372523025E+00    0.3845291190E-01    0.3755407262E+00
    0.3100000000E+03    0.1515996315E+00    0.1256130526E+00    0.1388278297E+00    0.3995336118E-01    0.3800087525E+00
    0.3300000000E+03    0.1570664286E+00    0.1252849410E+00    0.1402576379E+00    0.4139523787E-01    0.3840739795E+00
    0.3500000000E+03    0.1623311595E+00    0.1248364634E+00    0.1415622022E+00    0.4278390327E-01    0.3877924812E+00
    0.3700000000E+03    0.1674113056E+00    0.1242891767E+00    0.1427582363E+00    0.4412395992E-01    0.3912100797E+00
    0.3900000000E+03    0.1723219805E+00    0.1236606500E+00    0.1438595297E+00    0.4541938694E-01    0.3943646209E+00
    0.4100000000E+03    0.1770763358E+00    0.1229653071E+00    0.1448775695E+00    0.4667364694E-01    0.3972876643E+00
    0.4300000000E+03    0.1816858853E+00    0.1222150675E+00    0.1458220083E+00    0.4788977132E-01    0.4000057569E+00
    0.4500000000E+03    0.1861607657E+00    0.1214198393E+00    0.1467010215E+00    0.4907042895E-01    0.4025414065E+00
    0.4700000000E+03    0.1905099487E+00    0.1205879014E+00    0.1475215838E+00    0.5021798194E-01    0.4049138346E+00
    0.4900000000E+03    0.1947414137E+00    0.1197262047E+00    0.1482896850E+00    0.5133453119E-01    0.4071395652E+00
    0.1000000000E+03    0.7339346548E-01    0.1071332746E+00    0.1049309397E+00    0.1933559814E-01    0.2855231046E+00
    0.3000000000E+03    0.1487842239E+00    0.1257238753E+00    0.1380597363E+00    0.3921082725E-01    0.3778290723E+00
    0.5000000000E+03    0.1968152599E+00    0.1192860652E+00    0.1486557079E+00    0.5188177389E-01    0.4082019616E+00
    0.7000000000E+03    0.2335043342E+00    0.1099418085E+00    0.1541733786E+00    0.6156551844E-01    0.4243804522E+00
    0.9000000000E+03    0.2634222901E+00    0.1008106191E+00    0.1576416114E+00    0.6946550507E-01    0.4347515847E+00
    0.1100000000E+04    0.2885896867E+00    0.9252830297E-01    0.1600561105E+00    0.7611372086E-01    0.4421003704E+00
    0.1300000000E+04    0.3101396421E+00    0.8517899093E-01    0.1618491509E+00    0.8180850923E-01    0.4476468106E+00
    0.1500000000E+04    0.3288074113E+00    0.7870027475E-01    0.1632414724E+00    0.8674347378E-01    0.4520190892E+00
    0.1700000000E+04    0.3451159229E+00    0.7299367044E-01    0.1643586256E+00    0.9105632673E-01    0.4555772943E+00
    0.1900000000E+04    0.3594593508E+00    0.6795881057E-01    0.1652777555E+00    0.9485088918E-01    0.4585443225E+00
    0.2100000000E+04    0.3721461262E+00    0.6350413965E-01    0.1660491081E+00    0.9820841268E-01    0.4610663734E+00
    0.2300000000E+04    0.3834236213E+00    0.5954959002E-01    0.1667069359E+00    0.1011940753E+00    0.4632437817E+00
    0.2500000000E+04    0.3934936310E+00    0.5602641245E-01    0.1672754610E+00    0.1038610560E+00    0.4651479583E+00
    0.2700000000E+04    0.4025227979E+00    0.5287604932E-01    0.1677723376E+00    0.1062532779E+00    0.4668312721E+00
    0.2900000000E+04    0.4106500209E+00    0.5004877355E-01    0.1682107621E+00    0.1084073579E+00    0.4683331014E+00
    0.3100000000E+04    0.4179919396E+00    0.4750237016E-01    0.1686008131E+00    0.1103540500E+00    0.4696836928E+00
    0.3300000000E+04    0.4246471132E+00    0.4520095795E-01    0.1689503317E+00    0.1121193455E+00    0.4709067082E+00
    0.3500000000E+04    0.4306992777E+00    0.4311397485E-01    0.1692655173E+00    0.1137253300E+00    0.4720209548E+00
    0.3700000000E+04    0.4362199218E+00    0.4121532041E-01    0.1695513412E+00    0.1151908619E+00    0.4730415917E+00
    0.3900000000E+04    0.4412703521E+00    0.3948263836E-01    0.1698118398E+00    0.1165321162E+00    0.4739809890E+00
    0.4100000000E+04    0.4459033624E+00    0.3789671912E-01    0.1700503275E+00    0.1177630240E+00    0.4748493531E+00
    0.4300000000E+04    0.4501645946E+00    0.3644100345E-01    0.1702695529E+00    0.1188956310E+00    0.4756551888E+00
    0.4500000000E+04    0.4540936549E+00    0.3510116996E-01    0.1704718164E+00    0.1199403914E+00    0.4764056459E+00
    0.4700000000E+04    0.4577250340E+00    0.3386479228E-01    0.1706590590E+00    0.1209064107E+00    0.4771067846E+00
    0.4900000000E+04    0.4610888702E+00    0.3272105345E-01    0.1708329305E+00    0.1218016464E+00    0.4777637788E+00
    0.1000000000E+04    0.2765162758E+00    0.9655235309E-01    0.1589463723E+00    0.7292409108E-01    0.4387074588E+00
    0.3000000000E+04    0.4144126016E+00    0.4874284114E-01    0.1684112998E+00    0.1094049024E+00    0.4690256920E+00
    0.5000000000E+04    0.4626788464E+00    0.3218092389E-01    0.1709153016E+00    0.1222249351E+00    0.4780771363E+00
    0.7000000000E+04    0.4853758641E+00    0.2448765467E-01    0.1721164074E+00    0.1282803684E+00    0.4828380663E+00
    0.9000000000E+04    0.4980898827E+00    0.2015436341E-01    0.1728267670E+00    0.1316888975E+00    0.4858930625E+00
    0.1100000000E+05    0.5060679979E+00    0.1738950040E-01    0.1732959367E+00    0.1338388448E+00    0.4880694259E+00
    0.1300000000E+05    0.5114819911E+00    0.1546900474E-01    0.1736277888E+00    0.1353057158E+00    0.4897236880E+00
    0.1500000000E+05    0.5153705118E+00    0.1405166756E-01    0.1738737171E+00    0.1363651762E+00    0.4910379037E+00
    0.1700000000E+05    0.5182855601E+00    0.1295760505E-01    0.1740622061E+00    0.1371639686E+00    0.4921159859E+00
    0.1900000000E+05    0.5205449223E+00    0.1208357485E-01    0.1742103710E+00    0.1377867132E+00    0.4930221331E+00
    0.2100000000E+05    0.5223433480E+00    0.1136626056E-01    0.1743291380E+00    0.1382853571E+00    0.4937984349E+00
    0.2300000000E+05    0.5238063198E+00    0.1076471677E-01    0.1744258199E+00    0.1386934299E+00    0.4944737920E+00
    0.2500000000E+05    0.5250180755E+00    0.1025129335E-01    0.1745055003E+00    0.1390334810E+00    0.4950687991E+00
    0.2700000000E+05    0.5260371310E+00    0.9806635047E-02    0.1745718245E+00    0.1393212027E+00    0.4955985848E+00
    0.2900000000E+05    0.5269053257E+00    0.9416776646E-02    0.1746274757E+00    0.1395678363E+00    0.4960745483E+00
    0.3100000000E+05    0.5276533242E+00    0.9071378482E-02    0.1746744726E+00    0.1397816359E+00    0.4965054658E+00
    0.3300000000E+05    0.5283040870E+00    0.8762613066E-02    0.1747143635E+00    0.1399687939E+00    0.4968982203E+00
    0.3500000000E+05    0.5288751302E+00    0.8484439001E-02    0.1747483549E+00    0.1401340434E+00    0.4972582971E+00
    0.3700000000E+05    0.5293800386E+00    0.8232113687E-02    0.1747774016E+00    0.1402810623E+00    0.4975901300E+00
    0.3900000000E+05    0.5298295025E+00    0.8001857937E-02    0.1748022679E+00    0.1404127507E+00    0.4978973471E+00
    0.4100000000E+05    0.5302320453E+00    0.7790619909E-02    0.1748235733E+00    0.1405314254E+00    0.4981829508E+00
    0.4300000000E+05    0.5305945426E+00    0.7595905612E-02    0.1748418248E+00    0.1406389589E+00    0.4984494505E+00
    0.4500000000E+05    0.5309225998E+00    0.7415655012E-02    0.1748574411E+00    0.1407368810E+00    0.4986989618E+00
    0.4700000000E+05    0.5312208307E+00    0.7248149996E-02    0.1748707710E+00    0.1408264534E+00    0.4989332833E+00
    0.4900000000E+05    0.5314930666E+00    0.7091944996E-02    0.1748821073E+00    0.1409087258E+00    0.4991539554E+00
    0.1000000000E+05    0.5024961495E+00    0.1863442487E-01    0.1730832041E+00    0.1328748978E+00    0.4870628460E+00
    0.3000000000E+05    0.5272927649E+00    0.9239058180E-02    0.1746519499E+00    0.1396784132E+00    0.4962951699E+00
    0.5000000000E+05    0.5316204593E+00    0.7017689484E-02    0.1748871066E+00    0.1409474054E+00    0.4992595951E+00
    0.7000000000E+05    0.5333632154E+00    0.5906725694E-02    0.1749261470E+00    0.1414919857E+00    0.5008993931E+00
    0.9000000000E+05    0.5342935631E+00    0.5207804629E-02    0.1749067423E+00    0.1418011375E+00    0.5019925181E+00
    0.1100000000E+06    0.5348679626E+00    0.4715142508E-02    0.1748655703E+00    0.1420037231E+00    0.5027955140E+00
    0.1300000000E+06    0.5352557064E+00    0.4343296833E-02    0.1748158119E+00    0.1421486148E+00    0.5034217477E+00
    0.1500000000E+06    0.5355337596E+00    0.4049494877E-02    0.1747630163E+00    0.1422585233E+00    0.5039303641E+00
    0.1700000000E+06    0.5357420515E+00    0.3809605943E-02    0.1747097397E+00    0.1423454881E+00    0.5043557599E+00
    0.1900000000E+06    0.5359033202E+00    0.3608830785E-02    0.1746572122E+00    0.1424165124E+00    0.5047195420E+00
    0.2100000000E+06    0.5360314463E+00    0.3437514084E-02    0.1746060274E+00    0.1424759622E+00    0.5050360894E+00
    0.2300000000E+06    0.5361353724E+00    0.3289048559E-02    0.1745564548E+00    0.1425267093E+00    0.5053154101E+00
    0.2500000000E+06    0.5362211140E+00    0.3158737619E-02    0.1745085936E+00    0.1425707254E+00    0.5055647249E+00
    0.2700000000E+06    0.5362928625E+00    0.3043137731E-02    0.1744624518E+00    0.1426094127E+00    0.5057893993E+00
    0.2900000000E+06    0.5363536256E+00    0.2939658164E-02    0.1744179887E+00    0.1426437976E+00    0.5059935195E+00
    0.3100000000E+06    0.5364056161E+00    0.2846306856E-02    0.1743751387E+00    0.1426746504E+00    0.5061802628E+00
    0.3300000000E+06    0.5364504971E+00    0.2761523219E-02    0.1743338243E+00    0.1427025616E+00    0.5063521444E+00
    0.3500000000E+06    0.5364895416E+00    0.2684064758E-02    0.1742939639E+00    0.1427279919E+00    0.5065111865E+00
    0.3700000000E+06    0.5365237404E+00    0.2612928140E-02    0.1742554760E+00    0.1427513069E+00    0.5066590372E+00
    0.3900000000E+06    0.5365538755E+00    0.2547292985E-02    0.1742182817E+00    0.1427728008E+00    0.5067970558E+00
    0.4100000000E+06    0.5365805720E+00    0.2486481020E-02    0.1741823060E+00    0.1427927131E+00    0.5069263758E+00
    0.4300000000E+06    0.5366043356E+00    0.2429925868E-02    0.1741474780E+00    0.1428112412E+00    0.5070479510E+00
    0.4500000000E+06    0.5366255791E+00    0.2377150339E-02    0.1741137317E+00    0.1428285495E+00    0.5071625913E+00
    0.4700000000E+06    0.5366446432E+00    0.2327749122E-02    0.1740810054E+00    0.1428447759E+00    0.5072709897E+00
    0.4900000000E+06    0.5366618111E+00    0.2281375414E-02    0.1740492419E+00    0.1428600371E+00    0.5073737433E+00
    0.1000000000E+06    0.5346113977E+00    0.4942500722E-02    0.1748877816E+00    0.1419117729E+00    0.5024213624E+00
    0.3000000000E+06    0.5363806028E+00    0.2891822593E-02    0.1743963667E+00    0.1426596251E+00    0.5060888928E+00
    0.5000000000E+06    0.5366697597E+00    0.2259228880E-02    0.1740337044E+00    0.1428673376E+00    0.5074231678E+00
    0.7000000000E+06    0.5367706451E+00    0.1920529118E-02    0.1737625228E+00    0.1429806721E+00    0.5082113243E+00
    0.9000000000E+06    0.5368142939E+00    0.1701157780E-02    0.1735462602E+00    0.1430570192E+00    0.5087611038E+00
    0.1100000000E+07    0.5368342482E+00    0.1544124006E-02    0.1733662695E+00    0.1431140824E+00    0.5091791947E+00
    0.1300000000E+07    0.5368426591E+00    0.1424501131E-02    0.1732120004E+00    0.1431594419E+00    0.5095144883E+00
    0.1500000000E+07    0.5368448638E+00    0.1329417353E-02    0.1730769295E+00    0.1431969909E+00    0.5097932401E+00
    0.1700000000E+07    0.5368435159E+00    0.1251461777E-02    0.1729567448E+00    0.1432289778E+00    0.5100310923E+00
    0.1900000000E+07    0.5368400534E+00    0.1186024506E-02    0.1728484467E+00    0.1432568119E+00    0.5102380767E+00
    0.2100000000E+07    0.5368353061E+00    0.1130066760E-02    0.1727498643E+00    0.1432814323E+00    0.5104209914E+00
    0.2300000000E+07    0.5368297758E+00    0.1081492817E-02    0.1726593744E+00    0.1433034947E+00    0.5105846455E+00
    0.2500000000E+07    0.5368237772E+00    0.1038803994E-02    0.1725757319E+00    0.1433234742E+00    0.5107325597E+00
    0.2700000000E+07    0.5368175130E+00    0.1000896207E-02    0.1724979598E+00    0.1433417261E+00    0.5108673851E+00
    0.2900000000E+07    0.5368111166E+00    0.9669356056E-03    0.1724252777E+00    0.1433585223E+00    0.5109911655E+00
    0.3100000000E+07    0.5368046768E+00    0.9362790069E-03    0.1723570520E+00    0.1433740758E+00    0.5111055080E+00
    0.3300000000E+07    0.5367982532E+00    0.9084212250E-03    0.1722927609E+00    0.1433885561E+00    0.5112116982E+00
    0.3500000000E+07    0.5367918860E+00    0.8829591656E-03    0.1722319701E+00    0.1434021008E+00    0.5113107800E+00
    0.3700000000E+07    0.5367856022E+00    0.8595667222E-03    0.1721743134E+00    0.1434148224E+00    0.5114036116E+00
    0.3900000000E+07    0.5367794194E+00    0.8379768309E-03    0.1721194800E+00    0.1434268146E+00    0.5114909073E+00
    0.4100000000E+07    0.5367733488E+00    0.8179683889E-03    0.1720672029E+00    0.1434381560E+00    0.5115732675E+00
    0.4300000000E+07    0.5367673974E+00    0.7993565515E-03    0.1720172519E+00    0.1434489131E+00    0.5116512011E+00
    0.4500000000E+07    0.5367615687E+00    0.7819854225E-03    0.1719694264E+00    0.1434591428E+00    0.5117251437E+00
    0.4700000000E+07    0.5367558640E+00    0.7657224688E-03    0.1719235511E+00    0.1434688941E+00    0.5117954704E+00
    0.4900000000E+07    0.5367502831E+00    0.7504541996E-03    0.1718794715E+00    0.1434782097E+00    0.5118625066E+00
    0.1000000000E+07    0.5368262303E+00    0.1616815495E-02    0.1734525161E+00    0.1430873616E+00    0.5089827968E+00
    0.3000000000E+07    0.5368078978E+00    0.9512286294E-03    0.1723906427E+00    0.1433664429E+00    0.5110494297E+00
    0.5000000000E+07    0.5367475387E+00    0.7431619650E-03    0.1718580616E+00    0.1434827158E+00    0.5118948809E+00
    0.7000000000E+07    0.5366985332E+00    0.6316025664E-03    0.1714978916E+00    0.1435569152E+00    0.5124228491E+00
    0.9000000000E+07    0.5366585617E+00    0.5593317420E-03    0.1712249166E+00    0.1436114722E+00    0.5128046475E+00
    0.1100000000E+08    0.5366250290E+00    0.5076011373E-03    0.1710048513E+00    0.1436546237E+00    0.5131027138E+00
    0.1300000000E+08    0.5365962091E+00    0.4682002105E-03    0.1708203867E+00    0.1436903178E+00    0.5133466753E+00
    0.1500000000E+08    0.5365709620E+00    0.4368869432E-03    0.1706615424E+00    0.1437207534E+00    0.5135528737E+00
    0.1700000000E+08    0.5365485082E+00    0.4112184936E-03    0.1705220324E+00    0.1437472812E+00    0.5137312588E+00
    0.1900000000E+08    0.5365282950E+00    0.3896752119E-03    0.1703976378E+00    0.1437707907E+00    0.5138883282E+00
    0.2100000000E+08    0.5365099176E+00    0.3712553762E-03    0.1702853885E+00    0.1437918985E+00    0.5140285547E+00
    0.2300000000E+08    0.5364930710E+00    0.3552681750E-03    0.1701831139E+00    0.1438110498E+00    0.5141551455E+00
    0.2500000000E+08    0.5364775200E+00    0.3412196345E-03    0.1700891788E+00    0.1438285765E+00    0.5142704772E+00
    0.2700000000E+08    0.5364630797E+00    0.3287458733E-03    0.1700023205E+00    0.1438447327E+00    0.5143763588E+00
