  Pressure (Pa) 22mC5-400 (mol/kg) 2mC6-400 (mol/kg) 3mC6-400 (mol/kg) 23mC5-400 (mol/kg) C7-400 (mol/kg)
    0.1000000000E+01    0.1059209406E-02    0.3950417485E-02    0.3142855558E-02    0.3719709805E-03    0.5100069930E-02
    0.3000000000E+01    0.3140408041E-02    0.1146217636E-01    0.9122032503E-02    0.1102850123E-02    0.1480501491E-01
    0.5000000000E+01    0.5173812049E-02    0.1849589502E-01    0.1472592316E-01    0.1816955152E-02    0.2390362235E-01
    0.7000000000E+01    0.7161504291E-02    0.2509510539E-01    0.1999015161E-01    0.2515016981E-02    0.3245336582E-01
    0.9000000000E+01    0.9105444131E-02    0.3129808017E-01    0.2494593055E-01    0.3197723192E-02    0.4050460704E-01
    0.1100000000E+02    0.1100747653E-01    0.3713861677E-01    0.2962072552E-01    0.3865721225E-02    0.4810166631E-01
    0.1300000000E+02    0.1286934038E-01    0.4264668384E-01    0.3403880249E-01    0.4519621294E-02    0.5528370496E-01
    0.1500000000E+02    0.1469267605E-01    0.4784895789E-01    0.3822168214E-01    0.5159999052E-02    0.6208545739E-01
    0.1700000000E+02    0.1647903238E-01    0.5276927125E-01    0.4218851867E-01    0.5787398030E-02    0.6853784166E-01
    0.1900000000E+02    0.1822987303E-01    0.5742898810E-01    0.4595641757E-01    0.6402331866E-02    0.7466847169E-01
    0.2100000000E+02    0.1994658231E-01    0.6184732174E-01    0.4954070342E-01    0.7005286359E-02    0.8050208895E-01
    0.2300000000E+02    0.2163047054E-01    0.6604160365E-01    0.5295514672E-01    0.7596721348E-02    0.8606092806E-01
    0.2500000000E+02    0.2328277902E-01    0.7002751262E-01    0.5621215682E-01    0.8177072442E-02    0.9136502792E-01
    0.2700000000E+02    0.2490468452E-01    0.7381927087E-01    0.5932294683E-01    0.8746752616E-02    0.9643249746E-01
    0.2900000000E+02    0.2649730351E-01    0.7742981255E-01    0.6229767496E-01    0.9306153675E-02    0.1012797437E+00
    0.3100000000E+02    0.2806169597E-01    0.8087092900E-01    0.6514556639E-01    0.9855647617E-02    0.1059216680E+00
    0.3300000000E+02    0.2959886901E-01    0.8415339467E-01    0.6787501848E-01    0.1039558788E-01    0.1103718360E+00
    0.3500000000E+02    0.3110978017E-01    0.8728707641E-01    0.7049369208E-01    0.1092631049E-01    0.1146426249E+00
    0.3700000000E+02    0.3259534042E-01    0.9028102886E-01    0.7300859097E-01    0.1144813516E-01    0.1187453512E+00
    0.3900000000E+02    0.3405641704E-01    0.9314357785E-01    0.7542613125E-01    0.1196136626E-01    0.1226903828E+00
    0.4100000000E+02    0.3549383623E-01    0.9588239362E-01    0.7775220204E-01    0.1246629373E-01    0.1264872373E+00
    0.4300000000E+02    0.3690838553E-01    0.9850455522E-01    0.7999221883E-01    0.1296319397E-01    0.1301446675E+00
    0.4500000000E+02    0.3830081613E-01    0.1010166074E+00    0.8215117046E-01    0.1345233060E-01    0.1336707373E+00
    0.4700000000E+02    0.3967184493E-01    0.1034246110E+00    0.8423366059E-01    0.1393395523E-01    0.1370728890E+00
    0.4900000000E+02    0.4102215650E-01    0.1057341875E+00    0.8624394438E-01    0.1440830810E-01    0.1403580019E+00
    0.1000000000E+02    0.1006158769E-01    0.3426169724E-01    0.2731686515E-01    0.3533521753E-02    0.4435735016E-01
    0.3000000000E+02    0.2728296391E-01    0.7917085305E-01    0.6373693216E-01    0.9582116525E-02    0.1036254937E+00
    0.5000000000E+02    0.4168974889E-01    0.1068537120E+00    0.8722325146E-01    0.1464282976E-01    0.1419586779E+00
    0.7000000000E+02    0.5409846833E-01    0.1251667493E+00    0.1038351459E+00    0.1900221857E-01    0.1691482589E+00
    0.9000000000E+02    0.6502686785E-01    0.1378089676E+00    0.1163268187E+00    0.2284199164E-01    0.1896492819E+00
    0.1100000000E+03    0.7482037617E-01    0.1467675119E+00    0.1261374656E+00    0.2628338558E-01    0.2057919737E+00
    0.1300000000E+03    0.8371909628E-01    0.1532096474E+00    0.1340959441E+00    0.2941067315E-01    0.2189196229E+00
    0.1500000000E+03    0.9189564562E-01    0.1578668069E+00    0.1407152248E+00    0.3228444241E-01    0.2298643476E+00
    0.1700000000E+03    0.9947768040E-01    0.1612203520E+00    0.1463308970E+00    0.3494950142E-01    0.2391710212E+00
    0.1900000000E+03    0.1065619014E+00    0.1635995211E+00    0.1511724138E+00    0.3743979349E-01    0.2472125248E+00
    0.2100000000E+03    0.1132230905E+00    0.1652366313E+00    0.1554024026E+00    0.3978156866E-01    0.2542533757E+00
    0.2300000000E+03    0.1195201282E+00    0.1662998829E+00    0.1591396218E+00    0.4199549568E-01    0.2604869047E+00
    0.2500000000E+03    0.1255001134E+00    0.1669137174E+00    0.1624730059E+00    0.4409810783E-01    0.2660580156E+00
    0.2700000000E+03    0.1312012510E+00    0.1671719138E+00    0.1654706049E+00    0.4610281656E-01    0.2710776785E+00
    0.2900000000E+03    0.1366549208E+00    0.1671462754E+00    0.1681854670E+00    0.4802063754E-01    0.2756324716E+00
    0.3100000000E+03    0.1418871869E+00    0.1668925451E+00    0.1706596228E+00    0.4986072054E-01    0.2797910482E+00
    0.3300000000E+03    0.1469199187E+00    0.1664545248E+00    0.1729268533E+00    0.5163074282E-01    0.2836086315E+00
    0.3500000000E+03    0.1517716352E+00    0.1658670038E+00    0.1750146554E+00    0.5333720557E-01    0.2871302082E+00
    0.3700000000E+03    0.1564581506E+00    0.1651578764E+00    0.1769456660E+00    0.5498566046E-01    0.2903928426E+00
    0.3900000000E+03    0.1609930737E+00    0.1643496983E+00    0.1787387111E+00    0.5658088498E-01    0.2934273837E+00
    0.4100000000E+03    0.1653881986E+00    0.1634608462E+00    0.1804095921E+00    0.5812701957E-01    0.2962597438E+00
    0.4300000000E+03    0.1696538141E+00    0.1625063936E+00    0.1819716819E+00    0.5962767620E-01    0.2989118701E+00
    0.4500000000E+03    0.1737989504E+00    0.1614987794E+00    0.1834363851E+00    0.6108602505E-01    0.3014024929E+00
    0.4700000000E+03    0.1778315780E+00    0.1604483240E+00    0.1848134946E+00    0.6250486429E-01    0.3037477082E+00
    0.4900000000E+03    0.1817587697E+00    0.1593636315E+00    0.1861114736E+00    0.6388667683E-01    0.3059614363E+00
    0.1000000000E+03    0.7004854986E-01    0.1426624195E+00    0.1215057156E+00    0.2460654263E-01    0.1981656887E+00
    0.3000000000E+03    0.1392972752E+00    0.1670449433E+00    0.1694503548E+00    0.4894988581E-01    0.2777575633E+00
    0.5000000000E+03    0.1836848247E+00    0.1588107451E+00    0.1867331263E+00    0.6456439941E-01    0.3070228393E+00
    0.7000000000E+03    0.2178987540E+00    0.1471954074E+00    0.1963787152E+00    0.7660612885E-01    0.3236007733E+00
    0.9000000000E+03    0.2459727577E+00    0.1359785676E+00    0.2027558847E+00    0.8649113401E-01    0.3346971909E+00
    0.1100000000E+04    0.2696850824E+00    0.1258641952E+00    0.2073766766E+00    0.9484366800E-01    0.3428238956E+00
    0.1300000000E+04    0.2900415921E+00    0.1169138662E+00    0.2109238094E+00    0.1020168445E+00    0.3491220971E+00
    0.1500000000E+04    0.3077031116E+00    0.1090304686E+00    0.2137573925E+00    0.1082426680E+00    0.3541971302E+00
    0.1700000000E+04    0.3231455756E+00    0.1020836854E+00    0.2160880110E+00    0.1136882532E+00    0.3584048123E+00
    0.1900000000E+04    0.3367317534E+00    0.9594657696E-01    0.2180482449E+00    0.1184810009E+00    0.3619702335E+00
    0.2100000000E+04    0.3487481399E+00    0.9050591998E-01    0.2197263347E+00    0.1227215434E+00    0.3650438779E+00
    0.2300000000E+04    0.3594262201E+00    0.8566403318E-01    0.2211836172E+00    0.1264912062E+00    0.3677307893E+00
    0.2500000000E+04    0.3689559281E+00    0.8133779592E-01    0.2224642428E+00    0.1298567296E+00    0.3701068802E+00
    0.2700000000E+04    0.3774948153E+00    0.7745685359E-01    0.2236009166E+00    0.1328734857E+00    0.3722285956E+00
    0.2900000000E+04    0.3851746527E+00    0.7396173024E-01    0.2246184540E+00    0.1355877940E+00    0.3741389178E+00
    0.3100000000E+04    0.3921063783E+00    0.7080210013E-01    0.2255360722E+00    0.1380386580E+00    0.3758712463E+00
    0.3300000000E+04    0.3983839115E+00    0.6793529000E-01    0.2263689170E+00    0.1402591032E+00    0.3774519902E+00
    0.3500000000E+04    0.4040871539E+00    0.6532501440E-01    0.2271291089E+00    0.1422772310E+00    0.3789023496E+00
    0.3700000000E+04    0.4092843848E+00    0.6294032131E-01    0.2278264781E+00    0.1441170589E+00    0.3802395707E+00
    0.3900000000E+04    0.4140341927E+00    0.6075471857E-01    0.2284690928E+00    0.1457991988E+00    0.3814778488E+00
    0.4100000000E+04    0.4183870473E+00    0.5874545189E-01    0.2290636454E+00    0.1473414094E+00    0.3826289915E+00
    0.4300000000E+04    0.4223865855E+00    0.5689290840E-01    0.2296157397E+00    0.1487590473E+00    0.3837029127E+00
    0.4500000000E+04    0.4260706709E+00    0.5518012335E-01    0.2301301086E+00    0.1500654395E+00    0.3847080075E+00
    0.4700000000E+04    0.4294722698E+00    0.5359237148E-01    0.2306107807E+00    0.1512721910E+00    0.3856514392E+00
    0.4900000000E+04    0.4326201794E+00    0.5211682770E-01    0.2310612093E+00    0.1523894406E+00    0.3865393638E+00
    0.1000000000E+04    0.2583002424E+00    0.1307733357E+00    0.2052323178E+00    0.9083302169E-01    0.3390424562E+00
    0.3000000000E+04    0.3887277992E+00    0.7234280905E-01    0.2250887250E+00    0.1368439659E+00    0.3750255408E+00
    0.5000000000E+04    0.4341070113E+00    0.5141757508E-01    0.2312760296E+00    0.1529173230E+00    0.3869642031E+00
    0.7000000000E+04    0.4552415566E+00    0.4123800914E-01    0.2345314784E+00    0.1604374493E+00    0.3935281767E+00
    0.9000000000E+04    0.4669863065E+00    0.3524004575E-01    0.2365985755E+00    0.1646375307E+00    0.3978516624E+00
    0.1100000000E+05    0.4743090423E+00    0.3125465054E-01    0.2380495738E+00    0.1672703646E+00    0.4009862115E+00
    0.1300000000E+05    0.4792521529E+00    0.2838651849E-01    0.2391342515E+00    0.1690576996E+00    0.4033991733E+00
    0.1500000000E+05    0.4827867466E+00    0.2620398737E-01    0.2399809881E+00    0.1703432642E+00    0.4053346063E+00
    0.1700000000E+05    0.4854263807E+00    0.2447416365E-01    0.2406632699E+00    0.1713091381E+00    0.4069342487E+00
    0.1900000000E+05    0.4874654563E+00    0.2306032355E-01    0.2412265211E+00    0.1720598807E+00    0.4082868949E+00
    0.2100000000E+05    0.4890837266E+00    0.2187677783E-01    0.2417004901E+00    0.1726594464E+00    0.4094514313E+00
    0.2300000000E+05    0.4903966348E+00    0.2086696030E-01    0.2421055590E+00    0.1731489841E+00    0.4104686842E+00
    0.2500000000E+05    0.4914814555E+00    0.1999192431E-01    0.2424562080E+00    0.1735560893E+00    0.4113679875E+00
    0.2700000000E+05    0.4923917277E+00    0.1922390666E-01    0.2427630356E+00    0.1738999177E+00    0.4121710442E+00
    0.2900000000E+05    0.4931656422E+00    0.1854253203E-01    0.2430339954E+00    0.1741941605E+00    0.4128943104E+00
    0.3100000000E+05    0.4938311292E+00    0.1793247340E-01    0.2432751838E+00    0.1744488500E+00    0.4135505256E+00
    0.3300000000E+05    0.4944090606E+00    0.1738195447E-01    0.2434913597E+00    0.1746714985E+00    0.4141497307E+00
    0.3500000000E+05    0.4949153300E+00    0.1688175962E-01    0.2436862971E+00    0.1748678380E+00    0.4146999632E+00
    0.3700000000E+05    0.4953622428E+00    0.1642456053E-01    0.2438630313E+00    0.1750423155E+00    0.4152077456E+00
    0.3900000000E+05    0.4957594675E+00    0.1600444682E-01    0.2440240332E+00    0.1751984325E+00    0.4156784351E+00
    0.4100000000E+05    0.4961147010E+00    0.1561659165E-01    0.2441713371E+00    0.1753389823E+00    0.4161164793E+00
    0.4300000000E+05    0.4964341439E+00    0.1525700875E-01    0.2443066337E+00    0.1754662198E+00    0.4165256063E+00
    0.4500000000E+05    0.4967228443E+00    0.1492237288E-01    0.2444313412E+00    0.1755819847E+00    0.4169089686E+00
    0.4700000000E+05    0.4969849525E+00    0.1460988501E-01    0.2445466587E+00    0.1756877929E+00    0.4172692530E+00
    0.4900000000E+05    0.4972239106E+00    0.1431716961E-01    0.2446536073E+00    0.1757849041E+00    0.4176087657E+00
    0.1000000000E+05    0.4710357904E+00    0.3306774027E-01    0.2373813570E+00    0.1660916984E+00    0.3995308061E+00
    0.3000000000E+05    0.4935104978E+00    0.1822939395E-01    0.2431579870E+00    0.1743259310E+00    0.4132301179E+00
    0.5000000000E+05    0.4973356265E+00    0.1417758018E-01    0.2447042219E+00    0.1758305351E+00    0.4177713660E+00
    0.7000000000E+05    0.4988558883E+00    0.1205603586E-01    0.2454361380E+00    0.1764711882E+00    0.4202996876E+00
    0.9000000000E+05    0.4996591755E+00    0.1069113249E-01    0.2458589392E+00    0.1768332506E+00    0.4219871621E+00
    0.1100000000E+06    0.5001506222E+00    0.9716194085E-02    0.2461297615E+00    0.1770698007E+00    0.4232259148E+00
    0.1300000000E+06    0.5004795237E+00    0.8973856054E-02    0.2463143837E+00    0.1772386206E+00    0.4241905355E+00
    0.1500000000E+06    0.5007134086E+00    0.8383639788E-02    0.2464454207E+00    0.1773664716E+00    0.4249725160E+00
    0.1700000000E+06    0.5008871585E+00    0.7899457872E-02    0.2465409452E+00    0.1774675041E+00    0.4256252121E+00
    0.1900000000E+06    0.5010205600E+00    0.7492730455E-02    0.2466117954E+00    0.1775499329E+00    0.4261821985E+00
    0.2100000000E+06    0.5011256487E+00    0.7144651825E-02    0.2466648685E+00    0.1776188706E+00    0.4266658416E+00
    0.2300000000E+06    0.5012101528E+00    0.6842265499E-02    0.2467047608E+00    0.1776776757E+00    0.4270917182E+00
    0.2500000000E+06    0.5012792544E+00    0.6576310827E-02    0.2467346514E+00    0.1777286512E+00    0.4274710700E+00
    0.2700000000E+06    0.5013365528E+00    0.6339966756E-02    0.2467568065E+00    0.1777734329E+00    0.4278122503E+00
    0.2900000000E+06    0.5013846237E+00    0.6128081608E-02    0.2467728831E+00    0.1778132176E+00    0.4281216198E+00
    0.3100000000E+06    0.5014253560E+00    0.5936681024E-02    0.2467841192E+00    0.1778489025E+00    0.4284041230E+00
    0.3300000000E+06    0.5014601655E+00    0.5762642533E-02    0.2467914568E+00    0.1778811747E+00    0.4286636723E+00
    0.3500000000E+06    0.5014901330E+00    0.5603473857E-02    0.2467956241E+00    0.1779105703E+00    0.4289034119E+00
    0.3700000000E+06    0.5015160972E+00    0.5457157977E-02    0.2467971920E+00    0.1779375143E+00    0.4291259030E+00
    0.3900000000E+06    0.5015387183E+00    0.5322042398E-02    0.2467966135E+00    0.1779623485E+00    0.4293332568E+00
    0.4100000000E+06    0.5015585226E+00    0.5196758450E-02    0.2467942523E+00    0.1779853511E+00    0.4295272324E+00
    0.4300000000E+06    0.5015759344E+00    0.5080161423E-02    0.2467904027E+00    0.1780067512E+00    0.4297093094E+00
    0.4500000000E+06    0.5015912997E+00    0.4971285463E-02    0.2467853054E+00    0.1780267395E+00    0.4298807433E+00
    0.4700000000E+06    0.5016049026E+00    0.4869309113E-02    0.2467791585E+00    0.1780454759E+00    0.4300426074E+00
    0.4900000000E+06    0.5016169792E+00    0.4773528641E-02    0.2467721264E+00    0.1780630960E+00    0.4301958263E+00
    0.1000000000E+06    0.4999316401E+00    0.1016737542E-01    0.2460080984E+00    0.1769625067E+00    0.4226489122E+00
    0.3000000000E+06    0.5014058095E+00    0.6030032871E-02    0.2467790415E+00    0.1778315255E+00    0.4282659645E+00
    0.5000000000E+06    0.5016225079E+00    0.4727768903E-02    0.2467683222E+00    0.1780715242E+00    0.4302694482E+00
    0.7000000000E+06    0.5016872027E+00    0.4026511694E-02    0.2466694209E+00    0.1782023242E+00    0.4314363320E+00
    0.9000000000E+06    0.5017080159E+00    0.3570934404E-02    0.2465559509E+00    0.1782904115E+00    0.4322416451E+00
    0.1100000000E+07    0.5017117461E+00    0.3244171484E-02    0.2464440223E+00    0.1783562494E+00    0.4328488531E+00
    0.1300000000E+07    0.5017077740E+00    0.2994900121E-02    0.2463378127E+00    0.1784085896E+00    0.4333323749E+00
    0.1500000000E+07    0.5017000652E+00    0.2796546525E-02    0.2462381821E+00    0.1784519243E+00    0.4337319435E+00
    0.1700000000E+07    0.5016905064E+00    0.2633780941E-02    0.2461449523E+00    0.1784888461E+00    0.4340711081E+00
    0.1900000000E+07    0.5016800685E+00    0.2497053159E-02    0.2460576279E+00    0.1785209801E+00    0.4343649009E+00
    0.2100000000E+07    0.5016692781E+00    0.2380060140E-02    0.2459756463E+00    0.1785494088E+00    0.4346234663E+00
    0.2300000000E+07    0.5016584304E+00    0.2278450540E-02    0.2458984669E+00    0.1785748881E+00    0.4348539522E+00
    0.2500000000E+07    0.5016476935E+00    0.2189109986E-02    0.2458255999E+00    0.1785979657E+00    0.4350615734E+00
    0.2700000000E+07    0.5016371627E+00    0.2109742412E-02    0.2457566121E+00    0.1786190508E+00    0.4352502434E+00
    0.2900000000E+07    0.5016268904E+00    0.2038612611E-02    0.2456911242E+00    0.1786384571E+00    0.4354229702E+00
    0.3100000000E+07    0.5016169032E+00    0.1974381377E-02    0.2456288051E+00    0.1786564300E+00    0.4355821121E+00
    0.3300000000E+07    0.5016072120E+00    0.1915996299E-02    0.2455693655E+00    0.1786731650E+00    0.4357295507E+00
    0.3500000000E+07    0.5015978181E+00    0.1862617252E-02    0.2455125523E+00    0.1786888204E+00    0.4358668098E+00
    0.3700000000E+07    0.5015887168E+00    0.1813564284E-02    0.2454581430E+00    0.1787035263E+00    0.4359951397E+00
    0.3900000000E+07    0.5015799000E+00    0.1768280335E-02    0.2454059415E+00    0.1787173905E+00    0.4361155780E+00
    0.4100000000E+07    0.5015713574E+00    0.1726304050E-02    0.2453557745E+00    0.1787305036E+00    0.4362289951E+00
    0.4300000000E+07    0.5015630779E+00    0.1687249605E-02    0.2453074877E+00    0.1787429424E+00    0.4363361278E+00
    0.4500000000E+07    0.5015550500E+00    0.1650791500E-02    0.2452609437E+00    0.1787547725E+00    0.4364376050E+00
    0.4700000000E+07    0.5015472619E+00    0.1616652937E-02    0.2452160194E+00    0.1787660504E+00    0.4365339673E+00
    0.4900000000E+07    0.5015397023E+00    0.1584596826E-02    0.2451726044E+00    0.1787768251E+00    0.4366256830E+00
    0.1000000000E+07    0.5017112353E+00    0.3395497272E-02    0.2464994074E+00    0.1783254191E+00    0.4325641976E+00
    0.3000000000E+07    0.5016218602E+00    0.2005706165E-02    0.2456595875E+00    0.1786476095E+00    0.4355041120E+00
    0.5000000000E+07    0.5015360047E+00    0.1569284691E-02    0.2451514313E+00    0.1787820374E+00    0.4366699279E+00
    0.7000000000E+07    0.5014716508E+00    0.1334877040E-02    0.2447874956E+00    0.1788678953E+00    0.4373871253E+00
    0.9000000000E+07    0.5014207665E+00    0.1182859791E-02    0.2445030877E+00    0.1789310599E+00    0.4379007705E+00
    0.1100000000E+08    0.5013787938E+00    0.1073965198E-02    0.2442692276E+00    0.1789810401E+00    0.4382989706E+00
    0.1300000000E+08    0.5013431056E+00    0.9909767903E-03    0.2440704159E+00    0.1790223957E+00    0.4386231331E+00
    0.1500000000E+08    0.5013120752E+00    0.9249921853E-03    0.2438973745E+00    0.1790576677E+00    0.4388959288E+00
    0.1700000000E+08    0.5012846309E+00    0.8708814691E-03    0.2437441005E+00    0.1790884174E+00    0.4391310778E+00
    0.1900000000E+08    0.5012600314E+00    0.8254517288E-03    0.2436064817E+00    0.1791156733E+00    0.4393374954E+00
    0.2100000000E+08    0.5012377430E+00    0.7865973313E-03    0.2434815760E+00    0.1791401485E+00    0.4395212921E+00
    0.2300000000E+08    0.5012173689E+00    0.7528656303E-03    0.2433672040E+00    0.1791623581E+00    0.4396868329E+00
    0.2500000000E+08    0.5011986063E+00    0.7232175468E-03    0.2432617057E+00    0.1791826860E+00    0.4398373417E+00
    0.2700000000E+08    0.5011812190E+00    0.6968874274E-03    0.2431637870E+00    0.1792014264E+00    0.4399752651E+00
