  Pressure (Pa) 22mC5-400 (mol/kg) 2mC6-400 (mol/kg) 3mC6-400 (mol/kg) 23mC5-400 (mol/kg) C7-400 (mol/kg)
    0.1000000000E+01    0.1059642624E-02    0.3944044695E-02    0.4703423411E-02    0.9303074468E-04    0.5088378957E-02
    0.3000000000E+01    0.3144200728E-02    0.1140950290E-01    0.1359208998E-01    0.2760452049E-03    0.1470708615E-01
    0.5000000000E+01    0.5184064767E-02    0.1836116272E-01    0.2185312843E-01    0.4551381015E-03    0.2364977651E-01
    0.7000000000E+01    0.7181069306E-02    0.2485132813E-01    0.2955300584E-01    0.6304703839E-03    0.3198793689E-01
    0.9000000000E+01    0.9136946196E-02    0.3092520890E-01    0.3674904814E-01    0.8021939912E-03    0.3978322981E-01
    0.1100000000E+02    0.1105333175E-01    0.3662210197E-01    0.4349096314E-01    0.9704524811E-03    0.4708912977E-01
    0.1300000000E+02    0.1293177330E-01    0.4197634294E-01    0.4982206876E-01    0.1135381606E-02    0.5395224257E-01
    0.1500000000E+02    0.1477373525E-01    0.4701807849E-01    0.5578029080E-01    0.1297109843E-02    0.6041337738E-01
    0.1700000000E+02    0.1658060461E-01    0.5177389781E-01    0.6139897915E-01    0.1455758881E-02    0.6650842378E-01
    0.1900000000E+02    0.1835369614E-01    0.5626735229E-01    0.6670758003E-01    0.1611444066E-02    0.7226907402E-01
    0.2100000000E+02    0.2009425697E-01    0.6051938593E-01    0.7173219291E-01    0.1764274818E-02    0.7772342158E-01
    0.2300000000E+02    0.2180347105E-01    0.6454869393E-01    0.7649603459E-01    0.1914355009E-02    0.8289645990E-01
    0.2500000000E+02    0.2348246308E-01    0.6837202313E-01    0.8101982806E-01    0.2061783315E-02    0.8781050033E-01
    0.2700000000E+02    0.2513230223E-01    0.7200442496E-01    0.8532212997E-01    0.2206653541E-02    0.9248552409E-01
    0.2900000000E+02    0.2675400561E-01    0.7545946962E-01    0.8941960770E-01    0.2349054924E-02    0.9693948017E-01
    0.3100000000E+02    0.2834854139E-01    0.7874942820E-01    0.9332727495E-01    0.2489072409E-02    0.1011885385E+00
    0.3300000000E+02    0.2991683178E-01    0.8188542816E-01    0.9705869281E-01    0.2626786906E-02    0.1052473063E+00
    0.3500000000E+02    0.3145975578E-01    0.8487758684E-01    0.1006261422E+00    0.2762275537E-02    0.1091290131E+00
    0.3700000000E+02    0.3297815165E-01    0.8773512631E-01    0.1040407721E+00    0.2895611849E-02    0.1128456709E+00
    0.3900000000E+02    0.3447281937E-01    0.9046647279E-01    0.1073127280E+00    0.3026866030E-02    0.1164082111E+00
    0.4100000000E+02    0.3594452276E-01    0.9307934281E-01    0.1104512626E+00    0.3156105096E-02    0.1198266047E+00
    0.4300000000E+02    0.3739399156E-01    0.9558081835E-01    0.1134648328E+00    0.3283393074E-02    0.1231099661E+00
    0.4500000000E+02    0.3882192332E-01    0.9797741237E-01    0.1163611836E+00    0.3408791168E-02    0.1262666433E+00
    0.4700000000E+02    0.4022898524E-01    0.1002751264E+00    0.1191474223E+00    0.3532357915E-02    0.1293042979E+00
    0.4900000000E+02    0.4161581574E-01    0.1024795008E+00    0.1218300831E+00    0.3654149331E-02    0.1322299742E+00
    0.1000000000E+02    0.1009997667E-01    0.3381852646E-01    0.4017392710E-01    0.8867477148E-03    0.4349429369E-01
    0.3000000000E+02    0.2755461076E-01    0.7712436406E-01    0.9139628817E-01    0.2419356505E-02    0.9908867429E-01
    0.5000000000E+02    0.4230183625E-01    0.1035483022E+00    0.1231344711E+00    0.3714396140E-02    0.1336528684E+00
    0.7000000000E+02    0.5509574848E-01    0.1210849521E+00    0.1450196411E+00    0.4838029601E-02    0.1575640761E+00
    0.9000000000E+02    0.6642460125E-01    0.1333145888E+00    0.1611860372E+00    0.5833097067E-02    0.1752819436E+00
    0.1100000000E+03    0.7661965210E-01    0.1421107669E+00    0.1737141600E+00    0.6728664623E-02    0.1890532446E+00
    0.1300000000E+03    0.8591433547E-01    0.1485592004E+00    0.1837705779E+00    0.7545215547E-02    0.2001391588E+00
    0.1500000000E+03    0.9447840196E-01    0.1533358913E+00    0.1920629532E+00    0.8297645451E-02    0.2093055623E+00
    0.1700000000E+03    0.1024386011E+00    0.1568847730E+00    0.1990470870E+00    0.8997076900E-02    0.2170462718E+00
    0.1900000000E+03    0.1098917355E+00    0.1595096242E+00    0.2050307558E+00    0.9652004743E-02    0.2236950800E+00
    0.2100000000E+03    0.1169131916E+00    0.1614252472E+00    0.2102298736E+00    0.1026904462E-01    0.2294863912E+00
    0.2300000000E+03    0.1235626845E+00    0.1627876524E+00    0.2148007598E+00    0.1085343703E-01    0.2345900831E+00
    0.2500000000E+03    0.1298882288E+00    0.1637127087E+00    0.2188596220E+00    0.1140939570E-01    0.2391325675E+00
    0.2700000000E+03    0.1359289464E+00    0.1642881149E+00    0.2224948158E+00    0.1194035402E-01    0.2432100529E+00
    0.2900000000E+03    0.1417170933E+00    0.1645813354E+00    0.2257748357E+00    0.1244914286E-01    0.2468971933E+00
    0.3100000000E+03    0.1472795490E+00    0.1646450053E+00    0.2287536829E+00    0.1293812127E-01    0.2502529024E+00
    0.3300000000E+03    0.1526389288E+00    0.1645207008E+00    0.2314745676E+00    0.1340927407E-01    0.2533243653E+00
    0.3500000000E+03    0.1578144271E+00    0.1642416225E+00    0.2339725214E+00    0.1386428587E-01    0.2561498718E+00
    0.3700000000E+03    0.1628224649E+00    0.1638345412E+00    0.2362762787E+00    0.1430459789E-01    0.2587608573E+00
    0.3900000000E+03    0.1676771931E+00    0.1633212307E+00    0.2384096564E+00    0.1473145210E-01    0.2611834012E+00
    0.4100000000E+03    0.1723908884E+00    0.1627195392E+00    0.2403925828E+00    0.1514592603E-01    0.2634393442E+00
    0.4300000000E+03    0.1769742678E+00    0.1620441993E+00    0.2422418752E+00    0.1554896028E-01    0.2655471337E+00
    0.4500000000E+03    0.1814367402E+00    0.1613074497E+00    0.2439718365E+00    0.1594138065E-01    0.2675224725E+00
    0.4700000000E+03    0.1857866099E+00    0.1605195157E+00    0.2455947175E+00    0.1632391603E-01    0.2693788223E+00
    0.4900000000E+03    0.1900312434E+00    0.1596889846E+00    0.2471210803E+00    0.1669721294E-01    0.2711277986E+00
    0.1000000000E+03    0.7164745505E-01    0.1380613937E+00    0.1678176615E+00    0.6291879565E-02    0.1825666503E+00
    0.3000000000E+03    0.1445250301E+00    0.1646390422E+00    0.2272989872E+00    0.1269597651E-01    0.2486132906E+00
    0.5000000000E+03    0.1921161759E+00    0.1592600552E+00    0.2478509782E+00    0.1688057949E-01    0.2719652252E+00
    0.7000000000E+03    0.2295646276E+00    0.1497125691E+00    0.2590771089E+00    0.2017477214E-01    0.2849456142E+00
    0.9000000000E+03    0.2610339048E+00    0.1398991429E+00    0.2663892458E+00    0.2294398366E-01    0.2935250389E+00
    0.1100000000E+04    0.2883023326E+00    0.1306884040E+00    0.2716272355E+00    0.2534429170E-01    0.2997500354E+00
    0.1300000000E+04    0.3123314911E+00    0.1222706855E+00    0.2756112476E+00    0.2746008682E-01    0.3045394766E+00
    0.1500000000E+04    0.3337265503E+00    0.1146457732E+00    0.2787694748E+00    0.2934447885E-01    0.3083762094E+00
    0.1700000000E+04    0.3529100685E+00    0.1077564275E+00    0.2813501580E+00    0.3103455228E-01    0.3115418426E+00
    0.1900000000E+04    0.3701991069E+00    0.1015310452E+00    0.2835084166E+00    0.3255813473E-01    0.3142133356E+00
    0.2100000000E+04    0.3858436713E+00    0.9589835785E-01    0.2853468116E+00    0.3393717073E-01    0.3165083096E+00
    0.2300000000E+04    0.4000477240E+00    0.9079244822E-01    0.2869362137E+00    0.3518956558E-01    0.3185084512E+00
    0.2500000000E+04    0.4129816071E+00    0.8615416123E-01    0.2883273649E+00    0.3633027520E-01    0.3202725262E+00
    0.2700000000E+04    0.4247899141E+00    0.8193113043E-01    0.2895576711E+00    0.3737199675E-01    0.3218440541E+00
    0.2900000000E+04    0.4355967978E+00    0.7807728819E-01    0.2906553890E+00    0.3832563402E-01    0.3232560538E+00
    0.3100000000E+04    0.4455097471E+00    0.7455221353E-01    0.2916423116E+00    0.3920062873E-01    0.3245340984E+00
    0.3300000000E+04    0.4546224007E+00    0.7132046372E-01    0.2925355502E+00    0.4000520725E-01    0.3256983481E+00
    0.3500000000E+04    0.4630167233E+00    0.6835094841E-01    0.2933487499E+00    0.4074657136E-01    0.3267649421E+00
    0.3700000000E+04    0.4707647375E+00    0.6561636667E-01    0.2940929419E+00    0.4143105022E-01    0.3277469763E+00
    0.3900000000E+04    0.4779299337E+00    0.6309271091E-01    0.2947771521E+00    0.4206422397E-01    0.3286552049E+00
    0.4100000000E+04    0.4845684384E+00    0.6075883444E-01    0.2954088458E+00    0.4265102617E-01    0.3294985537E+00
    0.4300000000E+04    0.4907299925E+00    0.5859607676E-01    0.2959942574E+00    0.4319582968E-01    0.3302845017E+00
    0.4500000000E+04    0.4964587794E+00    0.5658793983E-01    0.2965386390E+00    0.4370251930E-01    0.3310193702E+00
    0.4700000000E+04    0.5017941319E+00    0.5471980881E-01    0.2970464501E+00    0.4417455373E-01    0.3317085434E+00
    0.4900000000E+04    0.5067711362E+00    0.5297871126E-01    0.2975215049E+00    0.4461501867E-01    0.3323566404E+00
    0.1000000000E+04    0.2751215895E+00    0.1351993032E+00    0.2692030288E+00    0.2418396364E-01    0.2968597347E+00
    0.3000000000E+04    0.4406588652E+00    0.7627597915E-01    0.2911615369E+00    0.3877242152E-01    0.3239104524E+00
    0.5000000000E+04    0.5091351908E+00    0.5215214354E-01    0.2977477928E+00    0.4482428625E-01    0.3326665534E+00
    0.7000000000E+04    0.5436646637E+00    0.4008042403E-01    0.3011543003E+00    0.4788552539E-01    0.3374415284E+00
    0.9000000000E+04    0.5635723072E+00    0.3305310924E-01    0.3032937830E+00    0.4965656379E-01    0.3405755738E+00
    0.1100000000E+05    0.5762062052E+00    0.2850290001E-01    0.3047836112E+00    0.5078471866E-01    0.3428445358E+00
    0.1300000000E+05    0.5848073807E+00    0.2532277828E-01    0.3058902859E+00    0.5155582463E-01    0.3445906378E+00
    0.1500000000E+05    0.5909809911E+00    0.2297123739E-01    0.3067496619E+00    0.5211160648E-01    0.3459916619E+00
    0.1700000000E+05    0.5955972146E+00    0.2115632293E-01    0.3074390023E+00    0.5252898522E-01    0.3471504663E+00
    0.1900000000E+05    0.5991627055E+00    0.1970814367E-01    0.3080058124E+00    0.5285280159E-01    0.3481313081E+00
    0.2100000000E+05    0.6019898875E+00    0.1852161822E-01    0.3084810644E+00    0.5311074069E-01    0.3489767117E+00
    0.2300000000E+05    0.6042806731E+00    0.1752844153E-01    0.3088858962E+00    0.5332071777E-01    0.3497161131E+00
    0.2500000000E+05    0.6061707435E+00    0.1668235133E-01    0.3092352739E+00    0.5349478737E-01    0.3503706368E+00
    0.2700000000E+05    0.6077543188E+00    0.1595091572E-01    0.3095401187E+00    0.5364133175E-01    0.3509558983E+00
    0.2900000000E+05    0.6090986867E+00    0.1531072286E-01    0.3098086035E+00    0.5376634543E-01    0.3514837297E+00
    0.3100000000E+05    0.6102530760E+00    0.1474444218E-01    0.3100469775E+00    0.5387422027E-01    0.3519632870E+00
    0.3300000000E+05    0.6112542682E+00    0.1423896222E-01    0.3102601076E+00    0.5396824239E-01    0.3524017841E+00
    0.3500000000E+05    0.6121302569E+00    0.1378417291E-01    0.3104518455E+00    0.5405091644E-01    0.3528049944E+00
    0.3700000000E+05    0.6129026976E+00    0.1337214681E-01    0.3106252825E+00    0.5412418286E-01    0.3531776028E+00
    0.3900000000E+05    0.6135885880E+00    0.1299657489E-01    0.3107829311E+00    0.5418956702E-01    0.3535234570E+00
    0.4100000000E+05    0.6142014447E+00    0.1265236923E-01    0.3109268556E+00    0.5424828374E-01    0.3538457516E+00
    0.4300000000E+05    0.6147521424E+00    0.1233537768E-01    0.3110587694E+00    0.5430131192E-01    0.3541471648E+00
    0.4500000000E+05    0.6152495241E+00    0.1204217532E-01    0.3111801073E+00    0.5434944879E-01    0.3544299618E+00
    0.4700000000E+05    0.6157008500E+00    0.1176990961E-01    0.3112920807E+00    0.5439334993E-01    0.3546960732E+00
    0.4900000000E+05    0.6161121335E+00    0.1151618376E-01    0.3113957197E+00    0.5443355919E-01    0.3549471568E+00
    0.1000000000E+05    0.5705406445E+00    0.3055680847E-01    0.3040988006E+00    0.5027826992E-01    0.3417912368E+00
    0.3000000000E+05    0.6096970883E+00    0.1501924517E-01    0.3099312228E+00    0.5382219835E-01    0.3517290530E+00
    0.5000000000E+05    0.6163043615E+00    0.1139562654E-01    0.3114446946E+00    0.5445242449E-01    0.3550675186E+00
    0.7000000000E+05    0.6189194207E+00    0.9595827545E-02    0.3121464621E+00    0.5471519443E-01    0.3569497196E+00
    0.9000000000E+05    0.6203058125E+00    0.8466445553E-02    0.3125440985E+00    0.5486176467E-01    0.3582193834E+00
    0.1100000000E+06    0.6211605008E+00    0.7671096847E-02    0.3127937347E+00    0.5495668387E-01    0.3591599842E+00
    0.1300000000E+06    0.6217384534E+00    0.7070935290E-02    0.3129601898E+00    0.5502399981E-01    0.3598983194E+00
    0.1500000000E+06    0.6221545053E+00    0.6596696352E-02    0.3130753798E+00    0.5507474070E-01    0.3605011356E+00
    0.1700000000E+06    0.6224678439E+00    0.6209387197E-02    0.3131568791E+00    0.5511469316E-01    0.3610075246E+00
    0.1900000000E+06    0.6227120190E+00    0.5885125669E-02    0.3132151662E+00    0.5514719590E-01    0.3614421849E+00
    0.2100000000E+06    0.6229074455E+00    0.5608343651E-02    0.3132568717E+00    0.5517431637E-01    0.3618216332E+00
    0.2300000000E+06    0.6230672475E+00    0.5368393154E-02    0.3132863907E+00    0.5519740691E-01    0.3621574136E+00
    0.2500000000E+06    0.6232002410E+00    0.5157707656E-02    0.3133067467E+00    0.5521739162E-01    0.3624578862E+00
    0.2700000000E+06    0.6233125646E+00    0.4970740258E-02    0.3133200836E+00    0.5523492493E-01    0.3627292833E+00
    0.2900000000E+06    0.6234086223E+00    0.4803317994E-02    0.3133279606E+00    0.5525048425E-01    0.3629763651E+00
    0.3100000000E+06    0.6234916548E+00    0.4652232131E-02    0.3133315364E+00    0.5526442672E-01    0.3632028429E+00
    0.3300000000E+06    0.6235640991E+00    0.4514968768E-02    0.3133316875E+00    0.5527702533E-01    0.3634116619E+00
    0.3500000000E+06    0.6236278223E+00    0.4389526194E-02    0.3133290882E+00    0.5528849264E-01    0.3636051950E+00
    0.3700000000E+06    0.6236842793E+00    0.4274287790E-02    0.3133242638E+00    0.5529899690E-01    0.3637853803E+00
    0.3900000000E+06    0.6237346197E+00    0.4167931520E-02    0.3133176288E+00    0.5530867321E-01    0.3639538195E+00
    0.4100000000E+06    0.6237797642E+00    0.4069364176E-02    0.3133095137E+00    0.5531763141E-01    0.3641118502E+00
    0.4300000000E+06    0.6238204585E+00    0.3977672740E-02    0.3133001847E+00    0.5532596187E-01    0.3642606002E+00
    0.4500000000E+06    0.6238573128E+00    0.3892087832E-02    0.3132898576E+00    0.5533373967E-01    0.3644010283E+00
    0.4700000000E+06    0.6238908317E+00    0.3811955847E-02    0.3132787093E+00    0.5534102779E-01    0.3645339565E+00
    0.4900000000E+06    0.6239214352E+00    0.3736717428E-02    0.3132668851E+00    0.5534787950E-01    0.3646600937E+00
    0.1000000000E+06    0.6207786900E+00    0.8038095190E-02    0.3126822337E+00    0.5491371577E-01    0.3587208675E+00
    0.3000000000E+06    0.6234515988E+00    0.4725903945E-02    0.3133302258E+00    0.5525763888E-01    0.3630919801E+00
    0.5000000000E+06    0.6239357563E+00    0.3700780061E-02    0.3132607581E+00    0.5535115615E-01    0.3647208114E+00
    0.7000000000E+06    0.6241310717E+00    0.3150651878E-02    0.3131232262E+00    0.5540195548E-01    0.3656930676E+00
    0.9000000000E+06    0.6242337004E+00    0.2793773257E-02    0.3129809886E+00    0.5543612309E-01    0.3663757514E+00
    0.1100000000E+07    0.6242954573E+00    0.2538000619E-02    0.3128461490E+00    0.5546164521E-01    0.3668973804E+00
    0.1300000000E+07    0.6243358078E+00    0.2342976382E-02    0.3127209057E+00    0.5548192855E-01    0.3673172433E+00
    0.1500000000E+07    0.6243636536E+00    0.2187837154E-02    0.3126049973E+00    0.5549871896E-01    0.3676673383E+00
    0.1700000000E+07    0.6243836197E+00    0.2060559782E-02    0.3124975486E+00    0.5551302320E-01    0.3679668045E+00
    0.1900000000E+07    0.6243983364E+00    0.1953659464E-02    0.3123976016E+00    0.5552547182E-01    0.3682279563E+00
    0.2100000000E+07    0.6244094034E+00    0.1862198951E-02    0.3123042713E+00    0.5553648466E-01    0.3684591625E+00
    0.2300000000E+07    0.6244178461E+00    0.1782771189E-02    0.3122167832E+00    0.5554635476E-01    0.3686663570E+00
    0.2500000000E+07    0.6244243497E+00    0.1712938438E-02    0.3121344727E+00    0.5555529444E-01    0.3688538935E+00
    0.2700000000E+07    0.6244293881E+00    0.1650903949E-02    0.3120567722E+00    0.5556346233E-01    0.3690250565E+00
    0.2900000000E+07    0.6244332984E+00    0.1595310147E-02    0.3119831973E+00    0.5557097991E-01    0.3691823824E+00
    0.3100000000E+07    0.6244363264E+00    0.1545109467E-02    0.3119133328E+00    0.5557794228E-01    0.3693278688E+00
    0.3300000000E+07    0.6244386548E+00    0.1499478797E-02    0.3118468212E+00    0.5558442520E-01    0.3694631158E+00
    0.3500000000E+07    0.6244404222E+00    0.1457761146E-02    0.3117833532E+00    0.5559049000E-01    0.3695894243E+00
    0.3700000000E+07    0.6244417351E+00    0.1419424834E-02    0.3117226597E+00    0.5559618702E-01    0.3697078655E+00
    0.3900000000E+07    0.6244426766E+00    0.1384034315E-02    0.3116645056E+00    0.5560155804E-01    0.3698193317E+00
    0.4100000000E+07    0.6244433123E+00    0.1351228903E-02    0.3116086839E+00    0.5560663817E-01    0.3699245733E+00
    0.4300000000E+07    0.6244436946E+00    0.1320706980E-02    0.3115550119E+00    0.5561145713E-01    0.3700242278E+00
    0.4500000000E+07    0.6244438656E+00    0.1292214101E-02    0.3115033277E+00    0.5561604035E-01    0.3701188407E+00
    0.4700000000E+07    0.6244438597E+00    0.1265533907E-02    0.3114534866E+00    0.5562040970E-01    0.3702088823E+00
    0.4900000000E+07    0.6244437050E+00    0.1240481080E-02    0.3114053596E+00    0.5562458418E-01    0.3702947610E+00
    0.1000000000E+07    0.6242680976E+00    0.2656431985E-02    0.3129124093E+00    0.5544969511E-01    0.3666520803E+00
    0.3000000000E+07    0.6244349100E+00    0.1569591584E-02    0.3119478248E+00    0.5557452537E-01    0.3692564975E+00
    0.5000000000E+07    0.6244435793E+00    0.1228514127E-02    0.3113819020E+00    0.5562660360E-01    0.3703362526E+00
    0.7000000000E+07    0.6244371884E+00    0.1045308933E-02    0.3109799035E+00    0.5565987021E-01    0.3710144839E+00
    0.9000000000E+07    0.6244280475E+00    0.9264843042E-03    0.3106670316E+00    0.5568434689E-01    0.3715067464E+00
    0.1100000000E+08    0.6244186686E+00    0.8413566245E-03    0.3104104111E+00    0.5570371635E-01    0.3718920634E+00
    0.1300000000E+08    0.6244097039E+00    0.7764736308E-03    0.3101926245E+00    0.5571974466E-01    0.3722080781E+00
    0.1500000000E+08    0.6244013129E+00    0.7248793040E-03    0.3100033062E+00    0.5573341601E-01    0.3724756143E+00
    0.1700000000E+08    0.6243935036E+00    0.6825651837E-03    0.3098357764E+00    0.5574533522E-01    0.3727073795E+00
    0.1900000000E+08    0.6243862368E+00    0.6470362612E-03    0.3096854732E+00    0.5575590065E-01    0.3729116885E+00
    0.2100000000E+08    0.6243794606E+00    0.6166470769E-03    0.3095491400E+00    0.5576538862E-01    0.3730942736E+00
    0.2300000000E+08    0.6243731236E+00    0.5902623982E-03    0.3094243689E+00    0.5577399864E-01    0.3732592513E+00
    0.2500000000E+08    0.6243671785E+00    0.5670701538E-03    0.3093093288E+00    0.5578187950E-01    0.3734096756E+00
    0.2700000000E+08    0.6243615836E+00    0.5464719342E-03    0.3092025941E+00    0.5578914511E-01    0.3735478734E+00
