  Pressure (Pa) 22mC5-400 (mol/kg) 2mC6-400 (mol/kg) 3mC6-400 (mol/kg) 23mC5-400 (mol/kg) C7-400 (mol/kg)
    0.1000000000E+01    0.1060455586E-02    0.3134915075E-02    0.2591290645E-02    0.9310208499E-04    0.1345677482E-01
    0.3000000000E+01    0.3151321592E-02    0.8962364480E-02    0.7372606893E-02    0.2766700897E-03    0.3829621976E-01
    0.5000000000E+01    0.5203323107E-02    0.1427241876E-01    0.1168571121E-01    0.4568281081E-03    0.6071500801E-01
    0.7000000000E+01    0.7217833702E-02    0.1913731163E-01    0.1559736703E-01    0.6336966427E-03    0.8105777602E-01
    0.9000000000E+01    0.9196160719E-02    0.2361597452E-01    0.1916216405E-01    0.8073903869E-03    0.9960636702E-01
    0.1100000000E+02    0.1113954926E-01    0.2775698033E-01    0.2242517565E-01    0.9780185735E-03    0.1165935316E+00
    0.1300000000E+02    0.1304918587E-01    0.3160073956E-01    0.2542394897E-01    0.1145685299E-02    0.1322131893E+00
    0.1500000000E+02    0.1492620198E-01    0.3518116097E-01    0.2819001552E-01    0.1310489826E-02    0.1466282181E+00
    0.1700000000E+02    0.1677167711E-01    0.3852692271E-01    0.3075005170E-01    0.1472526861E-02    0.1599764402E+00
    0.1900000000E+02    0.1858664184E-01    0.4166245636E-01    0.3312678051E-01    0.1631886819E-02    0.1723752722E+00
    0.2100000000E+02    0.2037208056E-01    0.4460871665E-01    0.3533967936E-01    0.1788656062E-02    0.1839253770E+00
    0.2300000000E+02    0.2212893408E-01    0.4738378928E-01    0.3740554092E-01    0.1942917130E-02    0.1947135565E+00
    0.2500000000E+02    0.2385810205E-01    0.5000337523E-01    0.3933892149E-01    0.2094748952E-02    0.2048150655E+00
    0.2700000000E+02    0.2556044516E-01    0.5248117975E-01    0.4115250225E-01    0.2244227038E-02    0.2142954756E+00
    0.2900000000E+02    0.2723678733E-01    0.5482922735E-01    0.4285738271E-01    0.2391423674E-02    0.2232121894E+00
    0.3100000000E+02    0.2888791759E-01    0.5705811854E-01    0.4446332057E-01    0.2536408085E-02    0.2316156787E+00
    0.3300000000E+02    0.3051459200E-01    0.5917724062E-01    0.4597892920E-01    0.2679246602E-02    0.2395505036E+00
    0.3500000000E+02    0.3211753533E-01    0.6119494180E-01    0.4741184119E-01    0.2820002814E-02    0.2470561567E+00
    0.3700000000E+02    0.3369744270E-01    0.6311867591E-01    0.4876884457E-01    0.2958737706E-02    0.2541677668E+00
    0.3900000000E+02    0.3525498111E-01    0.6495512328E-01    0.5005599693E-01    0.3095509796E-02    0.2609166876E+00
    0.4100000000E+02    0.3679079083E-01    0.6671029238E-01    0.5127872150E-01    0.3230375260E-02    0.2673309941E+00
    0.4300000000E+02    0.3830548677E-01    0.6838960556E-01    0.5244188837E-01    0.3363388047E-02    0.2734359020E+00
    0.4500000000E+02    0.3979965976E-01    0.6999797184E-01    0.5354988359E-01    0.3494599994E-02    0.2792541247E+00
    0.4700000000E+02    0.4127387766E-01    0.7153984892E-01    0.5460666810E-01    0.3624060924E-02    0.2848061772E+00
    0.4900000000E+02    0.4272868657E-01    0.7301929631E-01    0.5561582825E-01    0.3751818748E-02    0.2901106379E+00
    0.1000000000E+02    0.1017214681E-01    0.2572598926E-01    0.2082888961E-01    0.8930810521E-03    0.1082821990E+00
    0.3000000000E+02    0.2806545594E-01    0.5595795456E-01    0.4367215638E-01    0.2464188196E-02    0.2274751743E+00
    0.5000000000E+02    0.4344897760E-01    0.7373677992E-01    0.5610357832E-01    0.3815073468E-02    0.2926753532E+00
    0.7000000000E+02    0.5695359249E-01    0.8555935725E-01    0.6400850495E-01    0.5001087368E-02    0.3343410036E+00
    0.9000000000E+02    0.6900790677E-01    0.9392494494E-01    0.6952160957E-01    0.6059835091E-02    0.3635391566E+00
    0.1100000000E+03    0.7991404608E-01    0.1000546345E+00    0.7360930360E-01    0.7017825476E-02    0.3852886957E+00
    0.1300000000E+03    0.8989161372E-01    0.1046373212E+00    0.7677494103E-01    0.7894327320E-02    0.4022081123E+00
    0.1500000000E+03    0.9910442184E-01    0.1080997926E+00    0.7930752010E-01    0.8703714482E-02    0.4158033045E+00
    0.1700000000E+03    0.1076774072E+00    0.1107241224E+00    0.8138533507E-01    0.9456949919E-02    0.4270048478E+00
    0.1900000000E+03    0.1157077052E+00    0.1127057108E+00    0.8312463919E-01    0.1016255728E-01    0.4364204918E+00
    0.2100000000E+03    0.1232721160E+00    0.1141848256E+00    0.8460463690E-01    0.1082727593E-01    0.4444649669E+00
    0.2300000000E+03    0.1304322679E+00    0.1152650131E+00    0.8588125437E-01    0.1145651395E-01    0.4514315787E+00
    0.2500000000E+03    0.1372382697E+00    0.1160244592E+00    0.8699516940E-01    0.1205466864E-01    0.4575339968E+00
    0.2700000000E+03    0.1437313465E+00    0.1165233145E+00    0.8797671789E-01    0.1262535778E-01    0.4629318146E+00
    0.2900000000E+03    0.1499457761E+00    0.1168085904E+00    0.8884901165E-01    0.1317158950E-01    0.4677468068E+00
    0.3100000000E+03    0.1559103344E+00    0.1169175292E+00    0.8962998690E-01    0.1369588915E-01    0.4720736210E+00
    0.3300000000E+03    0.1616493901E+00    0.1168799823E+00    0.9033378949E-01    0.1420039531E-01    0.4759870154E+00
    0.3500000000E+03    0.1671837446E+00    0.1167201244E+00    0.9097173539E-01    0.1468693353E-01    0.4795468811E+00
    0.3700000000E+03    0.1725312847E+00    0.1164577123E+00    0.9155299153E-01    0.1515707359E-01    0.4828018064E+00
    0.3900000000E+03    0.1777074948E+00    0.1161090237E+00    0.9208506797E-01    0.1561217442E-01    0.4857916550E+00
    0.4100000000E+03    0.1827258630E+00    0.1156875682E+00    0.9257417986E-01    0.1605341980E-01    0.4885494648E+00
    0.4300000000E+03    0.1875982069E+00    0.1152046315E+00    0.9302551793E-01    0.1648184688E-01    0.4911028668E+00
    0.4500000000E+03    0.1923349360E+00    0.1146696976E+00    0.9344345343E-01    0.1689836921E-01    0.4934751631E+00
    0.4700000000E+03    0.1969452652E+00    0.1140907797E+00    0.9383169544E-01    0.1730379557E-01    0.4956861529E+00
    0.4900000000E+03    0.2014373909E+00    0.1134746815E+00    0.9419341304E-01    0.1769884529E-01    0.4977527767E+00
    0.1000000000E+03    0.7458921328E-01    0.9721803703E-01    0.7170530933E-01    0.6550083800E-02    0.3751457376E+00
    0.3000000000E+03    0.1529576737E+00    0.1168830858E+00    0.8924995404E-01    0.1343633906E-01    0.4699661650E+00
    0.5000000000E+03    0.2036414463E+00    0.1131545372E+00    0.9436519191E-01    0.1789268242E-01    0.4987365900E+00
    0.7000000000E+03    0.2429445857E+00    0.1058336168E+00    0.9690507308E-01    0.2134995554E-01    0.5134998110E+00
    0.9000000000E+03    0.2755380860E+00    0.9811696376E-01    0.9844790802E-01    0.2421810741E-01    0.5227349943E+00
    0.1100000000E+04    0.3034482435E+00    0.9080075265E-01    0.9949294504E-01    0.2667497361E-01    0.5291618109E+00
    0.1300000000E+04    0.3277807989E+00    0.8409270625E-01    0.1002511400E+00    0.2881759652E-01    0.5339439789E+00
    0.1500000000E+04    0.3492353337E+00    0.7801978698E-01    0.1008279388E+00    0.3070737374E-01    0.5376700608E+00
    0.1700000000E+04    0.3683009340E+00    0.7254826767E-01    0.1012822543E+00    0.3238723142E-01    0.5406725914E+00
    0.1900000000E+04    0.3853435592E+00    0.6762513341E-01    0.1016497310E+00    0.3388929204E-01    0.5431549455E+00
    0.2100000000E+04    0.4006499814E+00    0.6319370408E-01    0.1019532701E+00    0.3523873041E-01    0.5452491547E+00
    0.2300000000E+04    0.4144521129E+00    0.5919970730E-01    0.1022082926E+00    0.3645590815E-01    0.5470450270E+00
    0.2500000000E+04    0.4269416228E+00    0.5559350634E-01    0.1024255825E+00    0.3755765615E-01    0.5486059831E+00
    0.2700000000E+04    0.4382793633E+00    0.5233070006E-01    0.1026129189E+00    0.3855810129E-01    0.5499782101E+00
    0.2900000000E+04    0.4486018273E+00    0.4937202422E-01    0.1027760617E+00    0.3946923299E-01    0.5511962219E+00
    0.3100000000E+04    0.4580258014E+00    0.4668296555E-01    0.1029193705E+00    0.4030131118E-01    0.5522863795E+00
    0.3300000000E+04    0.4666518558E+00    0.4423327705E-01    0.1030462089E+00    0.4106317252E-01    0.5532691987E+00
    0.3500000000E+04    0.4745670487E+00    0.4199648155E-01    0.1031592150E+00    0.4176246749E-01    0.5541609088E+00
    0.3700000000E+04    0.4818470706E+00    0.3994940293E-01    0.1032604887E+00    0.4240584860E-01    0.5549745336E+00
    0.3900000000E+04    0.4885579787E+00    0.3807174056E-01    0.1033517224E+00    0.4299912248E-01    0.5557206572E+00
    0.4100000000E+04    0.4947576187E+00    0.3634569175E-01    0.1034342967E+00    0.4354737459E-01    0.5564079787E+00
    0.4300000000E+04    0.5004968019E+00    0.3475562105E-01    0.1035093486E+00    0.4405507262E-01    0.5570437204E+00
    0.4500000000E+04    0.5058202899E+00    0.3328777274E-01    0.1035778240E+00    0.4452615282E-01    0.5576339335E+00
    0.4700000000E+04    0.5107676217E+00    0.3193002230E-01    0.1036405158E+00    0.4496409260E-01    0.5581837298E+00
    0.4900000000E+04    0.5153738134E+00    0.3067166192E-01    0.1036980944E+00    0.4537197202E-01    0.5586974602E+00
    0.1000000000E+04    0.2899963794E+00    0.9438915718E-01    0.9901585351E-01    0.2549073687E-01    0.5262070861E+00
    0.3000000000E+04    0.4534194947E+00    0.4799577728E-01    0.1028499655E+00    0.3989457118E-01    0.5517558843E+00
    0.5000000000E+04    0.5175588357E+00    0.3007674820E-01    0.1037251478E+00    0.4556550596E-01    0.5589419870E+00
    0.7000000000E+04    0.5492910142E+00    0.2159888577E-01    0.1040999932E+00    0.4838083139E-01    0.5626158206E+00
    0.9000000000E+04    0.5674822953E+00    0.1689307788E-01    0.1042983674E+00    0.5000090085E-01    0.5649302684E+00
    0.1100000000E+05    0.5790247437E+00    0.1397074755E-01    0.1044147286E+00    0.5103301451E-01    0.5665574850E+00
    0.1300000000E+05    0.5868998324E+00    0.1200325994E-01    0.1044867635E+00    0.5174020793E-01    0.5677820096E+00
    0.1500000000E+05    0.5925701721E+00    0.1059658724E-01    0.1045324291E+00    0.5225167759E-01    0.5687471324E+00
    0.1700000000E+05    0.5968251368E+00    0.9543486826E-02    0.1045613339E+00    0.5263723997E-01    0.5695337274E+00
    0.1900000000E+05    0.6001235595E+00    0.8726048776E-02    0.1045790602E+00    0.5293752998E-01    0.5701912970E+00
    0.2100000000E+05    0.6027483489E+00    0.8072855467E-02    0.1045890562E+00    0.5317763625E-01    0.5707520415E+00
    0.2300000000E+05    0.6048824976E+00    0.7538391229E-02    0.1045935560E+00    0.5337380923E-01    0.5712379221E+00
    0.2500000000E+05    0.6066491467E+00    0.7092400733E-02    0.1045940628E+00    0.5353699987E-01    0.5716644962E+00
    0.2700000000E+05    0.6081339576E+00    0.6714048627E-02    0.1045916198E+00    0.5367483706E-01    0.5720431331E+00
    0.2900000000E+05    0.6093982250E+00    0.6388548371E-02    0.1045869698E+00    0.5379278772E-01    0.5723823598E+00
    0.3100000000E+05    0.6104868849E+00    0.6105130977E-02    0.1045806530E+00    0.5389486574E-01    0.5726887140E+00
    0.3300000000E+05    0.6114335821E+00    0.5855775041E-02    0.1045730695E+00    0.5398408100E-01    0.5729673039E+00
    0.3500000000E+05    0.6122639767E+00    0.5634386820E-02    0.1045645203E+00    0.5406273263E-01    0.5732221866E+00
    0.3700000000E+05    0.6129979605E+00    0.5436255748E-02    0.1045552348E+00    0.5413260572E-01    0.5734566311E+00
    0.3900000000E+05    0.6136511790E+00    0.5257683731E-02    0.1045453901E+00    0.5419510653E-01    0.5736733050E+00
    0.4100000000E+05    0.6142360987E+00    0.5095727118E-02    0.1045351237E+00    0.5425135736E-01    0.5738744098E+00
    0.4300000000E+05    0.6147627692E+00    0.4948013482E-02    0.1045245438E+00    0.5430226438E-01    0.5740617808E+00
    0.4500000000E+05    0.6152393780E+00    0.4812609186E-02    0.1045137361E+00    0.5434856708E-01    0.5742369620E+00
    0.4700000000E+05    0.6156726596E+00    0.4687922089E-02    0.1045027684E+00    0.5439087471E-01    0.5744012634E+00
    0.4900000000E+05    0.6160682022E+00    0.4572629007E-02    0.1044916953E+00    0.5442969364E-01    0.5745558042E+00
    0.1000000000E+05    0.5738466511E+00    0.1527571402E-01    0.1043637581E+00    0.5056946437E-01    0.5658071600E+00
    0.3000000000E+05    0.6099621838E+00    0.6242133773E-02    0.1045839920E+00    0.5384560318E-01    0.5725392983E+00
    0.5000000000E+05    0.6162533127E+00    0.4518151503E-02    0.1044861332E+00    0.5444793017E-01    0.5746297207E+00
    0.7000000000E+05    0.6187890131E+00    0.3727441534E-02    0.1043763197E+00    0.5470368378E-01    0.5757717842E+00
    0.9000000000E+05    0.6201496836E+00    0.3251561532E-02    0.1042755887E+00    0.5484797383E-01    0.5765277095E+00
    0.1100000000E+06    0.6209960891E+00    0.2924824689E-02    0.1041853688E+00    0.5494215450E-01    0.5770803630E+00
    0.1300000000E+06    0.6215725594E+00    0.2682410045E-02    0.1041044076E+00    0.5500933401E-01    0.5775098686E+00
    0.1500000000E+06    0.6219900405E+00    0.2493152606E-02    0.1040312335E+00    0.5506019674E-01    0.5778577765E+00
    0.1700000000E+06    0.6223060909E+00    0.2339972913E-02    0.1039645790E+00    0.5510038517E-01    0.5781481408E+00
    0.1900000000E+06    0.6225535152E+00    0.2212621070E-02    0.1039034188E+00    0.5513317197E-01    0.5783960164E+00
    0.2100000000E+06    0.6227523676E+00    0.2104521012E-02    0.1038469335E+00    0.5516059261E-01    0.5786113918E+00
    0.2300000000E+06    0.6229155930E+00    0.2011232031E-02    0.1037944659E+00    0.5518398347E-01    0.5788012019E+00
    0.2500000000E+06    0.6230519182E+00    0.1929631338E-02    0.1037454839E+00    0.5520426071E-01    0.5789704393E+00
    0.2700000000E+06    0.6231674391E+00    0.1857449499E-02    0.1036995527E+00    0.5522207491E-01    0.5791228072E+00
    0.2900000000E+06    0.6232665423E+00    0.1792991709E-02    0.1036563128E+00    0.5523790191E-01    0.5792611206E+00
    0.3100000000E+06    0.6233524640E+00    0.1734962950E-02    0.1036154641E+00    0.5525209842E-01    0.5793875657E+00
    0.3300000000E+06    0.6234276441E+00    0.1682354135E-02    0.1035767538E+00    0.5526493766E-01    0.5795038707E+00
    0.3500000000E+06    0.6234939563E+00    0.1634365585E-02    0.1035399671E+00    0.5527663274E-01    0.5796114231E+00
    0.3700000000E+06    0.6235528636E+00    0.1590354157E-02    0.1035049198E+00    0.5528735262E-01    0.5797113530E+00
    0.3900000000E+06    0.6236055246E+00    0.1549795855E-02    0.1034714530E+00    0.5529723317E-01    0.5798045913E+00
    0.4100000000E+06    0.6236528687E+00    0.1512258817E-02    0.1034394286E+00    0.5530638501E-01    0.5798919134E+00
    0.4300000000E+06    0.6236956504E+00    0.1477383435E-02    0.1034087261E+00    0.5531489924E-01    0.5799739716E+00
    0.4500000000E+06    0.6237344880E+00    0.1444867496E-02    0.1033792392E+00    0.5532285167E-01    0.5800513191E+00
    0.4700000000E+06    0.6237698934E+00    0.1414454886E-02    0.1033508741E+00    0.5533030593E-01    0.5801244289E+00
    0.4900000000E+06    0.6238022939E+00    0.1385926917E-02    0.1033235475E+00    0.5533731590E-01    0.5801937085E+00
    0.1000000000E+06    0.6206171589E+00    0.3074780114E-02    0.1042292272E+00    0.5489944411E-01    0.5768231293E+00
    0.3000000000E+06    0.6233109828E+00    0.1763242431E-02    0.1036356063E+00    0.5524518526E-01    0.5793257096E+00
    0.5000000000E+06    0.6238174818E+00    0.1372309868E-02    0.1033102502E+00    0.5534066890E-01    0.5802270242E+00
    0.7000000000E+06    0.6240267191E+00    0.1164574301E-02    0.1030843697E+00    0.5539269496E-01    0.5807576442E+00
    0.9000000000E+06    0.6241389836E+00    0.1030489367E-02    0.1029108169E+00    0.5542771210E-01    0.5811271168E+00
    0.1100000000E+07    0.6242079159E+00    0.9347000323E-03    0.1027696876E+00    0.5545386704E-01    0.5814077725E+00
    0.1300000000E+07    0.6242538835E+00    0.8618293457E-03    0.1026506695E+00    0.5547464587E-01    0.5816326720E+00
    0.1500000000E+07    0.6242862866E+00    0.8039637689E-03    0.1025477157E+00    0.5549183836E-01    0.5818195381E+00
    0.1700000000E+07    0.6243100507E+00    0.7565575696E-03    0.1024569718E+00    0.5550647772E-01    0.5819789160E+00
    0.1900000000E+07    0.6243279989E+00    0.7167878284E-03    0.1023758274E+00    0.5551921151E-01    0.5821175616E+00
    0.2100000000E+07    0.6243418613E+00    0.6827960906E-03    0.1023024316E+00    0.5553047105E-01    0.5822400496E+00
    0.2300000000E+07    0.6243527551E+00    0.6533019541E-03    0.1022354237E+00    0.5554055747E-01    0.5823496139E+00
    0.2500000000E+07    0.6243614320E+00    0.6273905411E-03    0.1021737736E+00    0.5554968897E-01    0.5824486209E+00
    0.2700000000E+07    0.6243684158E+00    0.6043883235E-03    0.1021166828E+00    0.5555802856E-01    0.5825388514E+00
    0.2900000000E+07    0.6243740816E+00    0.5837869226E-03    0.1020635194E+00    0.5556570108E-01    0.5826216780E+00
    0.3100000000E+07    0.6243787048E+00    0.5651944042E-03    0.1020137749E+00    0.5557280424E-01    0.5826981795E+00
    0.3300000000E+07    0.6243824916E+00    0.5483030608E-03    0.1019670336E+00    0.5557941589E-01    0.5827692187E+00
    0.3500000000E+07    0.6243855996E+00    0.5328674649E-03    0.1019229518E+00    0.5558559901E-01    0.5828354957E+00
    0.3700000000E+07    0.6243881507E+00    0.5186891330E-03    0.1018812416E+00    0.5559140531E-01    0.5828975864E+00
    0.3900000000E+07    0.6243902406E+00    0.5056055686E-03    0.1018416596E+00    0.5559687769E-01    0.5829559697E+00
    0.4100000000E+07    0.6243919456E+00    0.4934822789E-03    0.1018039982E+00    0.5560205219E-01    0.5830110480E+00
    0.4300000000E+07    0.6243933269E+00    0.4822068554E-03    0.1017680788E+00    0.5560695932E-01    0.5830631627E+00
    0.4500000000E+07    0.6243944342E+00    0.4716845163E-03    0.1017337466E+00    0.5561162517E-01    0.5831126055E+00
    0.4700000000E+07    0.6243953084E+00    0.4618347020E-03    0.1017008668E+00    0.5561607218E-01    0.5831596279E+00
    0.4900000000E+07    0.6243959831E+00    0.4525884415E-03    0.1016693209E+00    0.5562031985E-01    0.5832044478E+00
    0.1000000000E+07    0.6241772065E+00    0.9790223718E-03    0.1028369813E+00    0.5544162149E-01    0.5812759666E+00
    0.3000000000E+07    0.6243765093E+00    0.5742604624E-03    0.1020382477E+00    0.5556931857E-01    0.5826606612E+00
    0.5000000000E+07    0.6243962545E+00    0.4481727428E-03    0.1016540151E+00    0.5562237433E-01    0.5832260922E+00
    0.7000000000E+07    0.6243960335E+00    0.3806508449E-03    0.1013979927E+00    0.5565618529E-01    0.5835790101E+00
    0.9000000000E+07    0.6243909933E+00    0.3369406423E-03    0.1012055749E+00    0.5568102360E-01    0.5838341548E+00
    0.1100000000E+08    0.6243846074E+00    0.3056696555E-03    0.1010513220E+00    0.5570065686E-01    0.5840333111E+00
    0.1300000000E+08    0.6243779586E+00    0.2818614624E-03    0.1009225537E+00    0.5571688920E-01    0.5841962977E+00
    0.1500000000E+08    0.6243714329E+00    0.2629464247E-03    0.1008120226E+00    0.5573072477E-01    0.5843340430E+00
    0.1700000000E+08    0.6243651705E+00    0.2474454166E-03    0.1007151936E+00    0.5574278010E-01    0.5844531995E+00
    0.1900000000E+08    0.6243592153E+00    0.2344386248E-03    0.1006290390E+00    0.5575346088E-01    0.5845581112E+00
    0.2100000000E+08    0.6243535710E+00    0.2233199076E-03    0.1005514359E+00    0.5576304833E-01    0.5846517679E+00
    0.2300000000E+08    0.6243482245E+00    0.2136713619E-03    0.1004808384E+00    0.5577174537E-01    0.5847363132E+00
    0.2500000000E+08    0.6243431566E+00    0.2051942274E-03    0.1004160852E+00    0.5577970324E-01    0.5848133356E+00
    0.2700000000E+08    0.6243383460E+00    0.1976684687E-03    0.1003562823E+00    0.5578703766E-01    0.5848840440E+00
