  Pressure (Pa) 22mC5-400 (mol/kg) 2mC6-400 (mol/kg) 3mC6-400 (mol/kg) 23mC5-400 (mol/kg) C7-400 (mol/kg)
    0.1000000000E+01    0.1058824702E-02    0.4697598475E-02    0.1554224856E-02    0.9295896896E-04    0.1345201416E-01
    0.3000000000E+01    0.3137064757E-02    0.1340330582E-01    0.4419316902E-02    0.2754189932E-03    0.3825940153E-01
    0.5000000000E+01    0.5164839430E-02    0.2130346703E-01    0.7001244017E-02    0.4534509874E-03    0.6062667728E-01
    0.7000000000E+01    0.7144503858E-02    0.2851130532E-01    0.9341118623E-02    0.6272615759E-03    0.8090758707E-01
    0.9000000000E+01    0.9078263339E-02    0.3511903842E-01    0.1147240983E-01    0.7970442383E-03    0.9939016032E-01
    0.1100000000E+02    0.1096818521E-01    0.4120258718E-01    0.1342264431E-01    0.9629803508E-03    0.1163113275E+00
    0.1300000000E+02    0.1281620958E-01    0.4682506918E-01    0.1521467206E-01    0.1125240130E-02    0.1318677987E+00
    0.1500000000E+02    0.1462415915E-01    0.5203942790E-01    0.1686762155E-01    0.1283983489E-02    0.1462242746E+00
    0.1700000000E+02    0.1639374801E-01    0.5689043700E-01    0.1839762983E-01    0.1439360816E-02    0.1595197221E+00
    0.1900000000E+02    0.1812658976E-01    0.6141624651E-01    0.1981840702E-01    0.1591513681E-02    0.1718722282E+00
    0.2100000000E+02    0.1982420486E-01    0.6564958860E-01    0.2114167748E-01    0.1740575486E-02    0.1833827932E+00
    0.2300000000E+02    0.2148802735E-01    0.6961872737E-01    0.2237752806E-01    0.1886672049E-02    0.1941383255E+00
    0.2500000000E+02    0.2311941098E-01    0.7334821412E-01    0.2353468535E-01    0.2029922143E-02    0.2042140259E+00
    0.2700000000E+02    0.2471963485E-01    0.7685949294E-01    0.2462073845E-01    0.2170437994E-02    0.2136753040E+00
    0.2900000000E+02    0.2628990854E-01    0.8017139038E-01    0.2564231923E-01    0.2308325731E-02    0.2225793283E+00
    0.3100000000E+02    0.2783137687E-01    0.8330051428E-01    0.2660524929E-01    0.2443685796E-02    0.2309762912E+00
    0.3300000000E+02    0.2934512422E-01    0.8626158100E-01    0.2751466067E-01    0.2576613332E-02    0.2389104468E+00
    0.3500000000E+02    0.3083217852E-01    0.8906768550E-01    0.2837509548E-01    0.2707198531E-02    0.2464209690E+00
    0.3700000000E+02    0.3229351499E-01    0.9173052589E-01    0.2919058874E-01    0.2835526957E-02    0.2535426638E+00
    0.3900000000E+02    0.3373005944E-01    0.9426059100E-01    0.2996473763E-01    0.2961679842E-02    0.2603065654E+00
    0.4100000000E+02    0.3514269151E-01    0.9666731802E-01    0.3070075964E-01    0.3085734364E-02    0.2667404370E+00
    0.4300000000E+02    0.3653224749E-01    0.9895922575E-01    0.3140154167E-01    0.3207763902E-02    0.2728691930E+00
    0.4500000000E+02    0.3789952302E-01    0.1011440276E+00    0.3206968168E-01    0.3327838267E-02    0.2787152582E+00
    0.4700000000E+02    0.3924527559E-01    0.1032287280E+00    0.3270752423E-01    0.3446023922E-02    0.2842988731E+00
    0.4900000000E+02    0.4057022684E-01    0.1052197053E+00    0.3331719077E-01    0.3562384184E-02    0.2896383553E+00
    0.1000000000E+02    0.1002857985E-01    0.3822212527E-01    0.1246863390E-01    0.8804822236E-03    0.1080327898E+00
    0.3000000000E+02    0.2706417423E-01    0.8175783833E-01    0.2613077994E-01    0.2376315656E-02    0.2268382982E+00
    0.5000000000E+02    0.4122511819E-01    0.1061818874E+00    0.3361206651E-01    0.3619898766E-02    0.2922218012E+00
    0.7000000000E+02    0.5338214213E-01    0.1216826415E+00    0.3841439813E-01    0.4687629921E-02    0.3343915081E+00
    0.9000000000E+02    0.6407446642E-01    0.1321719550E+00    0.4179833491E-01    0.5626822621E-02    0.3642401765E+00
    0.1100000000E+03    0.7365555768E-01    0.1395349878E+00    0.4433341760E-01    0.6468492714E-02    0.3866975448E+00
    0.1300000000E+03    0.8236781828E-01    0.1448115062E+00    0.4631649434E-01    0.7233911157E-02    0.4043372033E+00
    0.1500000000E+03    0.9038370223E-01    0.1486282545E+00    0.4791836958E-01    0.7938211362E-02    0.4186423376E+00
    0.1700000000E+03    0.9782969422E-01    0.1513875028E+00    0.4924474169E-01    0.8592493093E-02    0.4305322156E+00
    0.1900000000E+03    0.1048009756E+00    0.1533598315E+00    0.5036477766E-01    0.9205109284E-02    0.4406093115E+00
    0.2100000000E+03    0.1113707599E+00    0.1547339952E+00    0.5132578753E-01    0.9782485154E-02    0.4492863361E+00
    0.2300000000E+03    0.1175964401E+00    0.1556455727E+00    0.5216131551E-01    0.1032965763E-01    0.4568563465E+00
    0.2500000000E+03    0.1235237575E+00    0.1561943176E+00    0.5289586411E-01    0.1085064115E-01    0.4635337189E+00
    0.2700000000E+03    0.1291897019E+00    0.1564551188E+00    0.5354778539E-01    0.1134868211E-01    0.4694792475E+00
    0.2900000000E+03    0.1346245741E+00    0.1564851727E+00    0.5413112185E-01    0.1182643991E-01    0.4748161410E+00
    0.3100000000E+03    0.1398534834E+00    0.1563288151E+00    0.5465681855E-01    0.1228611836E-01    0.4796405637E+00
    0.3300000000E+03    0.1448974537E+00    0.1560208597E+00    0.5513354464E-01    0.1272956270E-01    0.4840287874E+00
    0.3500000000E+03    0.1497742533E+00    0.1555889556E+00    0.5556826448E-01    0.1315833244E-01    0.4880421670E+00
    0.3700000000E+03    0.1544990270E+00    0.1550552838E+00    0.5596664342E-01    0.1357375686E-01    0.4917306795E+00
    0.3900000000E+03    0.1590847839E+00    0.1544377989E+00    0.5633334198E-01    0.1397697781E-01    0.4951354908E+00
    0.4100000000E+03    0.1635427780E+00    0.1537511512E+00    0.5667223270E-01    0.1436898305E-01    0.4982908508E+00
    0.4300000000E+03    0.1678828083E+00    0.1530073817E+00    0.5698656268E-01    0.1475063268E-01    0.5012255140E+00
    0.4500000000E+03    0.1721134586E+00    0.1522164509E+00    0.5727907705E-01    0.1512268012E-01    0.5039638201E+00
    0.4700000000E+03    0.1762422900E+00    0.1513866472E+00    0.5755211400E-01    0.1548578905E-01    0.5065265261E+00
    0.4900000000E+03    0.1802759972E+00    0.1505249037E+00    0.5780767882E-01    0.1584054709E-01    0.5089314554E+00
    0.1000000000E+03    0.6898675554E-01    0.1361663121E+00    0.4314939320E-01    0.6058342153E-02    0.3761970175E+00
    0.3000000000E+03    0.1372633752E+00    0.1564279278E+00    0.5440058767E-01    0.1205841628E-01    0.4772872447E+00
    0.5000000000E+03    0.1822590665E+00    0.1500839133E+00    0.5792945939E-01    0.1601496017E-01    0.5100796492E+00
    0.7000000000E+03    0.2180800459E+00    0.1405996286E+00    0.5976540271E-01    0.1916605722E-01    0.5275929284E+00
    0.9000000000E+03    0.2484909261E+00    0.1310874313E+00    0.6091996059E-01    0.2184213999E-01    0.5388576092E+00
    0.1100000000E+04    0.2750836500E+00    0.1222068832E+00    0.6172402564E-01    0.2418293266E-01    0.5468628901E+00
    0.1300000000E+04    0.2987132488E+00    0.1140864421E+00    0.6232117433E-01    0.2626347561E-01    0.5529193294E+00
    0.1500000000E+04    0.3199150136E+00    0.1067101766E+00    0.6278476788E-01    0.2813074519E-01    0.5577029435E+00
    0.1700000000E+04    0.3390615525E+00    0.1000210183E+00    0.6315657023E-01    0.2981744050E-01    0.5616020069E+00
    0.1900000000E+04    0.3564323650E+00    0.9395288879E-01    0.6346226788E-01    0.3134809057E-01    0.5648573360E+00
    0.2100000000E+04    0.3722484028E+00    0.8844140830E-01    0.6371860592E-01    0.3274208779E-01    0.5676271819E+00
    0.2300000000E+04    0.3866908274E+00    0.8342736547E-01    0.6393700868E-01    0.3401533400E-01    0.5700203459E+00
    0.2500000000E+04    0.3999119731E+00    0.7885756547E-01    0.6412556088E-01    0.3518120244E-01    0.5721143971E+00
    0.2700000000E+04    0.4120421924E+00    0.7468470717E-01    0.6429015867E-01    0.3625113824E-01    0.5739663133E+00
    0.2900000000E+04    0.4231943959E+00    0.7086691716E-01    0.6443521179E-01    0.3723505658E-01    0.5756190050E+00
    0.3100000000E+04    0.4334672344E+00    0.6736718881E-01    0.6456408970E-01    0.3814162170E-01    0.5771054803E+00
    0.3300000000E+04    0.4429474392E+00    0.6415282477E-01    0.6467941483E-01    0.3897845214E-01    0.5784515976E+00
    0.3500000000E+04    0.4517116186E+00    0.6119492045E-01    0.6478326124E-01    0.3975227818E-01    0.5796779372E+00
    0.3700000000E+04    0.4598276828E+00    0.5846789993E-01    0.6487729252E-01    0.4046906680E-01    0.5808011078E+00
    0.3900000000E+04    0.4673560053E+00    0.5594910553E-01    0.6496285976E-01    0.4113412349E-01    0.5818346784E+00
    0.4100000000E+04    0.4743503895E+00    0.5361843759E-01    0.6504107251E-01    0.4175217702E-01    0.5827898568E+00
    0.4300000000E+04    0.4808588841E+00    0.5145803961E-01    0.6511285109E-01    0.4232745092E-01    0.5836759914E+00
    0.4500000000E+04    0.4869244804E+00    0.4945202362E-01    0.6517896576E-01    0.4286372466E-01    0.5845009493E+00
    0.4700000000E+04    0.4925857121E+00    0.4758623082E-01    0.6524006647E-01    0.4336438624E-01    0.5852714036E+00
    0.4900000000E+04    0.4978771747E+00    0.4584802311E-01    0.6529670574E-01    0.4383247778E-01    0.5859930567E+00
    0.1000000000E+04    0.2622007459E+00    0.1265546245E+00    0.6135444488E-01    0.2304884715E-01    0.5431642596E+00
    0.3000000000E+04    0.4284350589E+00    0.6907943356E-01    0.6450149392E-01    0.3769750966E-01    0.5763812612E+00
    0.5000000000E+04    0.5003940895E+00    0.4502318484E-01    0.6532350282E-01    0.4405517574E-01    0.5863371429E+00
    0.7000000000E+04    0.5373954270E+00    0.3304193536E-01    0.6571081851E-01    0.4733367197E-01    0.5915526467E+00
    0.9000000000E+04    0.5588974676E+00    0.2619371009E-01    0.6593527745E-01    0.4924491940E-01    0.5948813183E+00
    0.1100000000E+05    0.5725802691E+00    0.2186250754E-01    0.6608024432E-01    0.5046534732E-01    0.5972397925E+00
    0.1300000000E+05    0.5818983149E+00    0.1890991672E-01    0.6618030254E-01    0.5129953487E-01    0.5990232004E+00
    0.1500000000E+05    0.5885807432E+00    0.1677954459E-01    0.6625249382E-01    0.5190010077E-01    0.6004330922E+00
    0.1700000000E+05    0.5935704228E+00    0.1517328879E-01    0.6630622053E-01    0.5235035580E-01    0.6015843243E+00
    0.1900000000E+05    0.5974180449E+00    0.1391929335E-01    0.6634710452E-01    0.5269901290E-01    0.6025477288E+00
    0.2100000000E+05    0.6004637005E+00    0.1291243324E-01    0.6637871624E-01    0.5297619058E-01    0.6033696581E+00
    0.2300000000E+05    0.6029272965E+00    0.1208519324E-01    0.6640343241E-01    0.5320138702E-01    0.6040818806E+00
    0.2500000000E+05    0.6049565901E+00    0.1139241530E-01    0.6642289597E-01    0.5338771927E-01    0.6047069928E+00
    0.2700000000E+05    0.6066541352E+00    0.1080284095E-01    0.6643827825E-01    0.5354430296E-01    0.6052615643E+00
    0.2900000000E+05    0.6080931155E+00    0.1029418939E-01    0.6645043619E-01    0.5367765150E-01    0.6057580579E+00
    0.3100000000E+05    0.6093270237E+00    0.9850172028E-02    0.6646001063E-01    0.5379253208E-01    0.6062060525E+00
    0.3300000000E+05    0.6103957866E+00    0.9458615542E-02    0.6646748986E-01    0.5389250767E-01    0.6066130477E+00
    0.3500000000E+05    0.6113297583E+00    0.9110244419E-02    0.6647325205E-01    0.5398029076E-01    0.6069850107E+00
    0.3700000000E+05    0.6121523946E+00    0.8797869151E-02    0.6647759432E-01    0.5405798030E-01    0.6073267570E+00
    0.3900000000E+05    0.6128820858E+00    0.8515831603E-02    0.6648075302E-01    0.5412722427E-01    0.6076422210E+00
    0.4100000000E+05    0.6135334394E+00    0.8259617717E-02    0.6648291831E-01    0.5418933356E-01    0.6079346537E+00
    0.4300000000E+05    0.6141181950E+00    0.8025581751E-02    0.6648424470E-01    0.5424536323E-01    0.6082067676E+00
    0.4500000000E+05    0.6146458886E+00    0.7810746426E-02    0.6648485888E-01    0.5429617157E-01    0.6084608471E+00
    0.4700000000E+05    0.6151243412E+00    0.7612655771E-02    0.6648486556E-01    0.5434246354E-01    0.6086988308E+00
    0.4900000000E+05    0.6155600241E+00    0.7429265173E-02    0.6648435193E-01    0.5438482333E-01    0.6089223769E+00
    0.1000000000E+05    0.5664424489E+00    0.2380438044E-01    0.6601493231E-01    0.4991734987E-01    0.5961505405E+00
    0.3000000000E+05    0.6087329450E+00    0.1006494200E-01    0.6645551284E-01    0.5373715422E-01    0.6059876075E+00
    0.5000000000E+05    0.6157635496E+00    0.7342535027E-02    0.6648392331E-01    0.5440468438E-01    0.6090291898E+00
    0.7000000000E+05    0.6185253512E+00    0.6078098598E-02    0.6646075678E-01    0.5468038940E-01    0.6106686759E+00
    0.9000000000E+05    0.6199844084E+00    0.5311990685E-02    0.6642580759E-01    0.5483336569E-01    0.6117393630E+00
    0.1100000000E+06    0.6208825111E+00    0.4783792072E-02    0.6638854421E-01    0.5493211237E-01    0.6125124220E+00
    0.1300000000E+06    0.6214895530E+00    0.4390801257E-02    0.6635187062E-01    0.5500199290E-01    0.6131063588E+00
    0.1500000000E+06    0.6219266426E+00    0.4083362858E-02    0.6631673768E-01    0.5505458855E-01    0.6135823990E+00
    0.1700000000E+06    0.6222560390E+00    0.3834150278E-02    0.6628341180E-01    0.5509595672E-01    0.6139758380E+00
    0.1900000000E+06    0.6225129677E+00    0.3626711085E-02    0.6625189982E-01    0.5512958387E-01    0.6143086699E+00
    0.2100000000E+06    0.6227188351E+00    0.3450462774E-02    0.6622210958E-01    0.5515762486E-01    0.6145954233E+00
    0.2300000000E+06    0.6228873899E+00    0.3298244266E-02    0.6619391538E-01    0.5518148710E-01    0.6148461408E+00
    0.2500000000E+06    0.6230278616E+00    0.3165011085E-02    0.6616718555E-01    0.5520213116E-01    0.6150680215E+00
    0.2700000000E+06    0.6231466743E+00    0.3047091929E-02    0.6614179393E-01    0.5522023661E-01    0.6152663823E+00
    0.2900000000E+06    0.6232484356E+00    0.2941741706E-02    0.6611762430E-01    0.5523629883E-01    0.6154452489E+00
    0.3100000000E+06    0.6233365357E+00    0.2846860629E-02    0.6609457159E-01    0.5525068813E-01    0.6156077348E+00
    0.3300000000E+06    0.6234135240E+00    0.2760811023E-02    0.6607254165E-01    0.5526368742E-01    0.6157562917E+00
    0.3500000000E+06    0.6234813542E+00    0.2682294008E-02    0.6605145044E-01    0.5527551688E-01    0.6158928811E+00
    0.3700000000E+06    0.6235415487E+00    0.2610264215E-02    0.6603122300E-01    0.5528635073E-01    0.6160190938E+00
    0.3900000000E+06    0.6235953109E+00    0.2543869390E-02    0.6601179244E-01    0.5529632879E-01    0.6161362362E+00
    0.4100000000E+06    0.6236436048E+00    0.2482406728E-02    0.6599309896E-01    0.5530556473E-01    0.6162453925E+00
    0.4300000000E+06    0.6236872115E+00    0.2425290711E-02    0.6597508897E-01    0.5531415203E-01    0.6163474715E+00
    0.4500000000E+06    0.6237267704E+00    0.2372029037E-02    0.6595771434E-01    0.5532216835E-01    0.6164432417E+00
    0.4700000000E+06    0.6237628104E+00    0.2322204329E-02    0.6594093172E-01    0.5532967882E-01    0.6165333578E+00
    0.4900000000E+06    0.6237957721E+00    0.2275460055E-02    0.6592470197E-01    0.5533673851E-01    0.6166183821E+00
    0.1000000000E+06    0.6204814003E+00    0.5026425085E-02    0.6640721183E-01    0.5488744274E-01    0.6121537457E+00
    0.3000000000E+06    0.6232940176E+00    0.2893104037E-02    0.6610596446E-01    0.5524368320E-01    0.6155283730E+00
    0.5000000000E+06    0.6238112167E+00    0.2253145552E-02    0.6591678320E-01    0.5534011425E-01    0.6166591393E+00
    0.7000000000E+06    0.6240235606E+00    0.1912545478E-02    0.6578036932E-01    0.5539241568E-01    0.6172964338E+00
    0.9000000000E+06    0.6241371512E+00    0.1692539757E-02    0.6567348559E-01    0.5542755047E-01    0.6177262865E+00
    0.1100000000E+07    0.6242067752E+00    0.1535301809E-02    0.6558548787E-01    0.5545376683E-01    0.6180447211E+00
    0.1300000000E+07    0.6242531512E+00    0.1415651322E-02    0.6551062881E-01    0.5547458198E-01    0.6182946759E+00
    0.1500000000E+07    0.6242858169E+00    0.1320619991E-02    0.6544544991E-01    0.5549179784E-01    0.6184987504E+00
    0.1700000000E+07    0.6243097608E+00    0.1242754690E-02    0.6538770606E-01    0.5550645322E-01    0.6186701799E+00
    0.1900000000E+07    0.6243278379E+00    0.1177425252E-02    0.6533585596E-01    0.5551919851E-01    0.6188173259E+00
    0.2100000000E+07    0.6243417965E+00    0.1121582554E-02    0.6528879500E-01    0.5553046664E-01    0.6189457801E+00
    0.2300000000E+07    0.6243527641E+00    0.1073125386E-02    0.6524570405E-01    0.5554055966E-01    0.6190594508E+00
    0.2500000000E+07    0.6243614992E+00    0.1030552108E-02    0.6520595864E-01    0.5554969638E-01    0.6191611680E+00
    0.2700000000E+07    0.6243685299E+00    0.9927570479E-03    0.6516907162E-01    0.5555804017E-01    0.6192530417E+00
    0.2900000000E+07    0.6243742341E+00    0.9589055386E-03    0.6513465552E-01    0.5556571615E-01    0.6193366835E+00
    0.3100000000E+07    0.6243788893E+00    0.9283540225E-03    0.6510239704E-01    0.5557282220E-01    0.6194133497E+00
    0.3300000000E+07    0.6243827032E+00    0.9005971949E-03    0.6507203919E-01    0.5557943629E-01    0.6194840375E+00
    0.3500000000E+07    0.6243858344E+00    0.8752319912E-03    0.6504336851E-01    0.5558562151E-01    0.6195495501E+00
    0.3700000000E+07    0.6243884054E+00    0.8519324192E-03    0.6501620577E-01    0.5559142961E-01    0.6196105438E+00
    0.3900000000E+07    0.6243905128E+00    0.8304315754E-03    0.6499039897E-01    0.5559690359E-01    0.6196675607E+00
    0.4100000000E+07    0.6243922332E+00    0.8105085400E-03    0.6496581809E-01    0.5560207949E-01    0.6197210537E+00
    0.4300000000E+07    0.6243936282E+00    0.7919786603E-03    0.6494235103E-01    0.5560698787E-01    0.6197714046E+00
    0.4500000000E+07    0.6243947478E+00    0.7746862313E-03    0.6491990047E-01    0.5561165483E-01    0.6198189381E+00
    0.4700000000E+07    0.6243956330E+00    0.7584989067E-03    0.6489838135E-01    0.5561610286E-01    0.6198639324E+00
    0.4900000000E+07    0.6243963176E+00    0.7433033740E-03    0.6487771890E-01    0.5562035144E-01    0.6199066275E+00
    0.1000000000E+07    0.6241757693E+00    0.1608063328E-02    0.6562755792E-01    0.5544149495E-01    0.6178960617E+00
    0.3000000000E+07    0.6243766785E+00    0.9432516168E-03    0.6511827379E-01    0.5556933515E-01    0.6193758211E+00
    0.5000000000E+07    0.6243965938E+00    0.7360464761E-03    0.6486768798E-01    0.5562240634E-01    0.6199271791E+00
    0.7000000000E+07    0.6243964360E+00    0.6250774989E-03    0.6469939380E-01    0.5565622318E-01    0.6202562467E+00
    0.9000000000E+07    0.6243914313E+00    0.5532421766E-03    0.6457235232E-01    0.5568106486E-01    0.6204872761E+00
    0.1100000000E+08    0.6243850698E+00    0.5018513201E-03    0.6447021375E-01    0.5570070045E-01    0.6206637793E+00
    0.1300000000E+08    0.6243784395E+00    0.4627261246E-03    0.6438477189E-01    0.5571693459E-01    0.6208058298E+00
    0.1500000000E+08    0.6243719289E+00    0.4316431861E-03    0.6431131427E-01    0.5573077165E-01    0.6209242611E+00
    0.1700000000E+08    0.6243656793E+00    0.4061713974E-03    0.6424688159E-01    0.5574282823E-01    0.6210255533E+00
    0.1900000000E+08    0.6243597352E+00    0.3847989329E-03    0.6418949262E-01    0.5575351012E-01    0.6211138755E+00
    0.2100000000E+08    0.6243541008E+00    0.3665295253E-03    0.6413775528E-01    0.5576309856E-01    0.6211920611E+00
    0.2300000000E+08    0.6243487633E+00    0.3506763037E-03    0.6409065378E-01    0.5577179650E-01    0.6212621190E+00
    0.2500000000E+08    0.6243437036E+00    0.3367482259E-03    0.6404742407E-01    0.5577975520E-01    0.6213255232E+00
    0.2700000000E+08    0.6243389007E+00    0.3243836458E-03    0.6400747688E-01    0.5578709039E-01    0.6213833856E+00
