  Pressure (Pa) 22mC5-400 (mol/kg) 2mC6-400 (mol/kg) 3mC6-400 (mol/kg) 23mC5-400 (mol/kg) C7-400 (mol/kg)
    0.1000000000E+01    0.1058631671E-02    0.3953391224E-02    0.5245239296E-03    0.7435365542E-03    0.6809325352E-02
    0.3000000000E+01    0.3135359531E-02    0.1148668446E-01    0.1526365399E-02    0.2202157615E-02    0.1981787879E-01
    0.5000000000E+01    0.5160188893E-02    0.1855836584E-01    0.2470040199E-02    0.3624350680E-02    0.3207459748E-01
    0.7000000000E+01    0.7135552422E-02    0.2520768215E-01    0.3360682183E-02    0.5011823039E-02    0.4364574423E-01
    0.9000000000E+01    0.9063728062E-02    0.3146949302E-01    0.4202832465E-02    0.6366173402E-02    0.5458993700E-01
    0.1100000000E+02    0.1094685123E-01    0.3737487619E-01    0.5000522825E-02    0.7688900463E-02    0.6495922404E-01
    0.1300000000E+02    0.1278692587E-01    0.4295163417E-01    0.5757345393E-02    0.8981410655E-02    0.7479998240E-01
    0.1500000000E+02    0.1458583453E-01    0.4822472086E-01    0.6476511190E-02    0.1024502521E-01    0.8415367262E-01
    0.1700000000E+02    0.1634534746E-01    0.5321660240E-01    0.7160899544E-02    0.1148098655E-01    0.9305747595E-01
    0.1900000000E+02    0.1806713093E-01    0.5794756401E-01    0.7813100002E-02    0.1269046415E-01    0.1015448348E+00
    0.2100000000E+02    0.1975275486E-01    0.6243597203E-01    0.8435448035E-02    0.1387455984E-01    0.1096459131E+00
    0.2300000000E+02    0.2140369973E-01    0.6669849863E-01    0.9030055584E-02    0.1503431270E-01    0.1173879904E+00
    0.2500000000E+02    0.2302136289E-01    0.7075031530E-01    0.9598837290E-02    0.1617070347E-01    0.1247957999E+00
    0.2700000000E+02    0.2460706443E-01    0.7460526021E-01    0.1014353312E-01    0.1728465865E-01    0.1318918205E+00
    0.2900000000E+02    0.2616205246E-01    0.7827598332E-01    0.1066572792E-01    0.1837705425E-01    0.1386965290E+00
    0.3100000000E+02    0.2768750800E-01    0.8177407281E-01    0.1116686843E-01    0.1944871919E-01    0.1452286196E+00
    0.3300000000E+02    0.2918454949E-01    0.8511016547E-01    0.1164827808E-01    0.2050043846E-01    0.1515051944E+00
    0.3500000000E+02    0.3065423694E-01    0.8829404349E-01    0.1211116990E-01    0.2153295605E-01    0.1575419308E+00
    0.3700000000E+02    0.3209757570E-01    0.9133471951E-01    0.1255665791E-01    0.2254697759E-01    0.1633532271E+00
    0.3900000000E+02    0.3351552001E-01    0.9424051161E-01    0.1298576702E-01    0.2354317285E-01    0.1689523317E+00
    0.4100000000E+02    0.3490897623E-01    0.9701910965E-01    0.1339944186E-01    0.2452217797E-01    0.1743514561E+00
    0.4300000000E+02    0.3627880587E-01    0.9967763398E-01    0.1379855450E-01    0.2548459765E-01    0.1795618751E+00
    0.4500000000E+02    0.3762582832E-01    0.1022226877E+00    0.1418391138E-01    0.2643100699E-01    0.1845940156E+00
    0.4700000000E+02    0.3895082346E-01    0.1046604032E+00    0.1455625936E-01    0.2736195339E-01    0.1894575350E+00
    0.4900000000E+02    0.4025453403E-01    0.1069964835E+00    0.1491629120E-01    0.2827795818E-01    0.1941613921E+00
    0.1000000000E+02    0.1001079300E-01    0.3446492900E-01    0.4607001058E-02    0.7031399867E-02    0.5984342173E-01
    0.3000000000E+02    0.2692840047E-01    0.8004592137E-01    0.1091884451E-01    0.1891542800E-01    0.1419955474E+00
    0.5000000000E+02    0.4089863011E-01    0.1081280846E+00    0.1509189145E-01    0.2873051365E-01    0.1964560712E+00
    0.7000000000E+02    0.5281864902E-01    0.1265379016E+00    0.1809155496E-01    0.3710636040E-01    0.2357040572E+00
    0.9000000000E+02    0.6324240786E-01    0.1390664494E+00    0.2037307652E-01    0.4443179248E-01    0.2656294254E+00
    0.1100000000E+03    0.7253179222E-01    0.1477787607E+00    0.2218030267E-01    0.5096083141E-01    0.2893898587E+00
    0.1300000000E+03    0.8093409994E-01    0.1538952370E+00    0.2365619733E-01    0.5686707105E-01    0.3088382580E+00
    0.1500000000E+03    0.8862465535E-01    0.1581818665E+00    0.2489044017E-01    0.6227358630E-01    0.3251379064E+00
    0.1700000000E+03    0.9573162379E-01    0.1611422590E+00    0.2594232229E-01    0.6727034952E-01    0.3390585364E+00
    0.1900000000E+03    0.1023511584E+00    0.1631199764E+00    0.2685272806E-01    0.7192486201E-01    0.3511313514E+00
    0.2100000000E+03    0.1085570195E+00    0.1643565628E+00    0.2765083756E-01    0.7628890600E-01    0.3617357861E+00
    0.2300000000E+03    0.1144068944E+00    0.1650261426E+00    0.2835808415E-01    0.8040298041E-01    0.3711507638E+00
    0.2500000000E+03    0.1199466707E+00    0.1652569183E+00    0.2899059868E-01    0.8429930103E-01    0.3795863660E+00
    0.2700000000E+03    0.1252134026E+00    0.1651449997E+00    0.2956077699E-01    0.8800388228E-01    0.3872041563E+00
    0.2900000000E+03    0.1302374148E+00    0.1647635668E+00    0.3007831852E-01    0.9153801416E-01    0.3941306490E+00
    0.3100000000E+03    0.1350438252E+00    0.1641690982E+00    0.3055093368E-01    0.9491933137E-01    0.4004664906E+00
    0.3300000000E+03    0.1396536666E+00    0.1634057006E+00    0.3098483782E-01    0.9816260082E-01    0.4062928720E+00
    0.3500000000E+03    0.1440847273E+00    0.1625081775E+00    0.3138510357E-01    0.1012803112E+00    0.4116761051E+00
    0.3700000000E+03    0.1483521876E+00    0.1615042428E+00    0.3175591700E-01    0.1042831206E+00    0.4166709520E+00
    0.3900000000E+03    0.1524691112E+00    0.1604161431E+00    0.3210076716E-01    0.1071802008E+00    0.4213230886E+00
    0.4100000000E+03    0.1564468269E+00    0.1592618631E+00    0.3242258841E-01    0.1099795057E+00    0.4256709565E+00
    0.4300000000E+03    0.1602952290E+00    0.1580560320E+00    0.3272386884E-01    0.1126879820E+00    0.4297471740E+00
    0.4500000000E+03    0.1640230163E+00    0.1568106151E+00    0.3300673396E-01    0.1153117371E+00    0.4335796246E+00
    0.4700000000E+03    0.1676378838E+00    0.1555354443E+00    0.3327301192E-01    0.1178561735E+00    0.4371923077E+00
    0.4900000000E+03    0.1711466776E+00    0.1542386314E+00    0.3352428503E-01    0.1203260980E+00    0.4406060090E+00
    0.1000000000E+03    0.6801136952E-01    0.1438095136E+00    0.2132540780E-01    0.4778355768E-01    0.2781433172E+00
    0.3000000000E+03    0.1326664209E+00    0.1644899563E+00    0.3031982308E-01    0.9324679217E-01    0.3973669317E+00
    0.5000000000E+03    0.1728632359E+00    0.1535842548E+00    0.3364473227E-01    0.1215344795E+00    0.4422439921E+00
    0.7000000000E+03    0.2028276766E+00    0.1404875514E+00    0.3552246907E-01    0.1426342470E+00    0.4679336751E+00
    0.9000000000E+03    0.2265461550E+00    0.1285776158E+00    0.3677362983E-01    0.1593449488E+00    0.4852434669E+00
    0.1100000000E+04    0.2458693885E+00    0.1182809626E+00    0.3768535396E-01    0.1729660545E+00    0.4979798811E+00
    0.1300000000E+04    0.2618917444E+00    0.1094748096E+00    0.3838828152E-01    0.1842660843E+00    0.5078846802E+00
    0.1500000000E+04    0.2753475546E+00    0.1019383252E+00    0.3895173575E-01    0.1937608327E+00    0.5158868706E+00
    0.1700000000E+04    0.2867646223E+00    0.9545789820E-01    0.3941645903E-01    0.2018211175E+00    0.5225350062E+00
    0.1900000000E+04    0.2965376745E+00    0.8985075040E-01    0.3980821236E-01    0.2087243295E+00    0.5281774320E+00
    0.2100000000E+04    0.3049693787E+00    0.8496661192E-01    0.4014420575E-01    0.2146832170E+00    0.5330478002E+00
    0.2300000000E+04    0.3122958600E+00    0.8068363217E-01    0.4043644171E-01    0.2198637938E+00    0.5373096753E+00
    0.2500000000E+04    0.3187037633E+00    0.7690332473E-01    0.4069358529E-01    0.2243973156E+00    0.5410815571E+00
    0.2700000000E+04    0.3243422135E+00    0.7354595921E-01    0.4092207227E-01    0.2283886755E+00    0.5444517525E+00
    0.2900000000E+04    0.3293314673E+00    0.7054673069E-01    0.4112679763E-01    0.2319224794E+00    0.5474876392E+00
    0.3100000000E+04    0.3337693102E+00    0.6785269139E-01    0.4131156035E-01    0.2350675382E+00    0.5502416668E+00
    0.3300000000E+04    0.3377358626E+00    0.6542033084E-01    0.4147936048E-01    0.2378802433E+00    0.5527553738E+00
    0.3500000000E+04    0.3412972364E+00    0.6321367856E-01    0.4163260318E-01    0.2404071364E+00    0.5550621546E+00
    0.3700000000E+04    0.3445083471E+00    0.6120281753E-01    0.4177324244E-01    0.2426868843E+00    0.5571892111E+00
    0.3900000000E+04    0.3474150946E+00    0.5936271699E-01    0.4190288445E-01    0.2447518128E+00    0.5591589614E+00
    0.4100000000E+04    0.3500560709E+00    0.5767231264E-01    0.4202286338E-01    0.2466291060E+00    0.5609900729E+00
    0.4300000000E+04    0.3524639042E+00    0.5611377849E-01    0.4213429790E-01    0.2483417516E+00    0.5626982361E+00
    0.4500000000E+04    0.3546663269E+00    0.5467194748E-01    0.4223813399E-01    0.2499092923E+00    0.5642967498E+00
    0.4700000000E+04    0.3566870290E+00    0.5333384802E-01    0.4233517771E-01    0.2513484249E+00    0.5657969724E+00
    0.4900000000E+04    0.3585463433E+00    0.5208833115E-01    0.4242612079E-01    0.2526734832E+00    0.5672086724E+00
    0.1000000000E+04    0.2366775886E+00    0.1232306414E+00    0.3726170067E-01    0.1664858132E+00    0.4920472793E+00
    0.3000000000E+04    0.3316139411E+00    0.6916447848E-01    0.4122147084E-01    0.2335398199E+00    0.5488970707E+00
    0.5000000000E+04    0.3594210550E+00    0.5149723013E-01    0.4246949449E-01    0.2532971653E+00    0.5678840136E+00
    0.7000000000E+04    0.3716357259E+00    0.4277517770E-01    0.4312650268E-01    0.2620343113E+00    0.5783037659E+00
    0.9000000000E+04    0.3782796658E+00    0.3745105424E-01    0.4354272983E-01    0.2668214206E+00    0.5851409341E+00
    0.1100000000E+05    0.3823899888E+00    0.3378643210E-01    0.4383389031E-01    0.2698058140E+00    0.5900760833E+00
    0.1300000000E+05    0.3851586315E+00    0.3106708162E-01    0.4405066158E-01    0.2718321177E+00    0.5938577462E+00
    0.1500000000E+05    0.3871389440E+00    0.2894400747E-01    0.4421913695E-01    0.2732933590E+00    0.5968771378E+00
    0.1700000000E+05    0.3886198349E+00    0.2722510617E-01    0.4435426542E-01    0.2743952346E+00    0.5993614631E+00
    0.1900000000E+05    0.3897657957E+00    0.2579509871E-01    0.4446528992E-01    0.2752551494E+00    0.6014529918E+00
    0.2100000000E+05    0.3906769180E+00    0.2458014782E-01    0.4455826289E-01    0.2759447246E+00    0.6032459989E+00
    0.2300000000E+05    0.3914173960E+00    0.2353049517E-01    0.4463732936E-01    0.2765100138E+00    0.6048057801E+00
    0.2500000000E+05    0.3920301936E+00    0.2261121893E-01    0.4470543229E-01    0.2769819213E+00    0.6061791962E+00
    0.2700000000E+05    0.3925450976E+00    0.2179698339E-01    0.4476472405E-01    0.2773819303E+00    0.6074008743E+00
    0.2900000000E+05    0.3929833796E+00    0.2106889392E-01    0.4481681836E-01    0.2777254242E+00    0.6084970347E+00
    0.3100000000E+05    0.3933606182E+00    0.2041252807E-01    0.4486295090E-01    0.2780237003E+00    0.6094879485E+00
    0.3300000000E+05    0.3936884733E+00    0.1981665626E-01    0.4490408520E-01    0.2782852377E+00    0.6103895697E+00
    0.3500000000E+05    0.3939758388E+00    0.1927238369E-01    0.4494098454E-01    0.2785165219E+00    0.6112146510E+00
    0.3700000000E+05    0.3942296121E+00    0.1877255875E-01    0.4497426199E-01    0.2787225970E+00    0.6119735264E+00
    0.3900000000E+05    0.3944552219E+00    0.1831135522E-01    0.4500441610E-01    0.2789074440E+00    0.6126746712E+00
    0.4100000000E+05    0.3946569969E+00    0.1788397097E-01    0.4503185670E-01    0.2790742467E+00    0.6133251116E+00
    0.4300000000E+05    0.3948384298E+00    0.1748640659E-01    0.4505692404E-01    0.2792255811E+00    0.6139307287E+00
    0.4500000000E+05    0.3950023690E+00    0.1711529994E-01    0.4507990312E-01    0.2793635541E+00    0.6144964884E+00
    0.4700000000E+05    0.3951511591E+00    0.1676780068E-01    0.4510103458E-01    0.2794899051E+00    0.6150266168E+00
    0.4900000000E+05    0.3952867479E+00    0.1644147383E-01    0.4512052309E-01    0.2796060832E+00    0.6155247361E+00
    0.1000000000E+05    0.3805546902E+00    0.3546857452E-01    0.4369994286E-01    0.2684703759E+00    0.5877874234E+00
    0.3000000000E+05    0.3931788245E+00    0.2073251057E-01    0.4484056423E-01    0.2778796298E+00    0.6090045642E+00
    0.5000000000E+05    0.3953501120E+00    0.1628558388E-01    0.4512970700E-01    0.2796607454E+00    0.6157627861E+00
    0.7000000000E+05    0.3962089745E+00    0.1389636651E-01    0.4525886593E-01    0.2804334450E+00    0.6194171760E+00
    0.9000000000E+05    0.3966568572E+00    0.1234203858E-01    0.4532875566E-01    0.2808749077E+00    0.6217990392E+00
    0.1100000000E+06    0.3969259576E+00    0.1122512930E-01    0.4537021336E-01    0.2811653867E+00    0.6235124723E+00
    0.1300000000E+06    0.3971021878E+00    0.1037159466E-01    0.4539594767E-01    0.2813737283E+00    0.6248231799E+00
    0.1500000000E+06    0.3972244403E+00    0.9691347158E-02    0.4541216203E-01    0.2815320895E+00    0.6258688935E+00
    0.1700000000E+06    0.3973127807E+00    0.9132385161E-02    0.4542223987E-01    0.2816575832E+00    0.6267291444E+00
    0.1900000000E+06    0.3973785621E+00    0.8662280747E-02    0.4542817780E-01    0.2817601943E+00    0.6274535245E+00
    0.2100000000E+06    0.3974286649E+00    0.8259608384E-02    0.4543122560E-01    0.2818461626E+00    0.6280747924E+00
    0.2300000000E+06    0.3974674877E+00    0.7909560448E-02    0.4543220217E-01    0.2819196005E+00    0.6286155826E+00
    0.2500000000E+06    0.3974979647E+00    0.7601527319E-02    0.4543166399E-01    0.2819833362E+00    0.6290921087E+00
    0.2700000000E+06    0.3975221227E+00    0.7327679085E-02    0.4543000067E-01    0.2820393837E+00    0.6295163340E+00
    0.2900000000E+06    0.3975414031E+00    0.7082092738E-02    0.4542749173E-01    0.2820892189E+00    0.6298973072E+00
    0.3100000000E+06    0.3975568561E+00    0.6860192881E-02    0.4542434193E-01    0.2821339508E+00    0.6302420174E+00
    0.3300000000E+06    0.3975692634E+00    0.6658380907E-02    0.4542070388E-01    0.2821744298E+00    0.6305559614E+00
    0.3500000000E+06    0.3975792175E+00    0.6473781843E-02    0.4541669305E-01    0.2822113205E+00    0.6308435308E+00
    0.3700000000E+06    0.3975871744E+00    0.6304067122E-02    0.4541239790E-01    0.2822451502E+00    0.6311082827E+00
    0.3900000000E+06    0.3975934906E+00    0.6147327719E-02    0.4540788698E-01    0.2822763437E+00    0.6313531335E+00
    0.4100000000E+06    0.3975984476E+00    0.6001981565E-02    0.4540321390E-01    0.2823052468E+00    0.6315805004E+00
    0.4300000000E+06    0.3976022707E+00    0.5866704798E-02    0.4539842092E-01    0.2823321449E+00    0.6317924066E+00
    0.4500000000E+06    0.3976051418E+00    0.5740379905E-02    0.4539354161E-01    0.2823572755E+00    0.6319905601E+00
    0.4700000000E+06    0.3976072091E+00    0.5622056071E-02    0.4538860273E-01    0.2823808381E+00    0.6321764145E+00
    0.4900000000E+06    0.3976085942E+00    0.5510918462E-02    0.4538362579E-01    0.2824030017E+00    0.6323512157E+00
    0.1000000000E+06    0.3968067156E+00    0.1174263110E-01    0.4535202009E-01    0.2810334245E+00    0.6227183693E+00
    0.3000000000E+06    0.3975495540E+00    0.6968426388E-02    0.4542598639E-01    0.2821121646E+00    0.6300738219E+00
    0.5000000000E+06    0.3976090632E+00    0.5457821010E-02    0.4538112859E-01    0.2824136048E+00    0.6324348131E+00
    0.7000000000E+06    0.3975998208E+00    0.4644126077E-02    0.4533195641E-01    0.2825782698E+00    0.6337239239E+00
    0.9000000000E+06    0.3975757405E+00    0.4115620541E-02    0.4528680181E-01    0.2826892481E+00    0.6345715158E+00
    0.1100000000E+07    0.3975484371E+00    0.3736675724E-02    0.4524622466E-01    0.2827722178E+00    0.6351860327E+00
    0.1300000000E+07    0.3975212629E+00    0.3447698106E-02    0.4520969058E-01    0.2828381828E+00    0.6356594518E+00
    0.1500000000E+07    0.3974952761E+00    0.3217826711E-02    0.4517657197E-01    0.2828927973E+00    0.6360396099E+00
    0.1700000000E+07    0.3974707728E+00    0.3029258596E-02    0.4514632522E-01    0.2829393273E+00    0.6363542202E+00
    0.1900000000E+07    0.3974477725E+00    0.2870903617E-02    0.4511850814E-01    0.2829798206E+00    0.6366206181E+00
    0.2100000000E+07    0.3974261937E+00    0.2735443215E-02    0.4509276548E-01    0.2830156418E+00    0.6368502893E+00
    0.2300000000E+07    0.3974059228E+00    0.2617825658E-02    0.4506881105E-01    0.2830477438E+00    0.6370511932E+00
    0.2500000000E+07    0.3973868411E+00    0.2514435797E-02    0.4504641230E-01    0.2830768174E+00    0.6372290471E+00
    0.2700000000E+07    0.3973688361E+00    0.2422608771E-02    0.4502537842E-01    0.2831033787E+00    0.6373880809E+00
    0.2900000000E+07    0.3973518054E+00    0.2340330957E-02    0.4500555125E-01    0.2831278231E+00    0.6375315021E+00
    0.3100000000E+07    0.3973356576E+00    0.2266048508E-02    0.4498679838E-01    0.2831504602E+00    0.6376617944E+00
    0.3300000000E+07    0.3973203115E+00    0.2198540511E-02    0.4496900797E-01    0.2831715366E+00    0.6377809160E+00
    0.3500000000E+07    0.3973056955E+00    0.2136832472E-02    0.4495208475E-01    0.2831912521E+00    0.6378904347E+00
    0.3700000000E+07    0.3972917464E+00    0.2080135794E-02    0.4493594692E-01    0.2832097704E+00    0.6379916234E+00
    0.3900000000E+07    0.3972784082E+00    0.2027804499E-02    0.4492052374E-01    0.2832272277E+00    0.6380855280E+00
    0.4100000000E+07    0.3972656314E+00    0.1979303662E-02    0.4490575365E-01    0.2832437382E+00    0.6381730173E+00
    0.4300000000E+07    0.3972533720E+00    0.1934185988E-02    0.4489158272E-01    0.2832593988E+00    0.6382548198E+00
    0.4500000000E+07    0.3972415906E+00    0.1892074167E-02    0.4487796347E-01    0.2832742922E+00    0.6383315517E+00
    0.4700000000E+07    0.3972302522E+00    0.1852647381E-02    0.4486485389E-01    0.2832884897E+00    0.6384037387E+00
    0.4900000000E+07    0.3972193254E+00    0.1815630868E-02    0.4485221659E-01    0.2833020530E+00    0.6384718319E+00
    0.1000000000E+07    0.3975621962E+00    0.3912150884E-02    0.4526596780E-01    0.2827333636E+00    0.6349006665E+00
    0.3000000000E+07    0.3973436264E+00    0.2302273254E-02    0.4499604794E-01    0.2831393509E+00    0.6375981565E+00
    0.5000000000E+07    0.3972140073E+00    0.1797951145E-02    0.4484606447E-01    0.2833086141E+00    0.6385044674E+00
    0.7000000000E+07    0.3971236727E+00    0.1527458774E-02    0.4474130910E-01    0.2834166656E+00    0.6390141485E+00
    0.9000000000E+07    0.3970544063E+00    0.1352220272E-02    0.4466053314E-01    0.2834961302E+00    0.6393570133E+00
    0.1100000000E+08    0.3969982415E+00    0.1226793043E-02    0.4459468787E-01    0.2835589922E+00    0.6396103458E+00
    0.1300000000E+08    0.3969510083E+00    0.1131268934E-02    0.4453905920E-01    0.2836109965E+00    0.6398087125E+00
    0.1500000000E+08    0.3969102537E+00    0.1055360330E-02    0.4449087222E-01    0.2836553435E+00    0.6399703005E+00
    0.1700000000E+08    0.3968744134E+00    0.9931423211E-03    0.4444835272E-01    0.2836939997E+00    0.6401057538E+00
    0.1900000000E+08    0.3968424286E+00    0.9409289304E-03    0.4441029635E-01    0.2837282597E+00    0.6402217923E+00
    0.2100000000E+08    0.3968135496E+00    0.8962903875E-03    0.4437584745E-01    0.2837590215E+00    0.6403229057E+00
    0.2300000000E+08    0.3967872261E+00    0.8575510634E-03    0.4434437596E-01    0.2837869332E+00    0.6404122294E+00
    0.2500000000E+08    0.3967630421E+00    0.8235127927E-03    0.4431540430E-01    0.2838124783E+00    0.6404920321E+00
    0.2700000000E+08    0.3967406757E+00    0.7932929768E-03    0.4428856173E-01    0.2838360267E+00    0.6405640033E+00
