  Pressure (Pa) 22mC5-400 (mol/kg) 2mC6-400 (mol/kg) 3mC6-400 (mol/kg) 23mC5-400 (mol/kg) C7-400 (mol/kg)
    0.1000000000E+01    0.1061272864E-02    0.2349128989E-02    0.2587353209E-02    0.9317380411E-04    0.1511599700E-01
    0.3000000000E+01    0.3158508929E-02    0.6705878340E-02    0.7340676254E-02    0.2773008077E-03    0.4289771881E-01
    0.5000000000E+01    0.5222836878E-02    0.1066628000E-01    0.1160533791E-01    0.4585405286E-03    0.6783732208E-01
    0.7000000000E+01    0.7255226681E-02    0.1428859249E-01    0.1545389101E-01    0.6369780588E-03    0.9035612422E-01
    0.9000000000E+01    0.9256609313E-02    0.1761984950E-01    0.1894515878E-01    0.8126950700E-03    0.1107957762E+00
    0.1100000000E+02    0.1122787871E-01    0.2069844102E-01    0.2212733870E-01    0.9857699846E-03    0.1294362643E+00
    0.1300000000E+02    0.1316989361E-01    0.2355601593E-01    0.2504030054E-01    0.1156278137E-02    0.1465092395E+00
    0.1500000000E+02    0.1508347927E-01    0.2621890489E-01    0.2771731253E-01    0.1324291925E-02    0.1622080316E+00
    0.1700000000E+02    0.1696942909E-01    0.2870919847E-01    0.3018635517E-01    0.1489880953E-02    0.1766952710E+00
    0.1900000000E+02    0.1882850618E-01    0.3104557389E-01    0.3247113310E-01    0.1653112166E-02    0.1901087607E+00
    0.2100000000E+02    0.2066144476E-01    0.3324393599E-01    0.3459186310E-01    0.1814049977E-02    0.2025660485E+00
    0.2300000000E+02    0.2246895155E-01    0.3531791931E-01    0.3656589391E-01    0.1972756385E-02    0.2141680242E+00
    0.2500000000E+02    0.2425170705E-01    0.3727928487E-01    0.3840819830E-01    0.2129291090E-02    0.2250017763E+00
    0.2700000000E+02    0.2601036677E-01    0.3913823669E-01    0.4013176717E-01    0.2283711600E-02    0.2351428791E+00
    0.2900000000E+02    0.2774556234E-01    0.4090367614E-01    0.4174792766E-01    0.2436073327E-02    0.2446572399E+00
    0.3100000000E+02    0.2945790264E-01    0.4258340800E-01    0.4326660177E-01    0.2586429687E-02    0.2536026005E+00
    0.3300000000E+02    0.3114797479E-01    0.4418430846E-01    0.4469651827E-01    0.2734832190E-02    0.2620297674E+00
    0.3500000000E+02    0.3281634513E-01    0.4571246313E-01    0.4604538723E-01    0.2881330521E-02    0.2699836260E+00
    0.3700000000E+02    0.3446356017E-01    0.4717328096E-01    0.4732004483E-01    0.3025972625E-02    0.2775039811E+00
    0.3900000000E+02    0.3609014742E-01    0.4857158899E-01    0.4852657411E-01    0.3168804781E-02    0.2846262586E+00
    0.4100000000E+02    0.3769661622E-01    0.4991171142E-01    0.4967040615E-01    0.3309871676E-02    0.2913820931E+00
    0.4300000000E+02    0.3928345855E-01    0.5119753610E-01    0.5075640546E-01    0.3449216470E-02    0.2977998244E+00
    0.4500000000E+02    0.4085114975E-01    0.5243257058E-01    0.5178894217E-01    0.3586880866E-02    0.3039049164E+00
    0.4700000000E+02    0.4240014923E-01    0.5361998971E-01    0.5277195350E-01    0.3722905169E-02    0.3097203147E+00
    0.4900000000E+02    0.4393090114E-01    0.5476267610E-01    0.5370899622E-01    0.3857328346E-02    0.3152667514E+00
    0.1000000000E+02    0.1024595369E-01    0.1918861103E-01    0.2057222025E-01    0.8995580104E-03    0.1203254356E+00
    0.3000000000E+02    0.2860455221E-01    0.4175380574E-01    0.4251887920E-01    0.2511498915E-02    0.2491977201E+00
    0.5000000000E+02    0.4468956903E-01    0.5531807405E-01    0.5416129803E-01    0.3923951336E-02    0.3179450478E+00
    0.7000000000E+02    0.5900232121E-01    0.6460661381E-01    0.6143482739E-01    0.5180896515E-02    0.3611279448E+00
    0.9000000000E+02    0.7190189341E-01    0.7137846886E-01    0.6643771549E-01    0.6313838408E-02    0.3909874149E+00
    0.1100000000E+03    0.8365262408E-01    0.7648552941E-01    0.7010427296E-01    0.7345969159E-02    0.4129842774E+00
    0.1300000000E+03    0.9445370599E-01    0.8041150681E-01    0.7291521653E-01    0.8294765707E-02    0.4299333599E+00
    0.1500000000E+03    0.1044583044E+00    0.8346065898E-01    0.7514386060E-01    0.9173666910E-02    0.4434379590E+00
    0.1700000000E+03    0.1137862882E+00    0.8583805004E-01    0.7695744065E-01    0.9993190427E-02    0.4544808681E+00
    0.1900000000E+03    0.1225329377E+00    0.8768878952E-01    0.7846421935E-01    0.1076169657E-01    0.4636994530E+00
    0.2100000000E+03    0.1307750393E+00    0.8911930851E-01    0.7973748556E-01    0.1148592309E-01    0.4715259469E+00
    0.2300000000E+03    0.1385752438E+00    0.9020983697E-01    0.8082868752E-01    0.1217136743E-01    0.4782643079E+00
    0.2500000000E+03    0.1459852376E+00    0.9102217673E-01    0.8177504543E-01    0.1282256507E-01    0.4841348182E+00
    0.2700000000E+03    0.1530480921E+00    0.9160477859E-01    0.8260417809E-01    0.1344329552E-01    0.4893012184E+00
    0.2900000000E+03    0.1598000279E+00    0.9199618593E-01    0.8333702874E-01    0.1403673721E-01    0.4938878852E+00
    0.3100000000E+03    0.1662717594E+00    0.9222744314E-01    0.8398977877E-01    0.1460558542E-01    0.4979910795E+00
    0.3300000000E+03    0.1724895315E+00    0.9232382310E-01    0.8457513652E-01    0.1515214323E-01    0.5016865289E+00
    0.3500000000E+03    0.1784759282E+00    0.9230609277E-01    0.8510322740E-01    0.1567839250E-01    0.5050346705E+00
    0.3700000000E+03    0.1842505101E+00    0.9219145744E-01    0.8558222257E-01    0.1618604977E-01    0.5080843577E+00
    0.3900000000E+03    0.1898303215E+00    0.9199427613E-01    0.8601879179E-01    0.1667661081E-01    0.5108755330E+00
    0.4100000000E+03    0.1952302979E+00    0.9172661122E-01    0.8641843538E-01    0.1715138629E-01    0.5134411894E+00
    0.4300000000E+03    0.2004635953E+00    0.9139865573E-01    0.8678573149E-01    0.1761153075E-01    0.5158088329E+00
    0.4500000000E+03    0.2055418593E+00    0.9101906917E-01    0.8712452291E-01    0.1805806619E-01    0.5180015885E+00
    0.4700000000E+03    0.2104754458E+00    0.9059524398E-01    0.8743806002E-01    0.1849190142E-01    0.5200390476E+00
    0.4900000000E+03    0.2152736037E+00    0.9013351893E-01    0.8772911151E-01    0.1891384814E-01    0.5219379246E+00
    0.1000000000E+03    0.7790715033E-01    0.7410425509E-01    0.6840132255E-01    0.6841301971E-02    0.4027538135E+00
    0.3000000000E+03    0.1630691846E+00    0.9213013516E-01    0.8367255263E-01    0.1432408328E-01    0.4959947727E+00
    0.5000000000E+03    0.2176245226E+00    0.8989017974E-01    0.8786696037E-01    0.1912059372E-01    0.5228399603E+00
    0.7000000000E+03    0.2591605545E+00    0.8402171069E-01    0.8987397239E-01    0.2277420030E-01    0.5362158937E+00
    0.9000000000E+03    0.2930171298E+00    0.7758930899E-01    0.9105905752E-01    0.2575352725E-01    0.5444132486E+00
    0.1100000000E+04    0.3215647146E+00    0.7142219476E-01    0.9184301556E-01    0.2826660979E-01    0.5500291156E+00
    0.1300000000E+04    0.3461114757E+00    0.6575886034E-01    0.9240012661E-01    0.3042825687E-01    0.5541554504E+00
    0.1500000000E+04    0.3674880803E+00    0.6064575709E-01    0.9281607391E-01    0.3231137449E-01    0.5573368564E+00
    0.1700000000E+04    0.3862736981E+00    0.5606127272E-01    0.9313805234E-01    0.3396679980E-01    0.5598774840E+00
    0.1900000000E+04    0.4028983416E+00    0.5196042099E-01    0.9339426015E-01    0.3543228207E-01    0.5619615183E+00
    0.2100000000E+04    0.4176951596E+00    0.4829237975E-01    0.9360261064E-01    0.3673707133E-01    0.5637075086E+00
    0.2300000000E+04    0.4309299140E+00    0.4500758362E-01    0.9377504244E-01    0.3790450465E-01    0.5651954812E+00
    0.2500000000E+04    0.4428190146E+00    0.4206047050E-01    0.9391982513E-01    0.3895358839E-01    0.5664815652E+00
    0.2700000000E+04    0.4535413319E+00    0.3941033406E-01    0.9404287153E-01    0.3990003445E-01    0.5676063857E+00
    0.2900000000E+04    0.4632463760E+00    0.3702134139E-01    0.9414852312E-01    0.4075697780E-01    0.5686001294E+00
    0.3100000000E+04    0.4720602164E+00    0.3486219630E-01    0.9424004042E-01    0.4153549576E-01    0.5694857324E+00
    0.3300000000E+04    0.4800899158E+00    0.3290567296E-01    0.9431992018E-01    0.4224499702E-01    0.5702809590E+00
    0.3500000000E+04    0.4874269415E+00    0.3112812535E-01    0.9439010687E-01    0.4289352095E-01    0.5709997989E+00
    0.3700000000E+04    0.4941498443E+00    0.2950902066E-01    0.9445213746E-01    0.4348797263E-01    0.5716534310E+00
    0.3900000000E+04    0.5003263940E+00    0.2803051628E-01    0.9450724288E-01    0.4403431029E-01    0.5722509043E+00
    0.4100000000E+04    0.5060153056E+00    0.2667708657E-01    0.9455642055E-01    0.4453769680E-01    0.5727996281E+00
    0.4300000000E+04    0.5112676457E+00    0.2543519835E-01    0.9460048723E-01    0.4500262312E-01    0.5733057324E+00
    0.4500000000E+04    0.5161279898E+00    0.2429303142E-01    0.9464011806E-01    0.4543300988E-01    0.5737743355E+00
    0.4700000000E+04    0.5206353798E+00    0.2324023917E-01    0.9467587595E-01    0.4583229149E-01    0.5742097476E+00
    0.4900000000E+04    0.5248241215E+00    0.2226774405E-01    0.9470823391E-01    0.4620348612E-01    0.5746156260E+00
    0.1000000000E+04    0.3078574887E+00    0.7445072445E-01    0.9148723396E-01    0.2705983111E-01    0.5474568461E+00
    0.3000000000E+04    0.4677576039E+00    0.3591482912E-01    0.9419587748E-01    0.4115541668E-01    0.5690552359E+00
    0.5000000000E+04    0.5268085912E+00    0.2180907473E-01    0.9472326548E-01    0.4637939481E-01    0.5748084846E+00
    0.7000000000E+04    0.5554801230E+00    0.1535306164E-01    0.9491645808E-01    0.4892565705E-01    0.5776795467E+00
    0.9000000000E+04    0.5718486705E+00    0.1184011766E-01    0.9500001334E-01    0.5038540863E-01    0.5794620276E+00
    0.1100000000E+05    0.5822477927E+00    0.9688131669E-02    0.9503600941E-01    0.5131692388E-01    0.5807029094E+00
    0.1300000000E+05    0.5893666091E+00    0.8254249178E-02    0.9504807789E-01    0.5195755470E-01    0.5816300887E+00
    0.1500000000E+05    0.5945133743E+00    0.7237714622E-02    0.9504698388E-01    0.5242293067E-01    0.5823569756E+00
    0.1700000000E+05    0.5983918806E+00    0.6482143991E-02    0.9503823419E-01    0.5277534358E-01    0.5829469843E+00
    0.1900000000E+05    0.6014109913E+00    0.5899330781E-02    0.9502488296E-01    0.5305103356E-01    0.5834386356E+00
    0.2100000000E+05    0.6038230364E+00    0.5436218003E-02    0.9500872690E-01    0.5327239933E-01    0.5838568277E+00
    0.2300000000E+05    0.6057915141E+00    0.5059187231E-02    0.9499087074E-01    0.5345397608E-01    0.5842184505E+00
    0.2500000000E+05    0.6074266883E+00    0.4746003466E-02    0.9497201683E-01    0.5360558153E-01    0.5845354132E+00
    0.2700000000E+05    0.6088054494E+00    0.4481422670E-02    0.9495262308E-01    0.5373407262E-01    0.5848163839E+00
    0.2900000000E+05    0.6099829560E+00    0.4254669923E-02    0.9493299353E-01    0.5384437610E-01    0.5850678409E+00
    0.3100000000E+05    0.6109997497E+00    0.4057926901E-02    0.9491333252E-01    0.5394011897E-01    0.5852947352E+00
    0.3300000000E+05    0.6118862626E+00    0.3885390019E-02    0.9489377824E-01    0.5402402824E-01    0.5855009247E+00
    0.3500000000E+05    0.6126657625E+00    0.3732664545E-02    0.9487442411E-01    0.5409819238E-01    0.5856894656E+00
    0.3700000000E+05    0.6133563309E+00    0.3596363556E-02    0.9485533275E-01    0.5416423704E-01    0.5858628149E+00
    0.3900000000E+05    0.6139722231E+00    0.3473835723E-02    0.9483654532E-01    0.5422344602E-01    0.5860229735E+00
    0.4100000000E+05    0.6145248233E+00    0.3362976353E-02    0.9481808790E-01    0.5427684629E-01    0.5861715895E+00
    0.4300000000E+05    0.6150233290E+00    0.3262093577E-02    0.9479997584E-01    0.5432526898E-01    0.5863100348E+00
    0.4500000000E+05    0.6154752494E+00    0.3169811864E-02    0.9478221688E-01    0.5436939378E-01    0.5864394617E+00
    0.4700000000E+05    0.6158867735E+00    0.3085001294E-02    0.9476481334E-01    0.5440978189E-01    0.5865608461E+00
    0.4900000000E+05    0.6162630468E+00    0.3006724962E-02    0.9474776363E-01    0.5444690068E-01    0.5866750213E+00
    0.1000000000E+05    0.5775791280E+00    0.1064603639E-01    0.9502202645E-01    0.5089820111E-01    0.5801319865E+00
    0.3000000000E+05    0.6105093434E+00    0.4152948797E-02    0.9492315706E-01    0.5389387966E-01    0.5851840956E+00
    0.5000000000E+05    0.6164393398E+00    0.2969787163E-02    0.9473937021E-01    0.5446435919E-01    0.5867296332E+00
    0.7000000000E+05    0.6188684839E+00    0.2437262987E-02    0.9458833301E-01    0.5471070746E-01    0.5875740891E+00
    0.9000000000E+05    0.6201846041E+00    0.2120047653E-02    0.9446339575E-01    0.5485106248E-01    0.5881345667E+00
    0.1100000000E+06    0.6210086594E+00    0.1903631128E-02    0.9435737569E-01    0.5494326777E-01    0.5885457416E+00
    0.1300000000E+06    0.6215725995E+00    0.1743751703E-02    0.9426540937E-01    0.5500933915E-01    0.5888664372E+00
    0.1500000000E+06    0.6219825208E+00    0.1619311333E-02    0.9418422980E-01    0.5505953291E-01    0.5891271182E+00
    0.1700000000E+06    0.6222937741E+00    0.1518821614E-02    0.9411157142E-01    0.5509929656E-01    0.5893454149E+00
    0.1900000000E+06    0.6225380457E+00    0.1435422096E-02    0.9404580838E-01    0.5513180400E-01    0.5895323648E+00
    0.2100000000E+06    0.6227347769E+00    0.1364728535E-02    0.9398573758E-01    0.5515903650E-01    0.5896952953E+00
    0.2300000000E+06    0.6228965549E+00    0.1303789704E-02    0.9393044496E-01    0.5518229887E-01    0.5898392978E+00
    0.2500000000E+06    0.6230318874E+00    0.1250535663E-02    0.9387922023E-01    0.5520248786E-01    0.5899680414E+00
    0.2700000000E+06    0.6231467308E+00    0.1203465402E-02    0.9383150070E-01    0.5522024174E-01    0.5900842504E+00
    0.2900000000E+06    0.6232453795E+00    0.1161460043E-02    0.9378683308E-01    0.5523602817E-01    0.5901899982E+00
    0.3100000000E+06    0.6233310075E+00    0.1123665992E-02    0.9374484691E-01    0.5525019837E-01    0.5902868966E+00
    0.3300000000E+06    0.6234060112E+00    0.1089419034E-02    0.9370523548E-01    0.5526302170E-01    0.5903762217E+00
    0.3500000000E+06    0.6234722338E+00    0.1058193423E-02    0.9366774204E-01    0.5527470858E-01    0.5904589990E+00
    0.3700000000E+06    0.6235311160E+00    0.1029566772E-02    0.9363214949E-01    0.5528542600E-01    0.5905360647E+00
    0.3900000000E+06    0.6235838004E+00    0.1003195263E-02    0.9359827258E-01    0.5529530838E-01    0.5906081085E+00
    0.4100000000E+06    0.6236312044E+00    0.9787957667E-03    0.9356595202E-01    0.5530446530E-01    0.5906757057E+00
    0.4300000000E+06    0.6236740734E+00    0.9561327020E-03    0.9353504976E-01    0.5531298705E-01    0.5907393407E+00
    0.4500000000E+06    0.6237130189E+00    0.9350082165E-03    0.9350544545E-01    0.5532094884E-01    0.5907994247E+00
    0.4700000000E+06    0.6237485476E+00    0.9152547433E-03    0.9347703346E-01    0.5532841384E-01    0.5908563099E+00
    0.4900000000E+06    0.6237810828E+00    0.8967292778E-03    0.9344972063E-01    0.5533543557E-01    0.5909102999E+00
    0.1000000000E+06    0.6206391829E+00    0.2002819754E-02    0.9440837137E-01    0.5490139307E-01    0.5883541778E+00
    0.3000000000E+06    0.6232896562E+00    0.1142081865E-02    0.9376552530E-01    0.5524329686E-01    0.5902394671E+00
    0.5000000000E+06    0.6237963414E+00    0.8878879589E-03    0.9343645021E-01    0.5533879475E-01    0.5909362929E+00
    0.7000000000E+06    0.6240071193E+00    0.7531067476E-03    0.9321284179E-01    0.5539095600E-01    0.5913530382E+00
    0.9000000000E+06    0.6241207797E+00    0.6661994439E-03    0.9304301252E-01    0.5542609599E-01    0.5916464950E+00
    0.1100000000E+07    0.6241908699E+00    0.6041510082E-03    0.9290594448E-01    0.5545235294E-01    0.5918713432E+00
    0.1300000000E+07    0.6242377971E+00    0.5569675559E-03    0.9279097060E-01    0.5547321638E-01    0.5920527835E+00
    0.1500000000E+07    0.6242710063E+00    0.5195109513E-03    0.9269192078E-01    0.5549047996E-01    0.5922044189E+00
    0.1700000000E+07    0.6242954579E+00    0.4888317239E-03    0.9260490040E-01    0.5550517997E-01    0.5923343912E+00
    0.1900000000E+07    0.6243140006E+00    0.4630991537E-03    0.9252729175E-01    0.5551796621E-01    0.5924479440E+00
    0.2100000000E+07    0.6243283835E+00    0.4411084584E-03    0.9245724984E-01    0.5552927169E-01    0.5925486445E+00
    0.2300000000E+07    0.6243397379E+00    0.4220298453E-03    0.9239342504E-01    0.5553939876E-01    0.5926390245E+00
    0.2500000000E+07    0.6243488261E+00    0.4052705569E-03    0.9233480001E-01    0.5554856657E-01    0.5927209440E+00
    0.2700000000E+07    0.6243561801E+00    0.3903943006E-03    0.9228058875E-01    0.5555693884E-01    0.5927958075E+00
    0.2900000000E+07    0.6243621816E+00    0.3770718217E-03    0.9223017131E-01    0.5556464099E-01    0.5928647007E+00
    0.3100000000E+07    0.6243671109E+00    0.3650493214E-03    0.9218305002E-01    0.5557177119E-01    0.5929284797E+00
    0.3300000000E+07    0.6243711786E+00    0.3541275693E-03    0.9213881926E-01    0.5557840763E-01    0.5929878308E+00
    0.3500000000E+07    0.6243745454E+00    0.3441476784E-03    0.9209714411E-01    0.5558461360E-01    0.5930433126E+00
    0.3700000000E+07    0.6243773361E+00    0.3349811663E-03    0.9205774473E-01    0.5559044105E-01    0.5930953854E+00
    0.3900000000E+07    0.6243796486E+00    0.3265228562E-03    0.9202038494E-01    0.5559593310E-01    0.5931444330E+00
    0.4100000000E+07    0.6243815613E+00    0.3186857044E-03    0.9198486356E-01    0.5560112594E-01    0.5931907786E+00
    0.4300000000E+07    0.6243831369E+00    0.3113969658E-03    0.9195100784E-01    0.5560605022E-01    0.5932346968E+00
    0.4500000000E+07    0.6243844266E+00    0.3045953072E-03    0.9191866829E-01    0.5561073217E-01    0.5932764227E+00
    0.4700000000E+07    0.6243854723E+00    0.2982286017E-03    0.9188771473E-01    0.5561519434E-01    0.5933161593E+00
    0.4900000000E+07    0.6243863089E+00    0.2922522240E-03    0.9185803306E-01    0.5561945630E-01    0.5933540832E+00
    0.1000000000E+07    0.6241596094E+00    0.6328575322E-03    0.9297119594E-01    0.5544005883E-01    0.5917655325E+00
    0.3000000000E+07    0.6243647657E+00    0.3709116129E-03    0.9220622587E-01    0.5556827230E-01    0.5928971832E+00
    0.5000000000E+07    0.6243866579E+00    0.2893981794E-03    0.9184363730E-01    0.5562151762E-01    0.5933724142E+00
    0.7000000000E+07    0.6243876454E+00    0.2457616352E-03    0.9160333840E-01    0.5565543530E-01    0.5936728307E+00
    0.9000000000E+07    0.6243834111E+00    0.2175191934E-03    0.9142329394E-01    0.5568034476E-01    0.5938917618E+00
    0.1100000000E+08    0.6243776141E+00    0.1973168356E-03    0.9127925863E-01    0.5570002999E-01    0.5940636256E+00
    0.1300000000E+08    0.6243714211E+00    0.1819373149E-03    0.9115920184E-01    0.5571630254E-01    0.5942048876E+00
    0.1500000000E+08    0.6243652624E+00    0.1697196366E-03    0.9105626925E-01    0.5573017049E-01    0.5943246867E+00
    0.1700000000E+08    0.6243593044E+00    0.1597078231E-03    0.9096618187E-01    0.5574225263E-01    0.5944286147E+00
    0.1900000000E+08    0.6243536070E+00    0.1513074460E-03    0.9088608814E-01    0.5575295614E-01    0.5945203388E+00
    0.2100000000E+08    0.6243481851E+00    0.1441268183E-03    0.9081399198E-01    0.5576256319E-01    0.5946023921E+00
    0.2300000000E+08    0.6243430332E+00    0.1378959110E-03    0.9074844146E-01    0.5577127736E-01    0.5946765965E+00
    0.2500000000E+08    0.6243381374E+00    0.1324216908E-03    0.9068834733E-01    0.5577925038E-01    0.5947443058E+00
    0.2700000000E+08    0.6243334807E+00    0.1275619971E-03    0.9063287150E-01    0.5578659834E-01    0.5948065529E+00
