  Pressure (Pa) 22mC5-400 (mol/kg) 2mC6-400 (mol/kg) 3mC6-400 (mol/kg) 23mC5-400 (mol/kg) C7-400 (mol/kg)
    0.1000000000E+01    0.1055586076E-02    0.7868157631E-02    0.2088535167E-02    0.9267476743E-04    0.5083810431E-02
    0.3000000000E+01    0.3109086266E-02    0.2265065889E-01    0.6025766435E-02    0.2729637596E-03    0.1467013148E-01
    0.5000000000E+01    0.5090168578E-02    0.3628242309E-01    0.9674548028E-02    0.4468982535E-03    0.2355723536E-01
    0.7000000000E+01    0.7003761005E-02    0.4888980165E-01    0.1306745037E-01    0.6149106185E-03    0.3182396824E-01
    0.9000000000E+01    0.8854336013E-02    0.6058109852E-01    0.1623225002E-01    0.7773932605E-03    0.3953757956E-01
    0.1100000000E+02    0.1064596276E-01    0.7144971780E-01    0.1919278450E-01    0.9347032027E-03    0.4675578885E-01
    0.1300000000E+02    0.1238235226E-01    0.8157666919E-01    0.2196963005E-01    0.1087166046E-02    0.5352842488E-01
    0.1500000000E+02    0.1406689651E-01    0.9103257999E-01    0.2458064390E-01    0.1235079407E-02    0.5989873696E-01
    0.1700000000E+02    0.1570270266E-01    0.9987932413E-01    0.2704140157E-01    0.1378715906E-02    0.6590445256E-01
    0.1900000000E+02    0.1729262273E-01    0.1081713512E+00    0.2936555213E-01    0.1518325786E-02    0.7157863676E-01
    0.2100000000E+02    0.1883927974E-01    0.1159567785E+00    0.3156510903E-01    0.1654139194E-02    0.7695039559E-01
    0.2300000000E+02    0.2034509067E-01    0.1232782939E+00    0.3365068952E-01    0.1786368202E-02    0.8204545542E-01
    0.2500000000E+02    0.2181228658E-01    0.1301739077E+00    0.3563171323E-01    0.1915208570E-02    0.8688664318E-01
    0.2700000000E+02    0.2324293056E-01    0.1366775812E+00    0.3751656757E-01    0.2040841321E-02    0.9149428671E-01
    0.2900000000E+02    0.2463893348E-01    0.1428197567E+00    0.3931274643E-01    0.2163434124E-02    0.9588655034E-01
    0.3100000000E+02    0.2600206808E-01    0.1486278049E+00    0.4102696703E-01    0.2283142525E-02    0.1000797176E+00
    0.3300000000E+02    0.2733398144E-01    0.1541264054E+00    0.4266526880E-01    0.2400111050E-02    0.1040884307E+00
    0.3500000000E+02    0.2863620615E-01    0.1593378719E+00    0.4423309751E-01    0.2514474177E-02    0.1079258938E+00
    0.3700000000E+02    0.2991017033E-01    0.1642824306E+00    0.4573537712E-01    0.2626357217E-02    0.1116040473E+00
    0.3900000000E+02    0.3115720649E-01    0.1689784601E+00    0.4717657135E-01    0.2735877094E-02    0.1151337166E+00
    0.4100000000E+02    0.3237855964E-01    0.1734426991E+00    0.4856073679E-01    0.2843143055E-02    0.1185247409E+00
    0.4300000000E+02    0.3357539446E-01    0.1776904254E+00    0.4989156869E-01    0.2948257299E-02    0.1217860839E+00
    0.4500000000E+02    0.3474880186E-01    0.1817356134E+00    0.5117244076E-01    0.3051315550E-02    0.1249259302E+00
    0.4700000000E+02    0.3589980482E-01    0.1855910701E+00    0.5240643974E-01    0.3152407574E-02    0.1279517689E+00
    0.4900000000E+02    0.3702936374E-01    0.1892685551E+00    0.5359639563E-01    0.3251617645E-02    0.1308704670E+00
    0.1000000000E+02    0.9757278074E-02    0.6611291494E-01    0.1773669489E-01    0.8566737752E-03    0.4320532699E-01
    0.3000000000E+02    0.2532450357E-01    0.1457639453E+00    0.4017970921E-01    0.2223639596E-02    0.9800706997E-01
    0.5000000000E+02    0.3758638590E-01    0.1910439729E+00    0.5417567816E-01    0.3300541888E-02    0.1322916301E+00
    0.7000000000E+02    0.4779386029E-01    0.2194234938E+00    0.6398017953E-01    0.4197146400E-02    0.1563791737E+00
    0.9000000000E+02    0.5661532313E-01    0.2382954528E+00    0.7136542453E-01    0.4972106168E-02    0.1745722360E+00
    0.1100000000E+03    0.6444442448E-01    0.2513288823E+00    0.7720954696E-01    0.5659966404E-02    0.1890049497E+00
    0.1300000000E+03    0.7153024715E-01    0.2605477764E+00    0.8200121326E-01    0.6282586597E-02    0.2008661038E+00
    0.1500000000E+03    0.7803933359E-01    0.2671567150E+00    0.8603601907E-01    0.6854583057E-02    0.2108754887E+00
    0.1700000000E+03    0.8408801485E-01    0.2719149626E+00    0.8950439931E-01    0.7386165729E-02    0.2194972531E+00
    0.1900000000E+03    0.8976048720E-01    0.2753231452E+00    0.9253524116E-01    0.7884724435E-02    0.2270458174E+00
    0.2100000000E+03    0.9511950829E-01    0.2777235684E+00    0.9521930417E-01    0.8355767508E-02    0.2337427839E+00
    0.2300000000E+03    0.1002130285E+00    0.2793574002E+00    0.9762261524E-01    0.8803503723E-02    0.2397495041E+00
    0.2500000000E+03    0.1050784661E+00    0.2803988723E+00    0.9979453421E-01    0.9231217496E-02    0.2451866998E+00
    0.2700000000E+03    0.1097455571E+00    0.2809765738E+00    0.1017728230E+00    0.9641518979E-02    0.2501468025E+00
    0.2900000000E+03    0.1142383100E+00    0.2811871655E+00    0.1035869488E+00    0.1003651561E-01    0.2547019974E+00
    0.3100000000E+03    0.1185763807E+00    0.2811044751E+00    0.1052603049E+00    0.1041793281E-01    0.2589096347E+00
    0.3300000000E+03    0.1227760612E+00    0.2807856824E+00    0.1068117442E+00    0.1078720070E-01    0.2628159684E+00
    0.3500000000E+03    0.1268510041E+00    0.2802756215E+00    0.1082566632E+00    0.1114551775E-01    0.2664588004E+00
    0.3700000000E+03    0.1308127632E+00    0.2796098315E+00    0.1096077848E+00    0.1149389821E-01    0.2698693914E+00
    0.3900000000E+03    0.1346712034E+00    0.2788167584E+00    0.1108757341E+00    0.1183320804E-01    0.2730738654E+00
    0.4100000000E+03    0.1384348151E+00    0.2779193695E+00    0.1120694688E+00    0.1216419260E-01    0.2760942620E+00
    0.4300000000E+03    0.1421109593E+00    0.2769363532E+00    0.1131966054E+00    0.1248749807E-01    0.2789493338E+00
    0.4500000000E+03    0.1457060606E+00    0.2758830239E+00    0.1142636707E+00    0.1280368845E-01    0.2816551614E+00
    0.4700000000E+03    0.1492257604E+00    0.2747720098E+00    0.1152762977E+00    0.1311325899E-01    0.2842256313E+00
    0.4900000000E+03    0.1526750407E+00    0.2736137843E+00    0.1162393791E+00    0.1341664702E-01    0.2866728134E+00
    0.1000000000E+03    0.6063589169E-01    0.2453898427E+00    0.7444354081E-01    0.5325341673E-02    0.1821696605E+00
    0.3000000000E+03    0.1164255931E+00    0.2811785744E+00    0.1044399528E+00    0.1022882618E-01    0.2568461451E+00
    0.5000000000E+03    0.1543746748E+00    0.2730197543E+00    0.1167036975E+00    0.1356614562E-01    0.2878535218E+00
    0.7000000000E+03    0.1855239726E+00    0.2601566100E+00    0.1241913895E+00    0.1630647532E-01    0.3069781657E+00
    0.9000000000E+03    0.2126576586E+00    0.2471890336E+00    0.1294840983E+00    0.1869422752E-01    0.3206023234E+00
    0.1100000000E+04    0.2369372416E+00    0.2350185345E+00    0.1335259854E+00    0.2083136059E-01    0.3310739762E+00
    0.1300000000E+04    0.2589779065E+00    0.2238032338E+00    0.1367648832E+00    0.2277186973E-01    0.3395119945E+00
    0.1500000000E+04    0.2791578477E+00    0.2135140362E+00    0.1394474188E+00    0.2454894508E-01    0.3465350078E+00
    0.1700000000E+04    0.2977354138E+00    0.2040744851E+00    0.1417233944E+00    0.2618525673E-01    0.3525200951E+00
    0.1900000000E+04    0.3149015169E+00    0.1954011786E+00    0.1436903542E+00    0.2769755611E-01    0.3577135704E+00
    0.2100000000E+04    0.3308058528E+00    0.1874157747E+00    0.1454152085E+00    0.2909897807E-01    0.3622848821E+00
    0.2300000000E+04    0.3455711189E+00    0.1800480338E+00    0.1469457509E+00    0.3040028889E-01    0.3663553906E+00
    0.2500000000E+04    0.3593012152E+00    0.1732359472E+00    0.1483172455E+00    0.3161060622E-01    0.3700148654E+00
    0.2700000000E+04    0.3720862229E+00    0.1669249762E+00    0.1495564127E+00    0.3273783592E-01    0.3733314864E+00
    0.2900000000E+04    0.3840055673E+00    0.1610671054E+00    0.1506839537E+00    0.3378894951E-01    0.3763581930E+00
    0.3100000000E+04    0.3951301144E+00    0.1556199414E+00    0.1517162113E+00    0.3477016816E-01    0.3791368669E+00
    0.3300000000E+04    0.4055236227E+00    0.1505459272E+00    0.1526662982E+00    0.3568708986E-01    0.3817011794E+00
    0.3500000000E+04    0.4152437910E+00    0.1458116749E+00    0.1535448843E+00    0.3654478133E-01    0.3840785815E+00
    0.3700000000E+04    0.4243430481E+00    0.1413874072E+00    0.1543607594E+00    0.3734784719E-01    0.3862917293E+00
    0.3900000000E+04    0.4328691707E+00    0.1372464875E+00    0.1551212443E+00    0.3810048406E-01    0.3883595246E+00
    0.4100000000E+04    0.4408657857E+00    0.1333650257E+00    0.1558324954E+00    0.3880652461E-01    0.3902978906E+00
    0.4300000000E+04    0.4483727896E+00    0.1297215427E+00    0.1564997357E+00    0.3946947425E-01    0.3921203575E+00
    0.4500000000E+04    0.4554267084E+00    0.1262966852E+00    0.1571274311E+00    0.4009254266E-01    0.3938385124E+00
    0.4700000000E+04    0.4620610119E+00    0.1230729806E+00    0.1577194274E+00    0.4067867134E-01    0.3954623484E+00
    0.4900000000E+04    0.4683063912E+00    0.1200346247E+00    0.1582790582E+00    0.4123055793E-01    0.3970005404E+00
    0.1000000000E+04    0.2251080711E+00    0.2409868805E+00    0.1316267390E+00    0.1979007139E-01    0.3261457320E+00
    0.3000000000E+04    0.3896630528E+00    0.1582946373E+00    0.1512111082E+00    0.3428793244E-01    0.3777762638E+00
    0.5000000000E+04    0.4712921273E+00    0.1185804244E+00    0.1585476595E+00    0.4149444218E-01    0.3977399248E+00
    0.7000000000E+04    0.5162921942E+00    0.9638782085E-01    0.1627637918E+00    0.4547593791E-01    0.4094505704E+00
    0.9000000000E+04    0.5433177924E+00    0.8251810753E-01    0.1656019757E+00    0.4787294318E-01    0.4174650735E+00
    0.1100000000E+05    0.5607627507E+00    0.7308574738E-01    0.1676835031E+00    0.4942436650E-01    0.4234274379E+00
    0.1300000000E+05    0.5726981597E+00    0.6624853757E-01    0.1692953156E+00    0.5048890625E-01    0.4281037862E+00
    0.1500000000E+05    0.5812535069E+00    0.6104559146E-01    0.1705913432E+00    0.5125435140E-01    0.4319082220E+00
    0.1700000000E+05    0.5876208184E+00    0.5693455406E-01    0.1716627783E+00    0.5182591245E-01    0.4350877206E+00
    0.1900000000E+05    0.5925073112E+00    0.5358874054E-01    0.1725676277E+00    0.5226606527E-01    0.4378003454E+00
    0.2100000000E+05    0.5963537604E+00    0.5080050734E-01    0.1733448235E+00    0.5261378383E-01    0.4401527867E+00
    0.2300000000E+05    0.5994465989E+00    0.4843182872E-01    0.1740216168E+00    0.5289441884E-01    0.4422201241E+00
    0.2500000000E+05    0.6019787100E+00    0.4638743374E-01    0.1746177393E+00    0.5312505810E-01    0.4440569954E+00
    0.2700000000E+05    0.6040840168E+00    0.4459942587E-01    0.1751478819E+00    0.5331757795E-01    0.4457042763E+00
    0.2900000000E+05    0.6058580003E+00    0.4301807393E-01    0.1756232409E+00    0.5348045445E-01    0.4471932633E+00
    0.3100000000E+05    0.6073703259E+00    0.4160608019E-01    0.1760525210E+00    0.5361987853E-01    0.4485483952E+00
    0.3300000000E+05    0.6086728661E+00    0.4033488986E-01    0.1764426062E+00    0.5374046495E-01    0.4497890823E+00
    0.3500000000E+05    0.6098049454E+00    0.3918224356E-01    0.1767990229E+00    0.5384571610E-01    0.4509309705E+00
    0.3700000000E+05    0.6107968563E+00    0.3813051077E-01    0.1771262659E+00    0.5393833300E-01    0.4519868357E+00
    0.3900000000E+05    0.6116722706E+00    0.3716552846E-01    0.1774280338E+00    0.5402042883E-01    0.4529672313E+00
    0.4100000000E+05    0.6124499265E+00    0.3627577462E-01    0.1777074014E+00    0.5409367833E-01    0.4538809643E+00
    0.4300000000E+05    0.6131448306E+00    0.3545176906E-01    0.1779669495E+00    0.5415942437E-01    0.4547354524E+00
    0.4500000000E+05    0.6137691295E+00    0.3468563158E-01    0.1782088617E+00    0.5421875521E-01    0.4555369951E+00
    0.4700000000E+05    0.6143327497E+00    0.3397075110E-01    0.1784350002E+00    0.5427256136E-01    0.4562909827E+00
    0.4900000000E+05    0.6148438761E+00    0.3330153453E-01    0.1786469640E+00    0.5432157798E-01    0.4570020596E+00
    0.1000000000E+05    0.5529199021E+00    0.7739148667E-01    0.1667149493E+00    0.4872634532E-01    0.4206431741E+00
    0.3000000000E+05    0.6066432831E+00    0.4229286350E-01    0.1758431741E+00    0.5355277903E-01    0.4478862471E+00
    0.5000000000E+05    0.6150819262E+00    0.3298253225E-01    0.1787480696E+00    0.5434448554E-01    0.4573427859E+00
    0.7000000000E+05    0.6182604593E+00    0.2814043389E-01    0.1802802856E+00    0.5465697715E-01    0.4626498967E+00
    0.9000000000E+05    0.6198925322E+00    0.2502500388E-01    0.1812509223E+00    0.5482523796E-01    0.4661914778E+00
    0.1100000000E+06    0.6208764253E+00    0.2279560479E-01    0.1819291496E+00    0.5493156895E-01    0.4687832568E+00
    0.1300000000E+06    0.6215308182E+00    0.2109429410E-01    0.1824331830E+00    0.5500563862E-01    0.4707926991E+00
    0.1500000000E+06    0.6219959111E+00    0.1973859707E-01    0.1828240144E+00    0.5506071367E-01    0.4724136753E+00
    0.1700000000E+06    0.6223426330E+00    0.1862411886E-01    0.1831366403E+00    0.5510361725E-01    0.4737597024E+00
    0.1900000000E+06    0.6226105847E+00    0.1768611355E-01    0.1833927245E+00    0.5513822233E-01    0.4749023785E+00
    0.2100000000E+06    0.6228235610E+00    0.1688194793E-01    0.1836064659E+00    0.5516689490E-01    0.4758894596E+00
    0.2300000000E+06    0.6229966963E+00    0.1618221969E-01    0.1837875952E+00    0.5519116487E-01    0.4767542201E+00
    0.2500000000E+06    0.6231400644E+00    0.1556588931E-01    0.1839430246E+00    0.5521206745E-01    0.4775206723E+00
    0.2700000000E+06    0.6232606239E+00    0.1501744100E-01    0.1840778113E+00    0.5523032954E-01    0.4782066505E+00
    0.2900000000E+06    0.6233633323E+00    0.1452514184E-01    0.1841957475E+00    0.5524647747E-01    0.4788257243E+00
    0.3100000000E+06    0.6234518151E+00    0.1407992922E-01    0.1842997376E+00    0.5526090238E-01    0.4793884313E+00
    0.3300000000E+06    0.6235287835E+00    0.1367467460E-01    0.1843920460E+00    0.5527390153E-01    0.4799031007E+00
    0.3500000000E+06    0.6235963049E+00    0.1330368162E-01    0.1844744666E+00    0.5528570515E-01    0.4803764170E+00
    0.3700000000E+06    0.6236559824E+00    0.1296233504E-01    0.1845484397E+00    0.5529649463E-01    0.4808138177E+00
    0.3900000000E+06    0.6237090782E+00    0.1264684972E-01    0.1846151367E+00    0.5530641498E-01    0.4812197786E+00
    0.4100000000E+06    0.6237565990E+00    0.1235408742E-01    0.1846755199E+00    0.5531558368E-01    0.4815980232E+00
    0.4300000000E+06    0.6237993574E+00    0.1208142087E-01    0.1847303881E+00    0.5532409702E-01    0.4819516786E+00
    0.4500000000E+06    0.6238380167E+00    0.1182663122E-01    0.1847804100E+00    0.5533203475E-01    0.4822833938E+00
    0.4700000000E+06    0.6238731232E+00    0.1158782967E-01    0.1848261500E+00    0.5533946358E-01    0.4825954299E+00
    0.4900000000E+06    0.6239051309E+00    0.1136339672E-01    0.1848680881E+00    0.5534643974E-01    0.4828897312E+00
    0.1000000000E+06    0.6204391704E+00    0.2382792123E-01    0.1816172609E+00    0.5488370334E-01    0.4675772884E+00
    0.3000000000E+06    0.6234091647E+00    0.1429713379E-01    0.1842493316E+00    0.5525388489E-01    0.4791135589E+00
    0.5000000000E+06    0.6239200941E+00    0.1125612410E-01    0.1848877620E+00    0.5534977331E-01    0.4830307658E+00
    0.7000000000E+06    0.6241231822E+00    0.9608212719E-02    0.1851559003E+00    0.5540126213E-01    0.4852308105E+00
    0.9000000000E+06    0.6242291290E+00    0.8533532997E-02    0.1852892311E+00    0.5543572456E-01    0.4867061629E+00
    0.1100000000E+07    0.6242926166E+00    0.7760684372E-02    0.1853592331E+00    0.5546140074E-01    0.4877924230E+00
    0.1300000000E+07    0.6243339892E+00    0.7169961255E-02    0.1853950504E+00    0.5548177528E-01    0.4886400020E+00
    0.1500000000E+07    0.6243624923E+00    0.6699185295E-02    0.1854107361E+00    0.5549862448E-01    0.4893280854E+00
    0.1700000000E+07    0.6243829083E+00    0.6312398499E-02    0.1854138519E+00    0.5551296907E-01    0.4899030121E+00
    0.1900000000E+07    0.6243979478E+00    0.5987154770E-02    0.1854087942E+00    0.5552544674E-01    0.4903940197E+00
    0.2100000000E+07    0.6244092555E+00    0.5708615317E-02    0.1853982705E+00    0.5553648132E-01    0.4908206275E+00
    0.2300000000E+07    0.6244178831E+00    0.5466521681E-02    0.1853840237E+00    0.5554636818E-01    0.4911964539E+00
    0.2500000000E+07    0.6244245324E+00    0.5253522698E-02    0.1853672154E+00    0.5555532114E-01    0.4915313416E+00
    0.2700000000E+07    0.6244296882E+00    0.5064193001E-02    0.1853486418E+00    0.5556349975E-01    0.4918326140E+00
    0.2900000000E+07    0.6244336948E+00    0.4894428635E-02    0.1853288611E+00    0.5557102618E-01    0.4921058531E+00
    0.3100000000E+07    0.6244368030E+00    0.4741059599E-02    0.1853082717E+00    0.5557799595E-01    0.4923554025E+00
    0.3300000000E+07    0.6244391993E+00    0.4601592879E-02    0.1852871623E+00    0.5558448517E-01    0.4925847018E+00
    0.3500000000E+07    0.6244410247E+00    0.4474036998E-02    0.1852657444E+00    0.5559055538E-01    0.4927965174E+00
    0.3700000000E+07    0.6244423878E+00    0.4356779161E-02    0.1852441746E+00    0.5559625710E-01    0.4929931039E+00
    0.3900000000E+07    0.6244433732E+00    0.4248497316E-02    0.1852225693E+00    0.5560163226E-01    0.4931763211E+00
    0.4100000000E+07    0.6244440476E+00    0.4148095980E-02    0.1852010155E+00    0.5560671605E-01    0.4933477191E+00
    0.4300000000E+07    0.6244444642E+00    0.4054658573E-02    0.1851795782E+00    0.5561153829E-01    0.4935086027E+00
    0.4500000000E+07    0.6244446659E+00    0.3967411482E-02    0.1851583062E+00    0.5561612445E-01    0.4936600791E+00
    0.4700000000E+07    0.6244446877E+00    0.3885696570E-02    0.1851372354E+00    0.5562049646E-01    0.4938030955E+00
    0.4900000000E+07    0.6244445581E+00    0.3808949895E-02    0.1851163924E+00    0.5562467337E-01    0.4939384679E+00
    0.1000000000E+07    0.6242645151E+00    0.8118807821E-02    0.1853298054E+00    0.5544938457E-01    0.4872861295E+00
    0.3000000000E+07    0.6244353483E+00    0.4815864012E-02    0.1853186473E+00    0.5557457550E-01    0.4922333559E+00
    0.5000000000E+07    0.6244444441E+00    0.3772284990E-02    0.1851060625E+00    0.5562669393E-01    0.4940035123E+00
    0.7000000000E+07    0.6244382124E+00    0.3210551459E-02    0.1849137216E+00    0.5565997643E-01    0.4950341064E+00
    0.9000000000E+07    0.6244291611E+00    0.2845821979E-02    0.1847473890E+00    0.5568446251E-01    0.4957447579E+00
    0.1100000000E+08    0.6244198437E+00    0.2584351841E-02    0.1846023342E+00    0.5570383864E-01    0.4962801018E+00
    0.1300000000E+08    0.6244109258E+00    0.2384975759E-02    0.1844740871E+00    0.5571987220E-01    0.4967060215E+00
    0.1500000000E+08    0.6244025729E+00    0.2226384828E-02    0.1843592509E+00    0.5573354791E-01    0.4970576975E+00
    0.1700000000E+08    0.6243947960E+00    0.2096290119E-02    0.1842553040E+00    0.5574547088E-01    0.4973559795E+00
    0.1900000000E+08    0.6243875575E+00    0.1987038064E-02    0.1841603537E+00    0.5575603964E-01    0.4976141740E+00
    0.2100000000E+08    0.6243808065E+00    0.1893578791E-02    0.1840729535E+00    0.5576553060E-01    0.4978412584E+00
    0.2300000000E+08    0.6243744923E+00    0.1812426998E-02    0.1839919768E+00    0.5577414336E-01    0.4980435568E+00
    0.2500000000E+08    0.6243685680E+00    0.1741088760E-02    0.1839165310E+00    0.5578202674E-01    0.4982256813E+00
    0.2700000000E+08    0.6243629924E+00    0.1677725846E-02    0.1838458971E+00    0.5578929469E-01    0.4983910923E+00
