  Pressure (Pa) 22mC5-400 (mol/kg) 2mC6-400 (mol/kg) 3mC6-400 (mol/kg) 23mC5-400 (mol/kg) C7-400 (mol/kg)
    0.1000000000E+01    0.1581516915E-02    0.7904120491E-02    0.1051083780E-02    0.3702634910E-03    0.1705609873E-02
    0.3000000000E+01    0.4647665918E-02    0.2295052470E-01    0.3070161522E-02    0.1088121097E-02    0.4982540583E-02
    0.5000000000E+01    0.7592959044E-02    0.3705628887E-01    0.4986214739E-02    0.1777700285E-02    0.8092949024E-02
    0.7000000000E+01    0.1042647408E-01    0.5030262297E-01    0.6807651963E-02    0.2441124865E-02    0.1105040974E-01
    0.9000000000E+01    0.1315636817E-01    0.6276176121E-01    0.8541973371E-02    0.3080303273E-02    0.1386703179E-01
    0.1100000000E+02    0.1578999301E-01    0.7449816195E-01    0.1019589107E-01    0.3696955519E-02    0.1655365275E-01
    0.1300000000E+02    0.1833399311E-01    0.8556952074E-01    0.1177543071E-01    0.4292636174E-02    0.1912000253E-01
    0.1500000000E+02    0.2079438992E-01    0.9602762949E-01    0.1328601769E-01    0.4868754046E-02    0.2157484251E-01
    0.1700000000E+02    0.2317665415E-01    0.1059191084E+00    0.1473255068E-01    0.5426589098E-02    0.2392608399E-01
    0.1900000000E+02    0.2548576820E-01    0.1152860318E+00    0.1611946451E-01    0.5967307058E-02    0.2618088979E-01
    0.2100000000E+02    0.2772628024E-01    0.1241664658E+00    0.1745078431E-01    0.6491972060E-02    0.2834576141E-01
    0.2300000000E+02    0.2990235116E-01    0.1325949319E+00    0.1873017208E-01    0.7001557643E-02    0.3042661432E-01
    0.2500000000E+02    0.3201779562E-01    0.1406028069E+00    0.1996096717E-01    0.7496956335E-02    0.3242884314E-01
    0.2700000000E+02    0.3407611784E-01    0.1482186713E+00    0.2114622133E-01    0.7978988040E-02    0.3435737825E-01
    0.2900000000E+02    0.3608054308E-01    0.1554686120E+00    0.2228872931E-01    0.8448407395E-02    0.3621673516E-01
    0.3100000000E+02    0.3803404530E-01    0.1623764863E+00    0.2339105563E-01    0.8905910249E-02    0.3801105766E-01
    0.3300000000E+02    0.3993937162E-01    0.1689641540E+00    0.2445555803E-01    0.9352139370E-02    0.3974415573E-01
    0.3500000000E+02    0.4179906387E-01    0.1752516805E+00    0.2548440813E-01    0.9787689505E-02    0.4141953879E-01
    0.3700000000E+02    0.4361547780E-01    0.1812575158E+00    0.2647960958E-01    0.1021311186E-01    0.4304044512E-01
    0.3900000000E+02    0.4539080007E-01    0.1869986533E+00    0.2744301425E-01    0.1062891809E-01    0.4460986781E-01
    0.4100000000E+02    0.4712706351E-01    0.1924907691E+00    0.2837633641E-01    0.1103558383E-01    0.4613057781E-01
    0.4300000000E+02    0.4882616058E-01    0.1977483467E+00    0.2928116546E-01    0.1143355192E-01    0.4760514438E-01
    0.4500000000E+02    0.5048985561E-01    0.2027847875E+00    0.3015897724E-01    0.1182323518E-01    0.4903595335E-01
    0.4700000000E+02    0.5211979560E-01    0.2076125089E+00    0.3101114405E-01    0.1220501900E-01    0.5042522340E-01
    0.4900000000E+02    0.5371752009E-01    0.2122430327E+00    0.3183894378E-01    0.1257926361E-01    0.5177502060E-01
    0.1000000000E+02    0.1448478343E-01    0.6871655004E-01    0.9378591072E-02    0.3391344373E-02    0.1522596006E-01
    0.3000000000E+02    0.3706348282E-01    0.1589638969E+00    0.2284476323E-01    0.8678607030E-02    0.3712178017E-01
    0.5000000000E+02    0.5450475540E-01    0.2144877207E+00    0.3224408148E-01    0.1276366493E-01    0.5243572405E-01
    0.7000000000E+02    0.6886338294E-01    0.2512618514E+00    0.3931805219E-01    0.1612730727E-01    0.6398255168E-01
    0.9000000000E+02    0.8118914661E-01    0.2768488987E+00    0.4492188856E-01    0.1901518287E-01    0.7314548997E-01
    0.1100000000E+03    0.9208076330E-01    0.2952733946E+00    0.4952803439E-01    0.2156739874E-01    0.8068917437E-01
    0.1300000000E+03    0.1019080293E+00    0.3088650079E+00    0.5342047835E-01    0.2387049550E-01    0.8707351965E-01
    0.1500000000E+03    0.1109135970E+00    0.3190608604E+00    0.5678115834E-01    0.2598126136E-01    0.9259334877E-01
    0.1700000000E+03    0.1192644431E+00    0.3267927794E+00    0.5973259176E-01    0.2793877530E-01    0.9744731174E-01
    0.1900000000E+03    0.1270799623E+00    0.3326896955E+00    0.6236065799E-01    0.2977098106E-01    0.1017747322E+00
    0.2100000000E+03    0.1344482685E+00    0.3371903451E+00    0.6472757244E-01    0.3149850166E-01    0.1056765989E+00
    0.2300000000E+03    0.1414361364E+00    0.3406093592E+00    0.6687966767E-01    0.3313696599E-01    0.1092281590E+00
    0.2500000000E+03    0.1480953233E+00    0.3431777223E+00    0.6885226551E-01    0.3469848829E-01    0.1124868079E+00
    0.2700000000E+03    0.1544667342E+00    0.3450684613E+00    0.7067284113E-01    0.3619264275E-01    0.1154972131E+00
    0.2900000000E+03    0.1605832487E+00    0.3464134737E+00    0.7236314286E-01    0.3762712523E-01    0.1182947493E+00
    0.3100000000E+03    0.1664716921E+00    0.3473148544E+00    0.7394065158E-01    0.3900821456E-01    0.1209078637E+00
    0.3300000000E+03    0.1721542414E+00    0.3478527037E+00    0.7541960939E-01    0.4034110154E-01    0.1233597440E+00
    0.3500000000E+03    0.1776494486E+00    0.3480906219E+00    0.7681176011E-01    0.4163012849E-01    0.1256695191E+00
    0.3700000000E+03    0.1829729988E+00    0.3480796512E+00    0.7812689236E-01    0.4287896676E-01    0.1278531405E+00
    0.3900000000E+03    0.1881382824E+00    0.3478611491E+00    0.7937324452E-01    0.4409075048E-01    0.1299240392E+00
    0.4100000000E+03    0.1931568310E+00    0.3474689163E+00    0.8055781125E-01    0.4526817874E-01    0.1318936237E+00
    0.4300000000E+03    0.1980386559E+00    0.3469307931E+00    0.8168657875E-01    0.4641359479E-01    0.1337716618E+00
    0.4500000000E+03    0.2027925132E+00    0.3462698730E+00    0.8276470746E-01    0.4752904804E-01    0.1355665771E+00
    0.4700000000E+03    0.2074261139E+00    0.3455054349E+00    0.8379667572E-01    0.4861634324E-01    0.1372856830E+00
    0.4900000000E+03    0.2119462916E+00    0.3446536669E+00    0.8478639368E-01    0.4967707981E-01    0.1389353675E+00
    0.1000000000E+03    0.8678728458E-01    0.2867834394E+00    0.4732882306E-01    0.2032694408E-01    0.7708597950E-01
    0.3000000000E+03    0.1635544978E+00    0.3469141697E+00    0.7316504013E-01    0.3832399728E-01    0.1196228027E+00
    0.5000000000E+03    0.2141657763E+00    0.3441993903E+00    0.8526649825E-01    0.5019794023E-01    0.1397359571E+00
    0.7000000000E+03    0.2537911576E+00    0.3329260924E+00    0.9330032119E-01    0.5949942296E-01    0.1531659993E+00
    0.9000000000E+03    0.2863814756E+00    0.3205159907E+00    0.9936379588E-01    0.6715309126E-01    0.1633444599E+00
    0.1100000000E+04    0.3137692829E+00    0.3086947671E+00    0.1042544620E+00    0.7358780355E-01    0.1715808901E+00
    0.1300000000E+04    0.3370672545E+00    0.2978919914E+00    0.1083623048E+00    0.7906396796E-01    0.1785174771E+00
    0.1500000000E+04    0.3570533669E+00    0.2881570191E+00    0.1119080922E+00    0.8376369265E-01    0.1845186352E+00
    0.1700000000E+04    0.3743134683E+00    0.2794180566E+00    0.1150294418E+00    0.8782414469E-01    0.1898119969E+00
    0.1900000000E+04    0.3893064897E+00    0.2715688492E+00    0.1178182033E+00    0.9135280272E-01    0.1945497664E+00
    0.2100000000E+04    0.4023999053E+00    0.2645001241E+00    0.1203388844E+00    0.9443574855E-01    0.1988390122E+00
    0.2300000000E+04    0.4138918483E+00    0.2581109246E+00    0.1226386142E+00    0.9714283764E-01    0.2027580709E+00
    0.2500000000E+04    0.4240263212E+00    0.2523120580E+00    0.1247529255E+00    0.9953125551E-01    0.2063660815E+00
    0.2700000000E+04    0.4330043399E+00    0.2470263689E+00    0.1267093052E+00    0.1016481236E+00    0.2097088455E+00
    0.2900000000E+04    0.4409924159E+00    0.2421877846E+00    0.1285294743E+00    0.1035324834E+00    0.2128225969E+00
    0.3100000000E+04    0.4481291603E+00    0.2377399682E+00    0.1302309101E+00    0.1052168410E+00    0.2157365194E+00
    0.3300000000E+04    0.4545304945E+00    0.2336349354E+00    0.1318278936E+00    0.1067283873E+00    0.2184744818E+00
    0.3500000000E+04    0.4602938000E+00    0.2298317797E+00    0.1333322506E+00    0.1080899684E+00    0.2210562671E+00
    0.3700000000E+04    0.4655012411E+00    0.2262955561E+00    0.1347538892E+00    0.1093208644E+00    0.2234984634E+00
    0.3900000000E+04    0.4702224398E+00    0.2229963280E+00    0.1361011961E+00    0.1104374151E+00    0.2258151226E+00
    0.4100000000E+04    0.4745166377E+00    0.2199083650E+00    0.1373813357E+00    0.1114535266E+00    0.2280182574E+00
    0.4300000000E+04    0.4784344502E+00    0.2170094737E+00    0.1386004779E+00    0.1123810825E+00    0.2301182205E+00
    0.4500000000E+04    0.4820192953E+00    0.2142804400E+00    0.1397639759E+00    0.1132302781E+00    0.2321240001E+00
    0.4700000000E+04    0.4853085618E+00    0.2117045672E+00    0.1408765049E+00    0.1140098947E+00    0.2340434507E+00
    0.4900000000E+04    0.4883345679E+00    0.2092672913E+00    0.1419421726E+00    0.1147275239E+00    0.2358834781E+00
    0.1000000000E+04    0.3006456970E+00    0.3144907134E+00    0.1019257939E+00    0.7050409559E-01    0.1676561694E+00
    0.3000000000E+04    0.4446594808E+00    0.2399182095E+00    0.1293940763E+00    0.1043978509E+00    0.2143029368E+00
    0.5000000000E+04    0.4897577586E+00    0.2080965793E+00    0.1424585844E+00    0.1150651867E+00    0.2367756438E+00
    0.7000000000E+04    0.5095518102E+00    0.1895728472E+00    0.1510213475E+00    0.1197748071E+00    0.2516191166E+00
    0.9000000000E+04    0.5201809116E+00    0.1767817981E+00    0.1573370657E+00    0.1223204817E+00    0.2626322521E+00
    0.1100000000E+05    0.5266641039E+00    0.1670873416E+00    0.1623040114E+00    0.1238842672E+00    0.2713359668E+00
    0.1300000000E+05    0.5309743076E+00    0.1593151216E+00    0.1663730499E+00    0.1249317351E+00    0.2784965314E+00
    0.1500000000E+05    0.5340219650E+00    0.1528491196E+00    0.1698027620E+00    0.1256781784E+00    0.2845548043E+00
    0.1700000000E+05    0.5362784066E+00    0.1473277880E+00    0.1727551279E+00    0.1262352948E+00    0.2897877060E+00
    0.1900000000E+05    0.5380095503E+00    0.1425211387E+00    0.1753382304E+00    0.1266662451E+00    0.2943804660E+00
    0.2100000000E+05    0.5393757533E+00    0.1382738370E+00    0.1776277066E+00    0.1270092066E+00    0.2984629962E+00
    0.2300000000E+05    0.5404789811E+00    0.1344760246E+00    0.1796784985E+00    0.1272885134E+00    0.3021298561E+00
    0.2500000000E+05    0.5413869286E+00    0.1310471291E+00    0.1815317327E+00    0.1275203611E+00    0.3054519604E+00
    0.2700000000E+05    0.5421461770E+00    0.1279262954E+00    0.1832189648E+00    0.1277159222E+00    0.3084838172E+00
    0.2900000000E+05    0.5427897596E+00    0.1250664345E+00    0.1847649148E+00    0.1278831404E+00    0.3112681973E+00
    0.3100000000E+05    0.5433417128E+00    0.1224303642E+00    0.1861892924E+00    0.1280278110E+00    0.3138392564E+00
    0.3300000000E+05    0.5438199196E+00    0.1199882144E+00    0.1875080538E+00    0.1281542571E+00    0.3162246864E+00
    0.3500000000E+05    0.5442379443E+00    0.1177156316E+00    0.1887342888E+00    0.1282657671E+00    0.3184472369E+00
    0.3700000000E+05    0.5446062528E+00    0.1155925024E+00    0.1898788617E+00    0.1283648847E+00    0.3205258151E+00
    0.3900000000E+05    0.5449330424E+00    0.1136020271E+00    0.1909508832E+00    0.1284536083E+00    0.3224762974E+00
    0.4100000000E+05    0.5452248207E+00    0.1117300322E+00    0.1919580644E+00    0.1285335284E+00    0.3243121378E+00
    0.4300000000E+05    0.5454868166E+00    0.1099644535E+00    0.1929069863E+00    0.1286059267E+00    0.3260448319E+00
    0.4500000000E+05    0.5457232773E+00    0.1082949392E+00    0.1938033073E+00    0.1286718475E+00    0.3276842758E+00
    0.4700000000E+05    0.5459376872E+00    0.1067125429E+00    0.1946519257E+00    0.1287321497E+00    0.3292390459E+00
    0.4900000000E+05    0.5461329302E+00    0.1052094822E+00    0.1954571087E+00    0.1287875463E+00    0.3307166211E+00
    0.1000000000E+05    0.5237802726E+00    0.1716397877E+00    0.1599546984E+00    0.1231872618E+00    0.2672143169E+00
    0.3000000000E+05    0.5430759532E+00    0.1237224397E+00    0.1854912267E+00    0.1279579954E+00    0.3125785301E+00
    0.5000000000E+05    0.5462241321E+00    0.1044855408E+00    0.1958445982E+00    0.1288135954E+00    0.3314285420E+00
    0.7000000000E+05    0.5474600245E+00    0.9288999685E-01    0.2020183523E+00    0.1291812631E+00    0.3428524235E+00
    0.9000000000E+05    0.5481086142E+00    0.8480839119E-01    0.2062780896E+00    0.1293917180E+00    0.3508369215E+00
    0.1100000000E+06    0.5485035569E+00    0.7871701999E-01    0.2094607510E+00    0.1295310388E+00    0.3568684822E+00
    0.1300000000E+06    0.5487669129E+00    0.7389215887E-01    0.2119622701E+00    0.1296317400E+00    0.3616554977E+00
    0.1500000000E+06    0.5489536213E+00    0.6993652405E-01    0.2139989716E+00    0.1297089226E+00    0.3655874486E+00
    0.1700000000E+06    0.5490919570E+00    0.6661013488E-01    0.2157009274E+00    0.1297706019E+00    0.3688998262E+00
    0.1900000000E+06    0.5491979127E+00    0.6375775638E-01    0.2171519133E+00    0.1298214514E+00    0.3717450679E+00
    0.2100000000E+06    0.5492811933E+00    0.6127365042E-01    0.2184087640E+00    0.1298643929E+00    0.3742270679E+00
    0.2300000000E+06    0.5493480179E+00    0.5908282152E-01    0.2195116392E+00    0.1299013549E+00    0.3764195539E+00
    0.2500000000E+06    0.5494025490E+00    0.5713031763E-01    0.2204898629E+00    0.1299336662E+00    0.3783765773E+00
    0.2700000000E+06    0.5494476737E+00    0.5537477860E-01    0.2213654340E+00    0.1299622752E+00    0.3801388412E+00
    0.2900000000E+06    0.5494854547E+00    0.5378436623E-01    0.2221552346E+00    0.1299878789E+00    0.3817376943E+00
    0.3100000000E+06    0.5495174031E+00    0.5233409849E-01    0.2228724730E+00    0.1300110024E+00    0.3831977473E+00
    0.3300000000E+06    0.5495446500E+00    0.5100404712E-01    0.2235276561E+00    0.1300320497E+00    0.3845386420E+00
    0.3500000000E+06    0.5495680579E+00    0.4977808525E-01    0.2241292647E+00    0.1300513373E+00    0.3857762821E+00
    0.3700000000E+06    0.5495882954E+00    0.4864299646E-01    0.2246842313E+00    0.1300691173E+00    0.3869237075E+00
    0.3900000000E+06    0.5496058882E+00    0.4758782765E-01    0.2251982875E+00    0.1300855933E+00    0.3879917310E+00
    0.4100000000E+06    0.5496212553E+00    0.4660341043E-01    0.2256762201E+00    0.1301009317E+00    0.3889894078E+00
    0.4300000000E+06    0.5496347339E+00    0.4568200113E-01    0.2261220627E+00    0.1301152701E+00    0.3899243902E+00
    0.4500000000E+06    0.5496465988E+00    0.4481700632E-01    0.2265392428E+00    0.1301287236E+00    0.3908031972E+00
    0.4700000000E+06    0.5496570755E+00    0.4400277052E-01    0.2269306940E+00    0.1301413889E+00    0.3916314231E+00
    0.4900000000E+06    0.5496663511E+00    0.4323441016E-01    0.2272989446E+00    0.1301533484E+00    0.3924139013E+00
    0.1000000000E+06    0.5483277710E+00    0.8156996123E-01    0.2079733588E+00    0.1294676225E+00    0.3540420018E+00
    0.3000000000E+06    0.5495020799E+00    0.5304306144E-01    0.2225222131E+00    0.1299997230E+00    0.3824837432E+00
    0.5000000000E+06    0.5496705883E+00    0.4286608535E-01    0.2274750662E+00    0.1301590859E+00    0.3927893197E+00
    0.7000000000E+06    0.5497193819E+00    0.3711989105E-01    0.2301852822E+00    0.1302495778E+00    0.3986771304E+00
    0.9000000000E+06    0.5497340024E+00    0.3328187403E-01    0.2319498379E+00    0.1303120956E+00    0.4026488035E+00
    0.1100000000E+07    0.5497354840E+00    0.3047648557E-01    0.2332112192E+00    0.1303596500E+00    0.4055771057E+00
    0.1300000000E+07    0.5497311349E+00    0.2830617817E-01    0.2341676159E+00    0.1303979447E+00    0.4078601518E+00
    0.1500000000E+07    0.5497240202E+00    0.2656017614E-01    0.2349228853E+00    0.1304299644E+00    0.4097099066E+00
    0.1700000000E+07    0.5497155851E+00    0.2511466915E-01    0.2355374022E+00    0.1304574594E+00    0.4112513631E+00
    0.1900000000E+07    0.5497065654E+00    0.2389140237E-01    0.2360489665E+00    0.1304815412E+00    0.4125638102E+00
    0.2100000000E+07    0.5496973548E+00    0.2283810901E-01    0.2364826044E+00    0.1305029585E+00    0.4137003861E+00
    0.2300000000E+07    0.5496881702E+00    0.2191834125E-01    0.2368556250E+00    0.1305222391E+00    0.4146982659E+00
    0.2500000000E+07    0.5496791320E+00    0.2110578548E-01    0.2371804280E+00    0.1305397686E+00    0.4155843704E+00
    0.2700000000E+07    0.5496703059E+00    0.2038089489E-01    0.2374661566E+00    0.1305558374E+00    0.4163787562E+00
    0.2900000000E+07    0.5496617261E+00    0.1972879839E-01    0.2377197184E+00    0.1305706694E+00    0.4170967248E+00
    0.3100000000E+07    0.5496534076E+00    0.1913795020E-01    0.2379464399E+00    0.1305844407E+00    0.4177501883E+00
    0.3300000000E+07    0.5496453542E+00    0.1859922830E-01    0.2381505022E+00    0.1305972924E+00    0.4183485825E+00
    0.3500000000E+07    0.5496375630E+00    0.1810531533E-01    0.2383352382E+00    0.1306093394E+00    0.4188994953E+00
    0.3700000000E+07    0.5496300270E+00    0.1765026270E-01    0.2385033410E+00    0.1306206764E+00    0.4194091102E+00
    0.3900000000E+07    0.5496227371E+00    0.1722917714E-01    0.2386570126E+00    0.1306313821E+00    0.4198825258E+00
    0.4100000000E+07    0.5496156830E+00    0.1683799086E-01    0.2387980732E+00    0.1306415231E+00    0.4203239900E+00
    0.4300000000E+07    0.5496088538E+00    0.1647329023E-01    0.2389280416E+00    0.1306511558E+00    0.4207370755E+00
    0.4500000000E+07    0.5496022387E+00    0.1613218608E-01    0.2390481964E+00    0.1306603287E+00    0.4211248127E+00
    0.4700000000E+07    0.5495958272E+00    0.1581221413E-01    0.2391596221E+00    0.1306690836E+00    0.4214897918E+00
    0.4900000000E+07    0.5495896088E+00    0.1551125767E-01    0.2392632455E+00    0.1306774570E+00    0.4218342420E+00
    0.1000000000E+07    0.5497357759E+00    0.3178121309E-01    0.2326278621E+00    0.1303372945E+00    0.4042122574E+00
    0.3000000000E+07    0.5496575337E+00    0.1942633685E-01    0.2378361500E+00    0.1305776781E+00    0.4174308804E+00
    0.5000000000E+07    0.5495865690E+00    0.1536732860E-01    0.2393123849E+00    0.1306815107E+00    0.4219993824E+00
    0.7000000000E+07    0.5495338161E+00    0.1314997364E-01    0.2400310188E+00    0.1307485481E+00    0.4245814439E+00
    0.9000000000E+07    0.5494922640E+00    0.1169778673E-01    0.2404548019E+00    0.1307981421E+00    0.4263189458E+00
    0.1100000000E+08    0.5494580684E+00    0.1065058601E-01    0.2407311372E+00    0.1308375204E+00    0.4276010226E+00
    0.1300000000E+08    0.5494290394E+00    0.9848582309E-02    0.2409227298E+00    0.1308701816E+00    0.4286029059E+00
    0.1500000000E+08    0.5494038291E+00    0.9208459190E-02    0.2410610567E+00    0.1308980873E+00    0.4294171526E+00
    0.1700000000E+08    0.5493815531E+00    0.8681900679E-02    0.2411637366E+00    0.1309224483E+00    0.4300980595E+00
    0.1900000000E+08    0.5493616012E+00    0.8238681917E-02    0.2412414275E+00    0.1309440648E+00    0.4306799513E+00
    0.2100000000E+08    0.5493435351E+00    0.7858787352E-02    0.2413009640E+00    0.1309634934E+00    0.4311857790E+00
    0.2300000000E+08    0.5493270296E+00    0.7528360008E-02    0.2413469322E+00    0.1309811367E+00    0.4316315756E+00
    0.2500000000E+08    0.5493118366E+00    0.7237458082E-02    0.2413825246E+00    0.1309972956E+00    0.4320289418E+00
    0.2700000000E+08    0.5492977630E+00    0.6978736627E-02    0.2414100304E+00    0.1310122008E+00    0.4323865163E+00
