  Pressure (Pa) 22mC5-400 (mol/kg) 2mC6-400 (mol/kg) 3mC6-400 (mol/kg) 23mC5-400 (mol/kg) C7-400 (mol/kg)
    0.1000000000E+01    0.1588007371E-02    0.3913692158E-02    0.5180758716E-03    0.1858911392E-03    0.1513355552E-01
    0.3000000000E+01    0.4703561931E-02    0.1116071184E-01    0.1473079388E-02    0.5506005223E-03    0.4304117013E-01
    0.5000000000E+01    0.7741692381E-02    0.1772892405E-01    0.2333600323E-02    0.9062524484E-03    0.6820099059E-01
    0.7000000000E+01    0.1070601052E-01    0.2371302323E-01    0.3113302238E-02    0.1253269390E-02    0.9100978235E-01
    0.9000000000E+01    0.1359989948E-01    0.2919026091E-01    0.3823320945E-02    0.1592047074E-02    0.1117909655E+00
    0.1100000000E+02    0.1642653167E-01    0.3422433216E-01    0.4472824157E-02    0.1922956582E-02    0.1308108462E+00
    0.1300000000E+02    0.1918888508E-01    0.3886826464E-01    0.5069428680E-02    0.2246346256E-02    0.1482907174E+00
    0.1500000000E+02    0.2188975804E-01    0.4316659655E-01    0.5619515734E-02    0.2562543424E-02    0.1644160058E+00
    0.1700000000E+02    0.2453178273E-01    0.4715703959E-01    0.6128472299E-02    0.2871855980E-02    0.1793432742E+00
    0.1900000000E+02    0.2711743737E-01    0.5087176368E-01    0.6600877970E-02    0.3174573813E-02    0.1932056429E+00
    0.2100000000E+02    0.2964905749E-01    0.5433840023E-01    0.7040651161E-02    0.3470970119E-02    0.2061170319E+00
    0.2300000000E+02    0.3212884610E-01    0.5758083347E-01    0.7451164617E-02    0.3761302595E-02    0.2181755140E+00
    0.2500000000E+02    0.3455888306E-01    0.6061983035E-01    0.7835337500E-02    0.4045814537E-02    0.2294659866E+00
    0.2700000000E+02    0.3694113366E-01    0.6347354631E-01    0.8195709413E-02    0.4324735835E-02    0.2400623211E+00
    0.2900000000E+02    0.3927745647E-01    0.6615793457E-01    0.8534500364E-02    0.4598283900E-02    0.2500291036E+00
    0.3100000000E+02    0.4156961059E-01    0.6868707989E-01    0.8853659697E-02    0.4866664507E-02    0.2594230551E+00
    0.3300000000E+02    0.4381926224E-01    0.7107347264E-01    0.9154906285E-02    0.5130072569E-02    0.2682941989E+00
    0.3500000000E+02    0.4602799093E-01    0.7332823528E-01    0.9439761754E-02    0.5388692852E-02    0.2766868255E+00
    0.3700000000E+02    0.4819729505E-01    0.7546131071E-01    0.9709578111E-02    0.5642700640E-02    0.2846402948E+00
    0.3900000000E+02    0.5032859712E-01    0.7748161988E-01    0.9965560847E-02    0.5892262336E-02    0.2921897069E+00
    0.4100000000E+02    0.5242324852E-01    0.7939719424E-01    0.1020878836E-01    0.6137536027E-02    0.2993664667E+00
    0.4300000000E+02    0.5448253402E-01    0.8121528786E-01    0.1044022834E-01    0.6378672006E-02    0.3061987602E+00
    0.4500000000E+02    0.5650767580E-01    0.8294247257E-01    0.1066075173E-01    0.6615813245E-02    0.3127119588E+00
    0.4700000000E+02    0.5849983734E-01    0.8458471923E-01    0.1087114454E-01    0.6849095851E-02    0.3189289645E+00
    0.4900000000E+02    0.6046012689E-01    0.8614746736E-01    0.1107211805E-01    0.7078649470E-02    0.3248705046E+00
    0.1000000000E+02    0.1502143217E-01    0.3175915653E-01    0.4155128702E-02    0.1758463067E-02    0.1215063022E+00
    0.3000000000E+02    0.4042894837E-01    0.6744109744E-01    0.8696421571E-02    0.4733107708E-02    0.2547944120E+00
    0.5000000000E+02    0.6142865173E-01    0.8690059900E-01    0.1116927657E-01    0.7192066753E-02    0.3277439209E+00
    0.7000000000E+02    0.7935807656E-01    0.9879502647E-01    0.1274670111E-01    0.9291805187E-02    0.3745046329E+00
    0.9000000000E+02    0.9504455678E-01    0.1064655350E+00    0.1385126936E-01    0.1112910896E-01    0.4074007376E+00
    0.1100000000E+03    0.1090293381E+00    0.1115248862E+00    0.1467375577E-01    0.1276729836E-01    0.4320055927E+00
    0.1300000000E+03    0.1216827065E+00    0.1148618037E+00    0.1531343903E-01    0.1424969459E-01    0.4512244042E+00
    0.1500000000E+03    0.1332674241E+00    0.1170104957E+00    0.1582733120E-01    0.1560704014E-01    0.4667282571E+00
    0.1700000000E+03    0.1439757215E+00    0.1183123892E+00    0.1625063509E-01    0.1686182609E-01    0.4795506447E+00
    0.1900000000E+03    0.1539519068E+00    0.1189959036E+00    0.1660633276E-01    0.1803093697E-01    0.4903673494E+00
    0.2100000000E+03    0.1633067385E+00    0.1192193703E+00    0.1691010577E-01    0.1912733213E-01    0.4996402036E+00
    0.2300000000E+03    0.1721268762E+00    0.1190956950E+00    0.1717304546E-01    0.2016115142E-01    0.5076963567E+00
    0.2500000000E+03    0.1804812781E+00    0.1187072829E+00    0.1740323350E-01    0.2114046358E-01    0.5147745459E+00
    0.2700000000E+03    0.1884256426E+00    0.1181154535E+00    0.1760670804E-01    0.2207178593E-01    0.5210534082E+00
    0.2900000000E+03    0.1960055615E+00    0.1173665888E+00    0.1778807801E-01    0.2296045328E-01    0.5266694978E+00
    0.3100000000E+03    0.2032588038E+00    0.1164962651E+00    0.1795092702E-01    0.2381088508E-01    0.5317291450E+00
    0.3300000000E+03    0.2102169990E+00    0.1155320997E+00    0.1809808675E-01    0.2462678243E-01    0.5363164900E+00
    0.3500000000E+03    0.2169068972E+00    0.1144957551E+00    0.1823182669E-01    0.2541127548E-01    0.5404990631E+00
    0.3700000000E+03    0.2233513271E+00    0.1134043749E+00    0.1835398877E-01    0.2616703553E-01    0.5443317492E+00
    0.3900000000E+03    0.2295699324E+00    0.1122716325E+00    0.1846608479E-01    0.2689636120E-01    0.5478596581E+00
    0.4100000000E+03    0.2355797462E+00    0.1111085055E+00    0.1856936817E-01    0.2760124562E-01    0.5511202411E+00
    0.4300000000E+03    0.2413956425E+00    0.1099238574E+00    0.1866488760E-01    0.2828342929E-01    0.5541448745E+00
    0.4500000000E+03    0.2470306958E+00    0.1087248783E+00    0.1875352776E-01    0.2894444212E-01    0.5569600632E+00
    0.4700000000E+03    0.2524964689E+00    0.1075174237E+00    0.1883604064E-01    0.2958563716E-01    0.5595883655E+00
    0.4900000000E+03    0.2578032466E+00    0.1063062760E+00    0.1891306981E-01    0.3020821789E-01    0.5620491137E+00
    0.1000000000E+03    0.1022234242E+00    0.1092549424E+00    0.1429021376E-01    0.1197002359E-01    0.4205184764E+00
    0.3000000000E+03    0.1996709130E+00    0.1169447235E+00    0.1787162558E-01    0.2339020240E-01    0.5292631728E+00
    0.5000000000E+03    0.2603999244E+00    0.1057005698E+00    0.1894970427E-01    0.3051286865E-01    0.5632219559E+00
    0.7000000000E+03    0.3057903984E+00    0.9403241481E-01    0.1949586689E-01    0.3583974959E-01    0.5809383497E+00
    0.9000000000E+03    0.3418208020E+00    0.8381852481E-01    0.1983249105E-01    0.4007042439E-01    0.5921422269E+00
    0.1100000000E+04    0.3712563580E+00    0.7515866780E-01    0.2006311157E-01    0.4352848795E-01    0.5999994528E+00
    0.1300000000E+04    0.3957282920E+00    0.6785552635E-01    0.2023200159E-01    0.4640485841E-01    0.6058796819E+00
    0.1500000000E+04    0.4163307313E+00    0.6168110821E-01    0.2036150873E-01    0.4882761826E-01    0.6104817643E+00
    0.1700000000E+04    0.4338509861E+00    0.5643334662E-01    0.2046422265E-01    0.5088895438E-01    0.6142033995E+00
    0.1900000000E+04    0.4488790915E+00    0.5194505225E-01    0.2054781541E-01    0.5265797114E-01    0.6172892699E+00
    0.2100000000E+04    0.4618686328E+00    0.4808101346E-01    0.2061724745E-01    0.5418780475E-01    0.6198990153E+00
    0.2300000000E+04    0.4731744433E+00    0.4473262445E-01    0.2067587785E-01    0.5552003254E-01    0.6221416775E+00
    0.2500000000E+04    0.4830777684E+00    0.4181265834E-01    0.2072606758E-01    0.5668761664E-01    0.6240945323E+00
    0.2700000000E+04    0.4918039106E+00    0.3925084311E-01    0.2076952768E-01    0.5771696840E-01    0.6258140272E+00
    0.2900000000E+04    0.4995350109E+00    0.3699030230E-01    0.2080753036E-01    0.5862944403E-01    0.6273424528E+00
    0.3100000000E+04    0.5064195201E+00    0.3498475087E-01    0.2084104238E-01    0.5944245317E-01    0.6287121826E+00
    0.3300000000E+04    0.5125793339E+00    0.3319630427E-01    0.2087081230E-01    0.6017029404E-01    0.6299484621E+00
    0.3500000000E+04    0.5181152354E+00    0.3159377016E-01    0.2089742928E-01    0.6082479079E-01    0.6310712972E+00
    0.3700000000E+04    0.5231110928E+00    0.3015131482E-01    0.2092136368E-01    0.6141578500E-01    0.6320967677E+00
    0.3900000000E+04    0.5276371243E+00    0.2884741874E-01    0.2094299585E-01    0.6195151807E-01    0.6330379604E+00
    0.4100000000E+04    0.5317524589E+00    0.2766405532E-01    0.2096263679E-01    0.6243893124E-01    0.6339056458E+00
    0.4300000000E+04    0.5355071602E+00    0.2658604178E-01    0.2098054346E-01    0.6288390267E-01    0.6347087769E+00
    0.4500000000E+04    0.5389438356E+00    0.2560052368E-01    0.2099693005E-01    0.6329143602E-01    0.6354548636E+00
    0.4700000000E+04    0.5420989256E+00    0.2469656314E-01    0.2101197665E-01    0.6366581157E-01    0.6361502572E+00
    0.4900000000E+04    0.5450037420E+00    0.2386480840E-01    0.2102583578E-01    0.6401070788E-01    0.6368003690E+00
    0.1000000000E+04    0.3572442577E+00    0.7930462020E-01    0.1995753644E-01    0.4188214330E-01    0.5963807469E+00
    0.3000000000E+04    0.5030749193E+00    0.3595819549E-01    0.2082479660E-01    0.5904742363E-01    0.6280454353E+00
    0.5000000000E+04    0.5463708906E+00    0.2347345273E-01    0.2103236146E-01    0.6417311101E-01    0.6371099212E+00
    0.7000000000E+04    0.5655051775E+00    0.1798368870E-01    0.2112393767E-01    0.6645309935E-01    0.6417677038E+00
    0.9000000000E+04    0.5759545084E+00    0.1493623929E-01    0.2117372723E-01    0.6770696119E-01    0.6447050698E+00
    0.1100000000E+05    0.5824405304E+00    0.1299198569E-01    0.2120377973E-01    0.6849099284E-01    0.6467680017E+00
    0.1300000000E+05    0.5868228926E+00    0.1163426357E-01    0.2122301407E-01    0.6902477317E-01    0.6483168700E+00
    0.1500000000E+05    0.5899668967E+00    0.1062502181E-01    0.2123572842E-01    0.6941070380E-01    0.6495339876E+00
    0.1700000000E+05    0.5923250791E+00    0.9840070828E-02    0.2124424585E-01    0.6970246369E-01    0.6505225956E+00
    0.1900000000E+05    0.5941554436E+00    0.9208411878E-02    0.2124992840E-01    0.6993073000E-01    0.6513460366E+00
    0.2100000000E+05    0.5956151687E+00    0.8686509269E-02    0.2125362479E-01    0.7011423741E-01    0.6520455796E+00
    0.2300000000E+05    0.5968051707E+00    0.8246151206E-02    0.2125588950E-01    0.7026504455E-01    0.6526494007E+00
    0.2500000000E+05    0.5977930609E+00    0.7868222498E-02    0.2125709870E-01    0.7039125093E-01    0.6531774717E+00
    0.2700000000E+05    0.5986257605E+00    0.7539287607E-02    0.2125751564E-01    0.7049849193E-01    0.6536443915E+00
    0.2900000000E+05    0.5993368099E+00    0.7249609086E-02    0.2125732928E-01    0.7059080641E-01    0.6540611093E+00
    0.3100000000E+05    0.5999507971E+00    0.6991944015E-02    0.2125667822E-01    0.7067116296E-01    0.6544360177E+00
    0.3300000000E+05    0.6004861433E+00    0.6760783708E-02    0.2125566604E-01    0.7074179152E-01    0.6547756713E+00
    0.3500000000E+05    0.6009569129E+00    0.6551856963E-02    0.2125437134E-01    0.7080439921E-01    0.6550852731E+00
    0.3700000000E+05    0.6013740242E+00    0.6361795874E-02    0.2125285461E-01    0.7086031481E-01    0.6553690124E+00
    0.3900000000E+05    0.6017460787E+00    0.6187905166E-02    0.2125116294E-01    0.7091058800E-01    0.6556303052E+00
    0.4100000000E+05    0.6020799421E+00    0.6027999350E-02    0.2124933339E-01    0.7095605890E-01    0.6558719681E+00
    0.4300000000E+05    0.6023811597E+00    0.5880285426E-02    0.2124739537E-01    0.7099740790E-01    0.6560963469E+00
    0.4500000000E+05    0.6026542578E+00    0.5743276856E-02    0.2124537242E-01    0.7103519188E-01    0.6563054136E+00
    0.4700000000E+05    0.6029029668E+00    0.5615729449E-02    0.2124328354E-01    0.7106987106E-01    0.6565008387E+00
    0.4900000000E+05    0.6031303881E+00    0.5496592875E-02    0.2124114409E-01    0.7110182912E-01    0.6566840487E+00
    0.1000000000E+05    0.5795419481E+00    0.1386830689E-01    0.2119050310E-01    0.6813988853E-01    0.6458172310E+00
    0.3000000000E+05    0.5996546653E+00    0.7117153005E-02    0.2125705468E-01    0.7063232571E-01    0.6542533435E+00
    0.5000000000E+05    0.6032369449E+00    0.5439894104E-02    0.2124005941E-01    0.7111689053E-01    0.6567714630E+00
    0.7000000000E+05    0.6047050888E+00    0.4586957315E-02    0.2121777544E-01    0.7133193597E-01    0.6581021821E+00
    0.9000000000E+05    0.6054995009E+00    0.4046457783E-02    0.2119651558E-01    0.7145727547E-01    0.6589586311E+00
    0.1100000000E+06    0.6059956052E+00    0.3664040500E-02    0.2117711222E-01    0.7154122372E-01    0.6595697455E+00
    0.1300000000E+06    0.6063339432E+00    0.3374792500E-02    0.2115950174E-01    0.7160239705E-01    0.6600345750E+00
    0.1500000000E+06    0.6065788920E+00    0.3145961471E-02    0.2114346238E-01    0.7164956366E-01    0.6604038785E+00
    0.1700000000E+06    0.6067640629E+00    0.2958973470E-02    0.2112876995E-01    0.7168742694E-01    0.6607067156E+00
    0.1900000000E+06    0.6069087026E+00    0.2802395935E-02    0.2111523054E-01    0.7171875203E-01    0.6609610854E+00
    0.2100000000E+06    0.6070246186E+00    0.2668750580E-02    0.2110268320E-01    0.7174527953E-01    0.6611788128E+00
    0.2300000000E+06    0.6071194527E+00    0.2552910006E-02    0.2109099568E-01    0.7176816462E-01    0.6613680313E+00
    0.2500000000E+06    0.6071983666E+00    0.2451224218E-02    0.2108005909E-01    0.7178820702E-01    0.6615345453E+00
    0.2700000000E+06    0.6072649715E+00    0.2361014021E-02    0.2106978327E-01    0.7180597984E-01    0.6616826234E+00
    0.2900000000E+06    0.6073218682E+00    0.2280261957E-02    0.2106009295E-01    0.7182190574E-01    0.6618154852E+00
    0.3100000000E+06    0.6073709771E+00    0.2207415682E-02    0.2105092482E-01    0.7183630409E-01    0.6619356114E+00
    0.3300000000E+06    0.6074137462E+00    0.2141258409E-02    0.2104222517E-01    0.7184942126E-01    0.6620449488E+00
    0.3500000000E+06    0.6074512882E+00    0.2080820939E-02    0.2103394811E-01    0.7186145079E-01    0.6621450495E+00
    0.3700000000E+06    0.6074844713E+00    0.2025320347E-02    0.2102605413E-01    0.7187254711E-01    0.6622371688E+00
    0.3900000000E+06    0.6075139832E+00    0.1974116288E-02    0.2101850899E-01    0.7188283516E-01    0.6623223340E+00
    0.4100000000E+06    0.6075403755E+00    0.1926679213E-02    0.2101128284E-01    0.7189241728E-01    0.6624013957E+00
    0.4300000000E+06    0.6075640954E+00    0.1882566852E-02    0.2100434951E-01    0.7190137824E-01    0.6624750645E+00
    0.4500000000E+06    0.6075855095E+00    0.1841406524E-02    0.2099768590E-01    0.7190978891E-01    0.6625439400E+00
    0.4700000000E+06    0.6076049208E+00    0.1802881644E-02    0.2099127157E-01    0.7191770913E-01    0.6626085317E+00
    0.4900000000E+06    0.6076225822E+00    0.1766721306E-02    0.2098508830E-01    0.7192518978E-01    0.6626692759E+00
    0.1000000000E+06    0.6057733603E+00    0.3840649299E-02    0.2118657852E-01    0.7150291375E-01    0.6592870212E+00
    0.3000000000E+06    0.6073472964E+00    0.2242933320E-02    0.2105544717E-01    0.7182927903E-01    0.6618770080E+00
    0.5000000000E+06    0.6076308245E+00    0.1749453627E-02    0.2098207816E-01    0.7192877915E-01    0.6626983248E+00
    0.7000000000E+06    0.6077411196E+00    0.1485492565E-02    0.2093082992E-01    0.7198542267E-01    0.6631463029E+00
    0.9000000000E+06    0.6077962490E+00    0.1314681096E-02    0.2089132985E-01    0.7202456440E-01    0.6634411622E+00
    0.1100000000E+07    0.6078274011E+00    0.1192500103E-02    0.2085914614E-01    0.7205432558E-01    0.6636553131E+00
    0.1300000000E+07    0.6078462247E+00    0.1099486110E-02    0.2083196789E-01    0.7207827734E-01    0.6638206224E+00
    0.1500000000E+07    0.6078580003E+00    0.1025593245E-02    0.2080843452E-01    0.7209829150E-01    0.6639536415E+00
    0.1700000000E+07    0.6078654423E+00    0.9650403079E-03    0.2078767618E-01    0.7211546665E-01    0.6640639534E+00
    0.1900000000E+07    0.6078700754E+00    0.9142326921E-03    0.2076910248E-01    0.7213050070E-01    0.6641575510E+00
    0.2100000000E+07    0.6078728142E+00    0.8708018189E-03    0.2075229406E-01    0.7214386382E-01    0.6642384054E+00
    0.2300000000E+07    0.6078742364E+00    0.8331147726E-03    0.2073694222E-01    0.7215588748E-01    0.6643092689E+00
    0.2500000000E+07    0.6078747218E+00    0.8000042229E-03    0.2072281299E-01    0.7216681386E-01    0.6643721194E+00
    0.2700000000E+07    0.6078745284E+00    0.7706104618E-03    0.2070972480E-01    0.7217682521E-01    0.6644284210E+00
    0.2900000000E+07    0.6078738365E+00    0.7442843887E-03    0.2069753387E-01    0.7218606206E-01    0.6644792842E+00
    0.3100000000E+07    0.6078727747E+00    0.7205254609E-03    0.2068612437E-01    0.7219463498E-01    0.6645255697E+00
    0.3300000000E+07    0.6078714368E+00    0.6989406278E-03    0.2067540162E-01    0.7220263253E-01    0.6645679563E+00
    0.3500000000E+07    0.6078698922E+00    0.6792163432E-03    0.2066528722E-01    0.7221012673E-01    0.6646069878E+00
    0.3700000000E+07    0.6078681929E+00    0.6610990025E-03    0.2065571551E-01    0.7221717690E-01    0.6646431062E+00
    0.3900000000E+07    0.6078663784E+00    0.6443809602E-03    0.2064663093E-01    0.7222383250E-01    0.6646766748E+00
    0.4100000000E+07    0.6078644791E+00    0.6288903409E-03    0.2063798608E-01    0.7223013517E-01    0.6647079953E+00
    0.4300000000E+07    0.6078625185E+00    0.6144834814E-03    0.2062974017E-01    0.7223612033E-01    0.6647373214E+00
    0.4500000000E+07    0.6078605148E+00    0.6010392395E-03    0.2062185786E-01    0.7224181832E-01    0.6647648674E+00
    0.4700000000E+07    0.6078584824E+00    0.5884546455E-03    0.2061430829E-01    0.7224725534E-01    0.6647908163E+00
    0.4900000000E+07    0.6078564327E+00    0.5766415386E-03    0.2060706441E-01    0.7225245418E-01    0.6648153255E+00
    0.1000000000E+07    0.6078138687E+00    0.1249047725E-02    0.2087449844E-01    0.7204033674E-01    0.6635558159E+00
    0.3000000000E+07    0.6078733453E+00    0.7321107386E-03    0.2069173779E-01    0.7219042553E-01    0.6645029531E+00
    0.5000000000E+07    0.6078554041E+00    0.5710001321E-03    0.2060354952E-01    0.7225497061E-01    0.6648270834E+00
    0.7000000000E+07    0.6078353046E+00    0.4847484511E-03    0.2054473882E-01    0.7229654621E-01    0.6650117552E+00
    0.9000000000E+07    0.6078172405E+00    0.4289301795E-03    0.2050052282E-01    0.7232725753E-01    0.6651372581E+00
    0.1100000000E+08    0.6078013391E+00    0.3890073583E-03    0.2046507059E-01    0.7235161640E-01    0.6652307720E+00
    0.1300000000E+08    0.6077872682E+00    0.3586190501E-03    0.2043547296E-01    0.7237180335E-01    0.6653045232E+00
    0.1500000000E+08    0.6077746958E+00    0.3344811479E-03    0.2041006621E-01    0.7238903952E-01    0.6653649774E+00
    0.1700000000E+08    0.6077633528E+00    0.3147035290E-03    0.2038780884E-01    0.7240407798E-01    0.6654159358E+00
    0.1900000000E+08    0.6077530293E+00    0.2981109552E-03    0.2036800525E-01    0.7241741598E-01    0.6654598083E+00
    0.2100000000E+08    0.6077435615E+00    0.2839290633E-03    0.2035016768E-01    0.7242939908E-01    0.6654982109E+00
    0.2300000000E+08    0.6077348209E+00    0.2716240344E-03    0.2033394083E-01    0.7244027722E-01    0.6655322763E+00
    0.2500000000E+08    0.6077267050E+00    0.2608142832E-03    0.2031905780E-01    0.7245023699E-01    0.6655628268E+00
    0.2700000000E+08    0.6077191312E+00    0.2512188041E-03    0.2030531302E-01    0.7245942138E-01    0.6655904766E+00
