  Pressure (Pa) 22mC5-400 (mol/kg) 2mC6-400 (mol/kg) 3mC6-400 (mol/kg) 23mC5-400 (mol/kg) C7-400 (mol/kg)
    0.1000000000E+01    0.1592911220E-02    0.7876115650E-03    0.4168795021E-02    0.1864649139E-03    0.1014766883E-01
    0.3000000000E+01    0.4746570797E-02    0.2272233131E-02    0.1198121843E-01    0.5556328036E-03    0.2917071338E-01
    0.5000000000E+01    0.7858154474E-02    0.3648078669E-02    0.1916427693E-01    0.9198792561E-03    0.4666876512E-01
    0.7000000000E+01    0.1092860584E-01    0.4927582031E-02    0.2579140869E-01    0.1279314617E-02    0.6281948637E-01
    0.9000000000E+01    0.1395883986E-01    0.6121285582E-02    0.3192504065E-01    0.1634045886E-02    0.7777392198E-01
    0.1100000000E+02    0.1694974396E-01    0.7238187543E-02    0.3761857829E-01    0.1984176842E-02    0.9166130693E-01
    0.1300000000E+02    0.1990217906E-01    0.8286015753E-02    0.4291797902E-01    0.2329808162E-02    0.1045928682E+00
    0.1500000000E+02    0.2281698051E-01    0.9271445377E-02    0.4786300731E-01    0.2671037540E-02    0.1166648577E+00
    0.1700000000E+02    0.2569495908E-01    0.1020027345E-01    0.5248824430E-01    0.3007959789E-02    0.1279609928E+00
    0.1900000000E+02    0.2853690184E-01    0.1107755991E-01    0.5682390608E-01    0.3340666951E-02    0.1385544333E+00
    0.2100000000E+02    0.3134357298E-01    0.1190774234E-01    0.6089651176E-01    0.3669248398E-02    0.1485093970E+00
    0.2300000000E+02    0.3411571468E-01    0.1269472996E-01    0.6472943237E-01    0.3993790923E-02    0.1578824861E+00
    0.2500000000E+02    0.3685404787E-01    0.1344198115E-01    0.6834334481E-01    0.4314378837E-02    0.1667237848E+00
    0.2700000000E+02    0.3955927300E-01    0.1415256766E-01    0.7175660948E-01    0.4631094055E-02    0.1750777726E+00
    0.2900000000E+02    0.4223207073E-01    0.1482922819E-01    0.7498558603E-01    0.4944016177E-02    0.1829840873E+00
    0.3100000000E+02    0.4487310265E-01    0.1547441328E-01    0.7804489891E-01    0.5253222576E-02    0.1904781675E+00
    0.3300000000E+02    0.4748301193E-01    0.1609032317E-01    0.8094766161E-01    0.5558788470E-02    0.1975917948E+00
    0.3500000000E+02    0.5006242397E-01    0.1667893973E-01    0.8370566709E-01    0.5860786996E-02    0.2043535543E+00
    0.3700000000E+02    0.5261194699E-01    0.1724205370E-01    0.8632955003E-01    0.6159289285E-02    0.2107892273E+00
    0.3900000000E+02    0.5513217261E-01    0.1778128791E-01    0.8882892579E-01    0.6454364527E-02    0.2169221268E+00
    0.4100000000E+02    0.5762367643E-01    0.1829811716E-01    0.9121250975E-01    0.6746080039E-02    0.2227733872E+00
    0.4300000000E+02    0.6008701858E-01    0.1879388534E-01    0.9348822035E-01    0.7034501326E-02    0.2283622127E+00
    0.4500000000E+02    0.6252274420E-01    0.1926982021E-01    0.9566326821E-01    0.7319692142E-02    0.2337060935E+00
    0.4700000000E+02    0.6493138395E-01    0.1972704620E-01    0.9774423360E-01    0.7601714550E-02    0.2388209927E+00
    0.4900000000E+02    0.6731345451E-01    0.2016659555E-01    0.9973713387E-01    0.7880628974E-02    0.2437215102E+00
    0.1000000000E+02    0.1545915373E-01    0.6688826786E-02    0.3482379042E-01    0.1809680039E-02    0.8484366085E-01
    0.3000000000E+02    0.4355651679E-01    0.1515561218E-01    0.7653559781E-01    0.5099079092E-02    0.1867805904E+00
    0.5000000000E+02    0.6849468409E-01    0.2038004126E-01    0.1007023008E+00    0.8018939141E-02    0.2460956010E+00
    0.7000000000E+02    0.9084023473E-01    0.2391590329E-01    0.1165026299E+00    0.1063552126E-01    0.2850419683E+00
    0.9000000000E+02    0.1110281169E+00    0.2641893308E-01    0.1276564268E+00    0.1299969389E-01    0.3126514247E+00
    0.1100000000E+03    0.1293978245E+00    0.2822731439E-01    0.1359595076E+00    0.1515116300E-01    0.3332904968E+00
    0.1300000000E+03    0.1462183100E+00    0.2953993034E-01    0.1423860779E+00    0.1712138511E-01    0.3493313751E+00
    0.1500000000E+03    0.1617055069E+00    0.3048467220E-01    0.1475108209E+00    0.1893561633E-01    0.3621754221E+00
    0.1700000000E+03    0.1760348901E+00    0.3114908067E-01    0.1516948921E+00    0.2061438114E-01    0.3727045771E+00
    0.1900000000E+03    0.1893506330E+00    0.3159582341E-01    0.1551767943E+00    0.2217454319E-01    0.3815020964E+00
    0.2100000000E+03    0.2017723874E+00    0.3187126844E-01    0.1581204480E+00    0.2363009827E-01    0.3889694189E+00
    0.2300000000E+03    0.2134003746E+00    0.3201059107E-01    0.1606422780E+00    0.2499276956E-01    0.3953920741E+00
    0.2500000000E+03    0.2243192565E+00    0.3204099709E-01    0.1628272835E+00    0.2627246044E-01    0.4009788181E+00
    0.2700000000E+03    0.2346011142E+00    0.3198385318E-01    0.1647389904E+00    0.2747760283E-01    0.4058858908E+00
    0.2900000000E+03    0.2443077655E+00    0.3185614884E-01    0.1664258426E+00    0.2861542819E-01    0.4102326068E+00
    0.3100000000E+03    0.2534925848E+00    0.3167153044E-01    0.1679254357E+00    0.2969218044E-01    0.4141116931E+00
    0.3300000000E+03    0.2622019469E+00    0.3144105127E-01    0.1692673989E+00    0.3071328471E-01    0.4175963311E+00
    0.3500000000E+03    0.2704763811E+00    0.3117372708E-01    0.1704754033E+00    0.3168348245E-01    0.4207450688E+00
    0.3700000000E+03    0.2783515024E+00    0.3087695477E-01    0.1715685912E+00    0.3260694025E-01    0.4236053183E+00
    0.3900000000E+03    0.2858587674E+00    0.3055683282E-01    0.1725626117E+00    0.3348733829E-01    0.4262158944E+00
    0.4100000000E+03    0.2930260932E+00    0.3021840969E-01    0.1734703848E+00    0.3432794272E-01    0.4286088871E+00
    0.4300000000E+03    0.2998783669E+00    0.2986587844E-01    0.1743026725E+00    0.3513166525E-01    0.4308110642E+00
    0.4500000000E+03    0.3064378678E+00    0.2950273095E-01    0.1750685126E+00    0.3590111258E-01    0.4328449351E+00
    0.4700000000E+03    0.3127246199E+00    0.2913188098E-01    0.1757755510E+00    0.3663862754E-01    0.4347295699E+00
    0.4900000000E+03    0.3187566867E+00    0.2875576329E-01    0.1764303007E+00    0.3734632365E-01    0.4364812349E+00
    0.1000000000E+03    0.1204220140E+00    0.2739533381E-01    0.1320908202E+00    0.1409988441E-01    0.3236633951E+00
    0.3000000000E+03    0.2489623564E+00    0.3177020958E-01    0.1671970350E+00    0.2916108192E-01    0.4122256375E+00
    0.5000000000E+03    0.3216823839E+00    0.2856637903E-01    0.1767398436E+00    0.3768959466E-01    0.4373116454E+00
    0.7000000000E+03    0.3700875719E+00    0.2484618754E-01    0.1811971885E+00    0.4337124719E-01    0.4494754827E+00
    0.9000000000E+03    0.4049630247E+00    0.2161187046E-01    0.1837725090E+00    0.4746809454E-01    0.4567583011E+00
    0.1100000000E+04    0.4313290172E+00    0.1895467620E-01    0.1854440681E+00    0.5056775752E-01    0.4616516687E+00
    0.1300000000E+04    0.4519413153E+00    0.1679412013E-01    0.1866121484E+00    0.5299288888E-01    0.4651890810E+00
    0.1500000000E+04    0.4684698431E+00    0.1503086272E-01    0.1874711804E+00    0.5493906464E-01    0.4678791421E+00
    0.1700000000E+04    0.4819948037E+00    0.1357952319E-01    0.1881270403E+00    0.5653283121E-01    0.4700023292E+00
    0.1900000000E+04    0.4932484008E+00    0.1237287238E-01    0.1886423163E+00    0.5785999115E-01    0.4717264934E+00
    0.2100000000E+04    0.5027450068E+00    0.1135935171E-01    0.1890563754E+00    0.5898083768E-01    0.4731584833E+00
    0.2300000000E+04    0.5108564594E+00    0.1049962401E-01    0.1893952124E+00    0.5993896866E-01    0.4743696870E+00
    0.2500000000E+04    0.5178580107E+00    0.9763569778E-02    0.1896766775E+00    0.6076666623E-01    0.4754096952E+00
    0.2700000000E+04    0.5239575650E+00    0.9127957115E-02    0.1899134298E+00    0.6148832048E-01    0.4763140799E+00
    0.2900000000E+04    0.5293149202E+00    0.8574705460E-02    0.1901146931E+00    0.6212268309E-01    0.4771090526E+00
    0.3100000000E+04    0.5340547946E+00    0.8089609021E-02    0.1902873441E+00    0.6268439324E-01    0.4778143741E+00
    0.3300000000E+04    0.5382758586E+00    0.7661399691E-02    0.1904366122E+00    0.6318503575E-01    0.4784452383E+00
    0.3500000000E+04    0.5420571290E+00    0.7281056430E-02    0.1905665432E+00    0.6363389051E-01    0.4790135293E+00
    0.3700000000E+04    0.5454625811E+00    0.6941292851E-02    0.1906803150E+00    0.6403847287E-01    0.4795286840E+00
    0.3900000000E+04    0.5485445284E+00    0.6636173918E-02    0.1907804570E+00    0.6440492993E-01    0.4799982957E+00
    0.4100000000E+04    0.5513461371E+00    0.6360826734E-02    0.1908690072E+00    0.6473833531E-01    0.4804285479E+00
    0.4300000000E+04    0.5539033220E+00    0.6111220388E-02    0.1909476248E+00    0.6504291146E-01    0.4808245299E+00
    0.4500000000E+04    0.5562461925E+00    0.5883996897E-02    0.1910176740E+00    0.6532219926E-01    0.4811904708E+00
    0.4700000000E+04    0.5584001690E+00    0.5676340273E-02    0.1910802862E+00    0.6557918897E-01    0.4815299158E+00
    0.4900000000E+04    0.5603868528E+00    0.5485874288E-02    0.1911364074E+00    0.6581642231E-01    0.4818458602E+00
    0.1000000000E+04    0.4190033163E+00    0.2021493229E-01    0.1846891284E+00    0.4911841177E-01    0.4594210016E+00
    0.3000000000E+04    0.5317553505E+00    0.8324401841E-02    0.1902042360E+00    0.6241183409E-01    0.4774718802E+00
    0.5000000000E+04    0.5613233375E+00    0.5396445301E-02    0.1911622878E+00    0.6592832210E-01    0.4819958315E+00
    0.7000000000E+04    0.5745977096E+00    0.4151764412E-02    0.1914793101E+00    0.6752095037E-01    0.4842190047E+00
    0.9000000000E+04    0.5820767601E+00    0.3464654079E-02    0.1915977080E+00    0.6842624326E-01    0.4855946171E+00
    0.1100000000E+05    0.5868596445E+00    0.3025368078E-02    0.1916342723E+00    0.6901033783E-01    0.4865536627E+00
    0.1300000000E+05    0.5901760060E+00    0.2717332278E-02    0.1916317956E+00    0.6941894101E-01    0.4872729890E+00
    0.1500000000E+05    0.5926082719E+00    0.2487344042E-02    0.1916090958E+00    0.6972127431E-01    0.4878397763E+00
    0.1700000000E+05    0.5944672067E+00    0.2307727277E-02    0.1915754701E+00    0.6995438278E-01    0.4883024722E+00
    0.1900000000E+05    0.5959335032E+00    0.2162655166E-02    0.1915358932E+00    0.7013987069E-01    0.4886903854E+00
    0.2100000000E+05    0.5971192861E+00    0.2042405198E-02    0.1914931809E+00    0.7029118434E-01    0.4890224083E+00
    0.2300000000E+05    0.5980977737E+00    0.1940660946E-02    0.1914489918E+00    0.7041713061E-01    0.4893113347E+00
    0.2500000000E+05    0.5989187844E+00    0.1853130397E-02    0.1914043299E+00    0.7052371979E-01    0.4895661771E+00
    0.2700000000E+05    0.5996173820E+00    0.1776787945E-02    0.1913598122E+00    0.7061519478E-01    0.4897934924E+00
    0.2900000000E+05    0.6002189554E+00    0.1709434430E-02    0.1913158200E+00    0.7069463702E-01    0.4899981813E+00
    0.3100000000E+05    0.6007423365E+00    0.1649429525E-02    0.1912725863E+00    0.7076433895E-01    0.4901839910E+00
    0.3300000000E+05    0.6012017867E+00    0.1595522378E-02    0.1912302497E+00    0.7082604186E-01    0.4903538432E+00
    0.3500000000E+05    0.6016083029E+00    0.1546740739E-02    0.1911888874E+00    0.7088109242E-01    0.4905100547E+00
    0.3700000000E+05    0.6019704997E+00    0.1502316208E-02    0.1911485362E+00    0.7093054877E-01    0.4906544902E+00
    0.3900000000E+05    0.6022952215E+00    0.1461632528E-02    0.1911092066E+00    0.7097525408E-01    0.4907886703E+00
    0.4100000000E+05    0.6025879741E+00    0.1424189011E-02    0.1910708916E+00    0.7101588863E-01    0.4909138492E+00
    0.4300000000E+05    0.6028532365E+00    0.1389574127E-02    0.1910335730E+00    0.7105300751E-01    0.4910310726E+00
    0.4500000000E+05    0.6030946895E+00    0.1357446101E-02    0.1909972253E+00    0.7108706822E-01    0.4911412201E+00
    0.4700000000E+05    0.6033153859E+00    0.1327518423E-02    0.1909618188E+00    0.7111845132E-01    0.4912450383E+00
    0.4900000000E+05    0.6035178786E+00    0.1299548872E-02    0.1909273211E+00    0.7114747600E-01    0.4913431653E+00
    0.1000000000E+05    0.5847058047E+00    0.3223563141E-02    0.1916226926E+00    0.6874666897E-01    0.4861120595E+00
    0.3000000000E+05    0.6004894394E+00    0.1678599190E-02    0.1912940979E+00    0.7073058591E-01    0.4900932471E+00
    0.5000000000E+05    0.6036129843E+00    0.1286232692E-02    0.1909104026E+00    0.7116118989E-01    0.4913902695E+00
    0.7000000000E+05    0.6049389605E+00    0.1085559591E-02    0.1906118171E+00    0.7135950221E-01    0.4921342560E+00
    0.9000000000E+05    0.6056693168E+00    0.9581120100E-03    0.1903711093E+00    0.7147729975E-01    0.4926471904E+00
    0.1100000000E+06    0.6061302636E+00    0.8678432626E-03    0.1901700666E+00    0.7155710766E-01    0.4930352946E+00
    0.1300000000E+06    0.6064467815E+00    0.7995270291E-03    0.1899975943E+00    0.7161571097E-01    0.4933459224E+00
    0.1500000000E+06    0.6066770008E+00    0.7454615260E-03    0.1898466091E+00    0.7166114256E-01    0.4936040639E+00
    0.1700000000E+06    0.6068516035E+00    0.7012722977E-03    0.1897123504E+00    0.7169776090E-01    0.4938244332E+00
    0.1900000000E+06    0.6069883023E+00    0.6642640698E-03    0.1895914746E+00    0.7172815054E-01    0.4940163886E+00
    0.2100000000E+06    0.6070980326E+00    0.6326725834E-03    0.1894815477E+00    0.7175394933E-01    0.4941862341E+00
    0.2300000000E+06    0.6071879072E+00    0.6052876034E-03    0.1893807434E+00    0.7177625015E-01    0.4943384094E+00
    0.2500000000E+06    0.6072627502E+00    0.5812473037E-03    0.1892876573E+00    0.7179581295E-01    0.4944761546E+00
    0.2700000000E+06    0.6073259476E+00    0.5599189150E-03    0.1892011862E+00    0.7181318435E-01    0.4946019032E+00
    0.2900000000E+06    0.6073799451E+00    0.5408258608E-03    0.1891204479E+00    0.7182876870E-01    0.4947175281E+00
    0.3100000000E+06    0.6074265527E+00    0.5236013818E-03    0.1890447258E+00    0.7184287237E-01    0.4948245001E+00
    0.3300000000E+06    0.6074671378E+00    0.5079579642E-03    0.1889734301E+00    0.7185573225E-01    0.4949239947E+00
    0.3500000000E+06    0.6075027530E+00    0.4936665749E-03    0.1889060692E+00    0.7186753480E-01    0.4950169656E+00
    0.3700000000E+06    0.6075342210E+00    0.4805421869E-03    0.1888422295E+00    0.7187842906E-01    0.4951041969E+00
    0.3900000000E+06    0.6075621940E+00    0.4684334594E-03    0.1887815593E+00    0.7188853581E-01    0.4951863408E+00
    0.4100000000E+06    0.6075871956E+00    0.4572152323E-03    0.1887237571E+00    0.7189795411E-01    0.4952639456E+00
    0.4300000000E+06    0.6076096511E+00    0.4467829695E-03    0.1886685629E+00    0.7190676611E-01    0.4953374761E+00
    0.4500000000E+06    0.6076299091E+00    0.4370485807E-03    0.1886157502E+00    0.7191504059E-01    0.4954073301E+00
    0.4700000000E+06    0.6076482580E+00    0.4279372334E-03    0.1885651211E+00    0.7192283565E-01    0.4954738503E+00
    0.4900000000E+06    0.6076649388E+00    0.4193848905E-03    0.1885165013E+00    0.7193020078E-01    0.4955373342E+00
    0.1000000000E+06    0.6059233025E+00    0.9095397513E-03    0.1902664451E+00    0.7152059767E-01    0.4928531316E+00
    0.3000000000E+06    0.6074040785E+00    0.5319995956E-03    0.1890819993E+00    0.7183598944E-01    0.4947720163E+00
    0.5000000000E+06    0.6076727182E+00    0.4153008031E-03    0.1884928960E+00    0.7193373562E-01    0.4955680199E+00
    0.7000000000E+06    0.6077763134E+00    0.3528621007E-03    0.1880967237E+00    0.7198958985E-01    0.4960710431E+00
    0.9000000000E+06    0.6078274007E+00    0.3124475116E-03    0.1877975807E+00    0.7202825538E-01    0.4964380032E+00
    0.1100000000E+07    0.6078557560E+00    0.2835323158E-03    0.1875570719E+00    0.7205768703E-01    0.4967264308E+00
    0.1300000000E+07    0.6078724858E+00    0.2615149139E-03    0.1873558906E+00    0.7208139208E-01    0.4969637900E+00
    0.1500000000E+07    0.6078826118E+00    0.2440200873E-03    0.1871829403E+00    0.7210121187E-01    0.4971653127E+00
    0.1700000000E+07    0.6078887070E+00    0.2296808461E-03    0.1870312497E+00    0.7211822831E-01    0.4973403180E+00
    0.1900000000E+07    0.6078922110E+00    0.2176471637E-03    0.1868961510E+00    0.7213312932E-01    0.4974949182E+00
    0.2100000000E+07    0.6078939842E+00    0.2073588903E-03    0.1867743641E+00    0.7214637864E-01    0.4976333370E+00
    0.2300000000E+07    0.6078945669E+00    0.1984298222E-03    0.1866634954E+00    0.7215830336E-01    0.4977586138E+00
    0.2500000000E+07    0.6078943130E+00    0.1905838491E-03    0.1865617446E+00    0.7216914262E-01    0.4978730078E+00
    0.2700000000E+07    0.6078934615E+00    0.1836176060E-03    0.1864677234E+00    0.7217907641E-01    0.4979782437E+00
    0.2900000000E+07    0.6078921783E+00    0.1773775346E-03    0.1863803386E+00    0.7218824358E-01    0.4980756675E+00
    0.3100000000E+07    0.6078905812E+00    0.1717452114E-03    0.1862987136E+00    0.7219675341E-01    0.4981663499E+00
    0.3300000000E+07    0.6078887553E+00    0.1666276371E-03    0.1862221351E+00    0.7220469345E-01    0.4982511562E+00
    0.3500000000E+07    0.6078867633E+00    0.1619506179E-03    0.1861500147E+00    0.7221213492E-01    0.4983307957E+00
    0.3700000000E+07    0.6078846517E+00    0.1576541392E-03    0.1860818613E+00    0.7221913650E-01    0.4984058571E+00
    0.3900000000E+07    0.6078824554E+00    0.1536890589E-03    0.1860172608E+00    0.7222574711E-01    0.4984768341E+00
    0.4100000000E+07    0.6078802012E+00    0.1500146972E-03    0.1859558607E+00    0.7223200796E-01    0.4985441449E+00
    0.4300000000E+07    0.6078779095E+00    0.1465970491E-03    0.1858973586E+00    0.7223795409E-01    0.4986081469E+00
    0.4500000000E+07    0.6078755958E+00    0.1434074384E-03    0.1858414931E+00    0.7224361555E-01    0.4986691477E+00
    0.4700000000E+07    0.6078732723E+00    0.1404214890E-03    0.1857880366E+00    0.7224901827E-01    0.4987274141E+00
    0.4900000000E+07    0.6078709484E+00    0.1376183288E-03    0.1857367898E+00    0.7225418480E-01    0.4987831791E+00
    0.1000000000E+07    0.6078435102E+00    0.2969156129E-03    0.1876714709E+00    0.7204384979E-01    0.4965899124E+00
    0.3000000000E+07    0.6078914130E+00    0.1744917234E-03    0.1863388540E+00    0.7219257475E-01    0.4981217931E+00
    0.5000000000E+07    0.6078697886E+00    0.1362795743E-03    0.1857119394E+00    0.7225668577E-01    0.4988101884E+00
    0.7000000000E+07    0.6078476554E+00    0.1158032058E-03    0.1852975223E+00    0.7229802175E-01    0.4992577423E+00
    0.9000000000E+07    0.6078282414E+00    0.1025425025E-03    0.1849874391E+00    0.7232857410E-01    0.4995894700E+00
    0.1100000000E+08    0.6078113543E+00    0.9305271711E-04    0.1847395820E+00    0.7235281692E-01    0.4998529586E+00
    0.1300000000E+08    0.6077965195E+00    0.8582589846E-04    0.1845331059E+00    0.7237291398E-01    0.5000714475E+00
    0.1500000000E+08    0.6077833308E+00    0.8008318166E-04    0.1843561536E+00    0.7239007766E-01    0.5002580307E+00
    0.1700000000E+08    0.6077714757E+00    0.7537614165E-04    0.1842013315E+00    0.7240505592E-01    0.5004208147E+00
    0.1900000000E+08    0.6077607171E+00    0.7142586908E-04    0.1840637171E+00    0.7241834279E-01    0.5005651665E+00
    0.2100000000E+08    0.6077508732E+00    0.6804853852E-04    0.1839398670E+00    0.7243028172E-01    0.5006948227E+00
    0.2300000000E+08    0.6077418028E+00    0.6511739443E-04    0.1838272781E+00    0.7244112113E-01    0.5008124894E+00
    0.2500000000E+08    0.6077333943E+00    0.6254180762E-04    0.1837240735E+00    0.7245104656E-01    0.5009201890E+00
    0.2700000000E+08    0.6077255584E+00    0.6025502265E-04    0.1836288096E+00    0.7246020020E-01    0.5010194724E+00
