  Pressure (Pa) 22mC5-400 (mol/kg) 2mC6-400 (mol/kg) 3mC6-400 (mol/kg) 23mC5-400 (mol/kg) C7-400 (mol/kg)
    0.1000000000E+01    0.1584365759E-02    0.6322795094E-02    0.3149533333E-02    0.1854650524E-03    0.1703612178E-02
    0.3000000000E+01    0.4672064036E-02    0.1835605422E-01    0.9178743764E-02    0.5469150825E-03    0.4965485382E-02
    0.5000000000E+01    0.7657535968E-02    0.2963324817E-01    0.1487486838E-01    0.8964055757E-03    0.8047931917E-02
    0.7000000000E+01    0.1054722923E-01    0.4021957851E-01    0.2026668723E-01    0.1234690759E-02    0.1096643468E-01
    0.9000000000E+01    0.1334704069E-01    0.5017300022E-01    0.2537970729E-01    0.1562460435E-02    0.1373471696E-01
    0.1100000000E+02    0.1606237465E-01    0.5954520337E-01    0.3023661731E-01    0.1880346790E-02    0.1636498686E-01
    0.1300000000E+02    0.1869819384E-01    0.6838243877E-01    0.3485766863E-01    0.2188930358E-02    0.1886814194E-01
    0.1500000000E+02    0.2125906411E-01    0.7672621599E-01    0.3926099585E-01    0.2488745256E-02    0.2125394158E-01
    0.1700000000E+02    0.2374919387E-01    0.8461389612E-01    0.4346288794E-01    0.2780283785E-02    0.2353115262E-01
    0.1900000000E+02    0.2617246878E-01    0.9207919765E-01    0.4747801864E-01    0.3064000499E-02    0.2570767328E-01
    0.2100000000E+02    0.2853248258E-01    0.9915262973E-01    0.5131964317E-01    0.3340315800E-02    0.2779063885E-01
    0.2300000000E+02    0.3083256431E-01    0.1058618650E+00    0.5499976666E-01    0.3609619132E-02    0.2978651224E-01
    0.2500000000E+02    0.3307580263E-01    0.1122320613E+00    0.5852928921E-01    0.3872271818E-02    0.3170116196E-01
    0.2700000000E+02    0.3526506739E-01    0.1182861410E+00    0.6191813105E-01    0.4128609587E-02    0.3353992940E-01
    0.2900000000E+02    0.3740302900E-01    0.1240450330E+00    0.6517534103E-01    0.4378944839E-02    0.3530768720E-01
    0.3100000000E+02    0.3949217569E-01    0.1295278846E+00    0.6830919101E-01    0.4623568662E-02    0.3700888995E-01
    0.3300000000E+02    0.4153482904E-01    0.1347522469E+00    0.7132725815E-01    0.4862752651E-02    0.3864761846E-01
    0.3500000000E+02    0.4353315790E-01    0.1397342368E+00    0.7423649691E-01    0.5096750535E-02    0.4022761847E-01
    0.3700000000E+02    0.4548919099E-01    0.1444886804E+00    0.7704330231E-01    0.5325799650E-02    0.4175233470E-01
    0.3900000000E+02    0.4740482819E-01    0.1490292393E+00    0.7975356554E-01    0.5550122261E-02    0.4322494072E-01
    0.4100000000E+02    0.4928185078E-01    0.1533685220E+00    0.8237272305E-01    0.5769926761E-02    0.4464836536E-01
    0.4300000000E+02    0.5112193074E-01    0.1575181834E+00    0.8490580004E-01    0.5985408754E-02    0.4602531611E-01
    0.4500000000E+02    0.5292663914E-01    0.1614890123E+00    0.8735744894E-01    0.6196752041E-02    0.4735829983E-01
    0.4700000000E+02    0.5469745375E-01    0.1652910108E+00    0.8973198373E-01    0.6404129511E-02    0.4864964117E-01
    0.4900000000E+02    0.5643576606E-01    0.1689334637E+00    0.9203341043E-01    0.6607703954E-02    0.4990149902E-01
    0.1000000000E+02    0.1471494739E-01    0.5492874470E-01    0.2783885724E-01    0.1722601598E-02    0.1506639380E-01
    0.3000000000E+02    0.3845355538E-01    0.1268198315E+00    0.6675719705E-01    0.4501953268E-02    0.3616634463E-01
    0.5000000000E+02    0.5729314664E-01    0.1706975815E+00    0.9315788270E-01    0.6708113336E-02    0.5051325461E-01
    0.7000000000E+02    0.7301613427E-01    0.1994061060E+00    0.1125882544E+00    0.8549604892E-02    0.6109544999E-01
    0.9000000000E+02    0.8660389399E-01    0.2190544357E+00    0.1276960494E+00    0.1014124456E-01    0.6934040578E-01
    0.1100000000E+03    0.9864586731E-01    0.2329067228E+00    0.1399141600E+00    0.1155199762E-01    0.7602122784E-01
    0.1300000000E+03    0.1095200173E+00    0.2428578405E+00    0.1500903880E+00    0.1282608791E-01    0.8159567643E-01
    0.1500000000E+03    0.1194813895E+00    0.2500785732E+00    0.1587610279E+00    0.1399335828E-01    0.8635352248E-01
    0.1700000000E+03    0.1287092787E+00    0.2553284344E+00    0.1662834414E+00    0.1507478861E-01    0.9048798878E-01
    0.1900000000E+03    0.1373340337E+00    0.2591198159E+00    0.1729058927E+00    0.1608563188E-01    0.9413339996E-01
    0.2100000000E+03    0.1454531170E+00    0.2618096942E+00    0.1788068460E+00    0.1703729305E-01    0.9738637828E-01
    0.2300000000E+03    0.1531411578E+00    0.2636535499E+00    0.1841182978E+00    0.1793850532E-01    0.1003184338E+00
    0.2500000000E+03    0.1604564825E+00    0.2648384418E+00    0.1889402605E+00    0.1879609424E-01    0.1029837828E+00
    0.2700000000E+03    0.1674454936E+00    0.2655040382E+00    0.1933500971E+00    0.1961549006E-01    0.1054243893E+00
    0.2900000000E+03    0.1741456880E+00    0.2657564050E+00    0.1974087336E+00    0.2040108086E-01    0.1076733212E+00
    0.3100000000E+03    0.1805877872E+00    0.2656772921E+00    0.2011649106E+00    0.2115646189E-01    0.1097570486E+00
    0.3300000000E+03    0.1867972735E+00    0.2653305341E+00    0.2046581638E+00    0.2188461527E-01    0.1116970546E+00
    0.3500000000E+03    0.1927955185E+00    0.2647665535E+00    0.2079209592E+00    0.2258804210E-01    0.1135109911E+00
    0.3700000000E+03    0.1986006269E+00    0.2640255893E+00    0.2109802520E+00    0.2326886109E-01    0.1152135220E+00
    0.3900000000E+03    0.2042280752E+00    0.2631400485E+00    0.2138586444E+00    0.2392888345E-01    0.1168169496E+00
    0.4100000000E+03    0.2096912041E+00    0.2621362444E+00    0.2165752584E+00    0.2456967040E-01    0.1183316876E+00
    0.4300000000E+03    0.2150016012E+00    0.2610357007E+00    0.2191464035E+00    0.2519257801E-01    0.1197666228E+00
    0.4500000000E+03    0.2201694027E+00    0.2598561389E+00    0.2215860933E+00    0.2579879247E-01    0.1211293951E+00
    0.4700000000E+03    0.2252035327E+00    0.2586122371E+00    0.2239064505E+00    0.2638935813E-01    0.1224266167E+00
    0.4900000000E+03    0.2301118963E+00    0.2573162175E+00    0.2261180276E+00    0.2696520010E-01    0.1236640461E+00
    0.1000000000E+03    0.9279084107E-01    0.2265644415E+00    0.1341038066E+00    0.1086604204E-01    0.7284259017E-01
    0.3000000000E+03    0.1773972990E+00    0.2657539342E+00    0.1993219712E+00    0.2078234858E-01    0.1087343912E+00
    0.5000000000E+03    0.2325211463E+00    0.2566519265E+00    0.2271859559E+00    0.2724786073E-01    0.1242619398E+00
    0.7000000000E+03    0.2754757997E+00    0.2423905394E+00    0.2445725456E+00    0.3228867888E-01    0.1340310670E+00
    0.9000000000E+03    0.3107968508E+00    0.2283617014E+00    0.2570773305E+00    0.3643555965E-01    0.1411012676E+00
    0.1100000000E+04    0.3405416973E+00    0.2156074411E+00    0.2667704853E+00    0.3992924691E-01    0.1466096900E+00
    0.1300000000E+04    0.3659283908E+00    0.2042598388E+00    0.2746408575E+00    0.4291227536E-01    0.1511015969E+00
    0.1500000000E+04    0.3877916970E+00    0.1942188640E+00    0.2812364562E+00    0.4548234183E-01    0.1548801696E+00
    0.1700000000E+04    0.4067520660E+00    0.1853302968E+00    0.2868922178E+00    0.4771207523E-01    0.1581312503E+00
    0.1900000000E+04    0.4232920663E+00    0.1774391113E+00    0.2918275945E+00    0.4965797704E-01    0.1609769227E+00
    0.2100000000E+04    0.4377969868E+00    0.1704054990E+00    0.2961940503E+00    0.5136516926E-01    0.1635016475E+00
    0.2300000000E+04    0.4505794128E+00    0.1641084397E+00    0.3001004347E+00    0.5287026771E-01    0.1657662530E+00
    0.2500000000E+04    0.4618956489E+00    0.1584449884E+00    0.3036275409E+00    0.5420330225E-01    0.1678159786E+00
    0.2700000000E+04    0.4719574821E+00    0.1533282057E+00    0.3068369437E+00    0.5538909203E-01    0.1696853657E+00
    0.2900000000E+04    0.4809409946E+00    0.1486848294E+00    0.3097766164E+00    0.5644827623E-01    0.1714013719E+00
    0.3100000000E+04    0.4889933614E+00    0.1444530899E+00    0.3124846396E+00    0.5739810908E-01    0.1729854295E+00
    0.3300000000E+04    0.4962381883E+00    0.1405808000E+00    0.3149917287E+00    0.5825308443E-01    0.1744548518E+00
    0.3500000000E+04    0.5027797562E+00    0.1370237373E+00    0.3173230046E+00    0.5902543231E-01    0.1758238186E+00
    0.3700000000E+04    0.5087064221E+00    0.1337442976E+00    0.3194992644E+00    0.5972551717E-01    0.1771040846E+00
    0.3900000000E+04    0.5140933642E+00    0.1307103837E+00    0.3215379115E+00    0.6036215901E-01    0.1783054991E+00
    0.4100000000E+04    0.5190048060E+00    0.1278944908E+00    0.3234536491E+00    0.6094289400E-01    0.1794363934E+00
    0.4300000000E+04    0.5234958292E+00    0.1252729551E+00    0.3252590063E+00    0.6147418666E-01    0.1805038748E+00
    0.4500000000E+04    0.5276138556E+00    0.1228253361E+00    0.3269647421E+00    0.6196160346E-01    0.1815140537E+00
    0.4700000000E+04    0.5313998640E+00    0.1205339079E+00    0.3285801603E+00    0.6240995540E-01    0.1824722196E+00
    0.4900000000E+04    0.5348893930E+00    0.1183832395E+00    0.3301133577E+00    0.6282341551E-01    0.1833829804E+00
    0.1000000000E+04    0.3262780902E+00    0.2218077966E+00    0.2621989778E+00    0.3825373065E-01    0.1440086239E+00
    0.3000000000E+04    0.4850753479E+00    0.1465209710E+00    0.3111575156E+00    0.5693589738E-01    0.1722087288E+00
    0.5000000000E+04    0.5365328034E+00    0.1173564085E+00    0.3308513734E+00    0.6301821503E-01    0.1838218654E+00
    0.7000000000E+04    0.5595485722E+00    0.1016962287E+00    0.3426291414E+00    0.6575350504E-01    0.1908721652E+00
    0.9000000000E+04    0.5720454928E+00    0.9159210998E-01    0.3507829975E+00    0.6724767344E-01    0.1958114191E+00
    0.1100000000E+05    0.5797242084E+00    0.8434578954E-01    0.3568943649E+00    0.6817173608E-01    0.1995508478E+00
    0.1300000000E+05    0.5848565935E+00    0.7879276232E-01    0.3617116408E+00    0.6879360391E-01    0.2025246475E+00
    0.1500000000E+05    0.5885007183E+00    0.7434274787E-01    0.3656441809E+00    0.6923828901E-01    0.2049717061E+00
    0.1700000000E+05    0.5912079633E+00    0.7066092337E-01    0.3689384458E+00    0.6957106766E-01    0.2070365965E+00
    0.1900000000E+05    0.5932909689E+00    0.6754113111E-01    0.3717533866E+00    0.6982902925E-01    0.2088129957E+00
    0.2100000000E+05    0.5949390148E+00    0.6484831213E-01    0.3741969781E+00    0.7003467673E-01    0.2103648120E+00
    0.2300000000E+05    0.5962728461E+00    0.6248960610E-01    0.3763456109E+00    0.7020239684E-01    0.2117374399E+00
    0.2500000000E+05    0.5973728433E+00    0.6039865555E-01    0.3782551301E+00    0.7034178861E-01    0.2129641887E+00
    0.2700000000E+05    0.5982944442E+00    0.5852652707E-01    0.3799674776E+00    0.7045948775E-01    0.2140701632E+00
    0.2900000000E+05    0.5990770426E+00    0.5683618249E-01    0.3815148747E+00    0.7056022067E-01    0.2150747140E+00
    0.3100000000E+05    0.5997493541E+00    0.5529896449E-01    0.3829225562E+00    0.7064744092E-01    0.2159930440E+00
    0.3300000000E+05    0.6003327770E+00    0.5389228074E-01    0.3842106162E+00    0.7072372827E-01    0.2168372956E+00
    0.3500000000E+05    0.6008435656E+00    0.5259802981E-01    0.3853952881E+00    0.7079104720E-01    0.2176173069E+00
    0.3700000000E+05    0.6012942777E+00    0.5140150264E-01    0.3864898544E+00    0.7085091917E-01    0.2183411498E+00
    0.3900000000E+05    0.6016947610E+00    0.5029059771E-01    0.3875053060E+00    0.7090454037E-01    0.2190155216E+00
    0.4100000000E+05    0.6020528422E+00    0.4925524889E-01    0.3884508293E+00    0.7095286389E-01    0.2196460348E+00
    0.4300000000E+05    0.6023748166E+00    0.4828700067E-01    0.3893341726E+00    0.7099665829E-01    0.2202374349E+00
    0.4500000000E+05    0.6026658029E+00    0.4737868776E-01    0.3901619239E+00    0.7103655012E-01    0.2207937666E+00
    0.4700000000E+05    0.6029300040E+00    0.4652418984E-01    0.3909397270E+00    0.7107305515E-01    0.2213185031E+00
    0.4900000000E+05    0.6031709018E+00    0.4571824139E-01    0.3916724492E+00    0.7110660182E-01    0.2218146466E+00
    0.1000000000E+05    0.5763028417E+00    0.8770409488E-01    0.3540359863E+00    0.6775924690E-01    0.1977975172E+00
    0.3000000000E+05    0.5994255052E+00    0.5604996556E-01    0.3822348207E+00    0.7060534172E-01    0.2155438362E+00
    0.5000000000E+05    0.6032835399E+00    0.4533202408E-01    0.3920232469E+00    0.7112238022E-01    0.2220528253E+00
    0.7000000000E+05    0.6048187915E+00    0.3931351584E-01    0.3974553213E+00    0.7134534540E-01    0.2258011909E+00
    0.9000000000E+05    0.6056344227E+00    0.3529573504E-01    0.4010345221E+00    0.7147319743E-01    0.2283456134E+00
    0.1100000000E+06    0.6061370729E+00    0.3235729225E-01    0.4036206766E+00    0.7155792690E-01    0.2302316096E+00
    0.1300000000E+06    0.6064763144E+00    0.3008214781E-01    0.4056010389E+00    0.7161921458E-01    0.2317088965E+00
    0.1500000000E+06    0.6067197888E+00    0.2825019776E-01    0.4071795375E+00    0.7166621386E-01    0.2329108297E+00
    0.1700000000E+06    0.6069024614E+00    0.2673225319E-01    0.4084752518E+00    0.7170378803E-01    0.2339162573E+00
    0.1900000000E+06    0.6070441919E+00    0.2544667138E-01    0.4095630475E+00    0.7173477478E-01    0.2347753179E+00
    0.2100000000E+06    0.6071570811E+00    0.2433891325E-01    0.4104926855E+00    0.7176094941E-01    0.2355216885E+00
    0.2300000000E+06    0.6072489141E+00    0.2337093358E-01    0.4112987110E+00    0.7178348417E-01    0.2361789782E+00
    0.2500000000E+06    0.6073249226E+00    0.2251525404E-01    0.4120059595E+00    0.7180318712E-01    0.2367643173E+00
    0.2700000000E+06    0.6073887496E+00    0.2175145323E-01    0.4126328074E+00    0.7182063518E-01    0.2372904916E+00
    0.2900000000E+06    0.6074430077E+00    0.2106398736E-01    0.4131931832E+00    0.7183625249E-01    0.2377672726E+00
    0.3100000000E+06    0.6074896189E+00    0.2044078265E-01    0.4136978624E+00    0.7185035862E-01    0.2382022802E+00
    0.3300000000E+06    0.6075300272E+00    0.1987229552E-01    0.4141553299E+00    0.7186319951E-01    0.2386015596E+00
    0.3500000000E+06    0.6075653383E+00    0.1935086695E-01    0.4145723694E+00    0.7187496792E-01    0.2389699797E+00
    0.3700000000E+06    0.6075964127E+00    0.1887026789E-01    0.4149544787E+00    0.7188581737E-01    0.2393115140E+00
    0.3900000000E+06    0.6076239297E+00    0.1842537218E-01    0.4153061665E+00    0.7189587184E-01    0.2396294435E+00
    0.4100000000E+06    0.6076484326E+00    0.1801191673E-01    0.4156311699E+00    0.7190523273E-01    0.2399265054E+00
    0.4300000000E+06    0.6076703611E+00    0.1762632260E-01    0.4159326162E+00    0.7191398390E-01    0.2402050049E+00
    0.4500000000E+06    0.6076900743E+00    0.1726555956E-01    0.4162131449E+00    0.7192219538E-01    0.2404669000E+00
    0.4700000000E+06    0.6077078686E+00    0.1692704211E-01    0.4164750012E+00    0.7192992622E-01    0.2407138659E+00
    0.4900000000E+06    0.6077239908E+00    0.1660854863E-01    0.4167201088E+00    0.7193722659E-01    0.2409473466E+00
    0.1000000000E+06    0.6059126069E+00    0.3372418249E-01    0.4024213630E+00    0.7151935053E-01    0.2293514130E+00
    0.3000000000E+06    0.6074671697E+00    0.2074499944E-01    0.4134519088E+00    0.7184347763E-01    0.2379895887E+00
    0.5000000000E+06    0.6077314907E+00    0.1645620022E-01    0.4168369092E+00    0.7194072902E-01    0.2410594277E+00
    0.7000000000E+06    0.6078298863E+00    0.1410637587E-01    0.4185977599E+00    0.7199597877E-01    0.2428250473E+00
    0.9000000000E+06    0.6078767989E+00    0.1256444775E-01    0.4197039622E+00    0.7203415828E-01    0.2440290498E+00
    0.1100000000E+07    0.6079018401E+00    0.1145094654E-01    0.4204723296E+00    0.7206320413E-01    0.2449271654E+00
    0.1300000000E+07    0.6079158840E+00    0.1059721019E-01    0.4210406959E+00    0.7208659666E-01    0.2456355110E+00
    0.1500000000E+07    0.6079237839E+00    0.9915169796E-02    0.4214797040E+00    0.7210615760E-01    0.2462158504E+00
    0.1700000000E+07    0.6079279975E+00    0.9353694581E-02    0.4218296836E+00    0.7212295542E-01    0.2467046397E+00
    0.1900000000E+07    0.6079298845E+00    0.8880768139E-02    0.4221154997E+00    0.7213766869E-01    0.2471250515E+00
    0.2100000000E+07    0.6079302486E+00    0.8475171123E-02    0.4223533947E+00    0.7215075457E-01    0.2474926578E+00
    0.2300000000E+07    0.6079295891E+00    0.8122202664E-02    0.4225544682E+00    0.7216253533E-01    0.2478183866E+00
    0.2500000000E+07    0.6079282290E+00    0.7811308835E-02    0.4227265859E+00    0.7217324650E-01    0.2481101780E+00
    0.2700000000E+07    0.6079263840E+00    0.7534688047E-02    0.4228754896E+00    0.7218306536E-01    0.2483739685E+00
    0.2900000000E+07    0.6079242018E+00    0.7286430498E-02    0.4230054770E+00    0.7219212863E-01    0.2486143036E+00
    0.3100000000E+07    0.6079217861E+00    0.7061965513E-02    0.4231198335E+00    0.7220054393E-01    0.2488347349E+00
    0.3300000000E+07    0.6079192105E+00    0.6857694409E-02    0.4232211169E+00    0.7220839747E-01    0.2490380860E+00
    0.3500000000E+07    0.6079165284E+00    0.6670739481E-02    0.4233113503E+00    0.7221575938E-01    0.2492266358E+00
    0.3700000000E+07    0.6079137785E+00    0.6498767994E-02    0.4233921561E+00    0.7222268745E-01    0.2494022485E+00
    0.3900000000E+07    0.6079109898E+00    0.6339866067E-02    0.4234648516E+00    0.7222922988E-01    0.2495664666E+00
    0.4100000000E+07    0.6079081834E+00    0.6192446518E-02    0.4235305182E+00    0.7223542725E-01    0.2497205797E+00
    0.4300000000E+07    0.6079053754E+00    0.6055180364E-02    0.4235900523E+00    0.7224131408E-01    0.2498656767E+00
    0.4500000000E+07    0.6079025776E+00    0.5926945121E-02    0.4236442037E+00    0.7224691997E-01    0.2500026840E+00
    0.4700000000E+07    0.6078997988E+00    0.5806785227E-02    0.4236936044E+00    0.7225227048E-01    0.2501323965E+00
    0.4900000000E+07    0.6078970457E+00    0.5693881369E-02    0.4237387913E+00    0.7225738784E-01    0.2502555004E+00
    0.1000000000E+07    0.6078911597E+00    0.1196740586E-01    0.4201194790E+00    0.7204954911E-01    0.2445072622E+00
    0.3000000000E+07    0.6079230180E+00    0.7171468247E-02    0.4230644348E+00    0.7219641145E-01    0.2487268162E+00
    0.5000000000E+07    0.6078956803E+00    0.5639925649E-02    0.4237599507E+00    0.7225986526E-01    0.2503147637E+00
    0.7000000000E+07    0.6078703502E+00    0.4811858933E-02    0.4240448023E+00    0.7230083668E-01    0.2512640533E+00
    0.9000000000E+07    0.6078488112E+00    0.4272697546E-02    0.4241817065E+00    0.7233114867E-01    0.2519306728E+00
    0.1100000000E+08    0.6078303745E+00    0.3885398630E-02    0.4242497686E+00    0.7235521759E-01    0.2524398579E+00
    0.1300000000E+08    0.6078143424E+00    0.3589611748E-02    0.4242810334E+00    0.7237518128E-01    0.2528495091E+00
    0.1500000000E+08    0.6078001908E+00    0.3354031097E-02    0.4242908603E+00    0.7239223849E-01    0.2531909118E+00
    0.1700000000E+08    0.6077875386E+00    0.3160572475E-02    0.4242874654E+00    0.7240712922E-01    0.2534827903E+00
    0.1900000000E+08    0.6077761050E+00    0.2997957584E-02    0.4242755964E+00    0.7242034251E-01    0.2537371966E+00
    0.2100000000E+08    0.6077656797E+00    0.2858736305E-02    0.4242581587E+00    0.7243221847E-01    0.2539623219E+00
    0.2300000000E+08    0.6077561011E+00    0.2737761572E-02    0.4242370099E+00    0.7244300324E-01    0.2541639748E+00
    0.2500000000E+08    0.6077472434E+00    0.2631347123E-02    0.4242133789E+00    0.7245288067E-01    0.2543464166E+00
    0.2700000000E+08    0.6077390063E+00    0.2536773733E-02    0.4241881014E+00    0.7246199173E-01    0.2545128619E+00
