  Pressure (Pa) 22mC5-400 (mol/kg) 2mC6-400 (mol/kg) 3mC6-400 (mol/kg) 23mC5-400 (mol/kg) C7-400 (mol/kg)
    0.1000000000E+01    0.1590810233E-02    0.1573388029E-02    0.5208230632E-03    0.5586574000E-03    0.1352307131E-01
    0.3000000000E+01    0.4728031381E-02    0.4528793789E-02    0.1495398102E-02    0.1660391971E-02    0.3883590983E-01
    0.5000000000E+01    0.7807652673E-02    0.7254725534E-02    0.2389837034E-02    0.2741913999E-02    0.6207744266E-01
    0.7000000000E+01    0.1083151957E-01    0.9777680371E-02    0.3213729137E-02    0.3803870973E-02    0.8349513727E-01
    0.9000000000E+01    0.1380139751E-01    0.1212007606E-01    0.3975188541E-02    0.4846882303E-02    0.1032984222E+00
    0.1100000000E+02    0.1671897615E-01    0.1430101453E-01    0.4681127572E-02    0.5871540822E-02    0.1216657322E+00
    0.1300000000E+02    0.1958587343E-01    0.1633688006E-01    0.5337471481E-02    0.6878414195E-02    0.1387500437E+00
    0.1500000000E+02    0.2240363930E-01    0.1824181231E-01    0.5949328717E-02    0.7868046238E-02    0.1546832635E+00
    0.1700000000E+02    0.2517375926E-01    0.2002808378E-01    0.6521127112E-02    0.8840958158E-02    0.1695797402E+00
    0.1900000000E+02    0.2789765768E-01    0.2170640331E-01    0.7056723705E-02    0.9797649713E-02    0.1835390960E+00
    0.2100000000E+02    0.3057670090E-01    0.2328616217E-01    0.7559493941E-02    0.1073860030E-01    0.1966485262E+00
    0.2300000000E+02    0.3321220015E-01    0.2477563478E-01    0.8032404664E-02    0.1166427000E-01    0.2089846821E+00
    0.2500000000E+02    0.3580541433E-01    0.2618214375E-01    0.8478074199E-02    0.1257510050E-01    0.2206152200E+00
    0.2700000000E+02    0.3835755256E-01    0.2751219626E-01    0.8898822148E-02    0.1347151606E-01    0.2316000858E+00
    0.2900000000E+02    0.4086977664E-01    0.2877159750E-01    0.9296710871E-02    0.1435392431E-01    0.2419925851E+00
    0.3100000000E+02    0.4334320333E-01    0.2996554555E-01    0.9673580238E-02    0.1522271709E-01    0.2518402795E+00
    0.3300000000E+02    0.4577890652E-01    0.3109871109E-01    0.1003107690E-01    0.1607827121E-01    0.2611857417E+00
    0.3500000000E+02    0.4817791929E-01    0.3217530482E-01    0.1037067904E-01    0.1692094915E-01    0.2700671943E+00
    0.3700000000E+02    0.5054123579E-01    0.3319913459E-01    0.1069371745E-01    0.1775109973E-01    0.2785190530E+00
    0.3900000000E+02    0.5286981312E-01    0.3417365423E-01    0.1100139342E-01    0.1856905877E-01    0.2865723902E+00
    0.4100000000E+02    0.5516457297E-01    0.3510200521E-01    0.1129479425E-01    0.1937514969E-01    0.2942553320E+00
    0.4300000000E+02    0.5742640333E-01    0.3598705257E-01    0.1157490640E-01    0.2016968405E-01    0.3015934009E+00
    0.4500000000E+02    0.5965615994E-01    0.3683141591E-01    0.1184262698E-01    0.2095296212E-01    0.3086098103E+00
    0.4700000000E+02    0.6185466781E-01    0.3763749618E-01    0.1209877365E-01    0.2172527338E-01    0.3153257213E+00
    0.4900000000E+02    0.6402272255E-01    0.3840749900E-01    0.1234409328E-01    0.2248689701E-01    0.3217604648E+00
    0.1000000000E+02    0.1526662148E-01    0.1322964581E-01    0.4334706824E-02    0.5361469611E-02    0.1126514727E+00
    0.3000000000E+02    0.4211127156E-01    0.2937644974E-01    0.9487665839E-02    0.1478999874E-01    0.2469817632E+00
    0.5000000000E+02    0.6509557092E-01    0.3877961228E-01    0.1246290884E-01    0.2286378549E-01    0.3248779876E+00
    0.7000000000E+02    0.8512684787E-01    0.4474504135E-01    0.1440942939E-01    0.2990119259E-01    0.3760568895E+00
    0.9000000000E+02    0.1028392624E+00    0.4867536407E-01    0.1578690170E-01    0.3612474205E-01    0.4124247756E+00
    0.1100000000E+03    0.1186898018E+00    0.5129089429E-01    0.1681570651E-01    0.4169479275E-01    0.4396981771E+00
    0.1300000000E+03    0.1330165067E+00    0.5300859114E-01    0.1761494607E-01    0.4672996828E-01    0.4609709811E+00
    0.1500000000E+03    0.1460751654E+00    0.5408992536E-01    0.1825474457E-01    0.5132003130E-01    0.4780673899E+00
    0.1700000000E+03    0.1580632127E+00    0.5470835260E-01    0.1877913930E-01    0.5553426833E-01    0.4921346127E+00
    0.1900000000E+03    0.1691357435E+00    0.5498378662E-01    0.1921721403E-01    0.5942710884E-01    0.5039313760E+00
    0.2100000000E+03    0.1794165174E+00    0.5500176349E-01    0.1958897003E-01    0.6304198630E-01    0.5139801979E+00
    0.2300000000E+03    0.1890056890E+00    0.5482480747E-01    0.1990862742E-01    0.6641405072E-01    0.5226530858E+00
    0.2500000000E+03    0.1979853466E+00    0.5449952253E-01    0.2018658116E-01    0.6957211222E-01    0.5302223565E+00
    0.2700000000E+03    0.2064235517E+00    0.5406120037E-01    0.2043061152E-01    0.7254005846E-01    0.5368921097E+00
    0.2900000000E+03    0.2143773325E+00    0.5353691553E-01    0.2064666110E-01    0.7533790510E-01    0.5428184513E+00
    0.3100000000E+03    0.2218949344E+00    0.5294766221E-01    0.2083934958E-01    0.7798258555E-01    0.5481229010E+00
    0.3300000000E+03    0.2290175348E+00    0.5230986415E-01    0.2101232420E-01    0.8048855268E-01    0.5529015282E+00
    0.3500000000E+03    0.2357805650E+00    0.5163646279E-01    0.2116850406E-01    0.8286824281E-01    0.5572313263E+00
    0.3700000000E+03    0.2422147413E+00    0.5093771512E-01    0.2131025408E-01    0.8513243754E-01    0.5611747562E+00
    0.3900000000E+03    0.2483468776E+00    0.5022178745E-01    0.2143951126E-01    0.8729054880E-01    0.5647830438E+00
    0.4100000000E+03    0.2542005308E+00    0.4949520318E-01    0.2155787773E-01    0.8935084556E-01    0.5680986161E+00
    0.4300000000E+03    0.2597965202E+00    0.4876318445E-01    0.2166669053E-01    0.9132063586E-01    0.5711569265E+00
    0.4500000000E+03    0.2651533461E+00    0.4802991556E-01    0.2176707455E-01    0.9320641399E-01    0.5739878418E+00
    0.4700000000E+03    0.2702875328E+00    0.4729874803E-01    0.2185998320E-01    0.9501398060E-01    0.5766167094E+00
    0.4900000000E+03    0.2752139090E+00    0.4657236150E-01    0.2194623011E-01    0.9674854134E-01    0.5790651880E+00
    0.1000000000E+03    0.1109738596E+00    0.5011662159E-01    0.1633589662E-01    0.3898324098E-01    0.4269648313E+00
    0.3000000000E+03    0.2181879337E+00    0.5324929076E-01    0.2074567801E-01    0.7667843567E-01    0.5455418973E+00
    0.5000000000E+03    0.2776033968E+00    0.4621164668E-01    0.2198707766E-01    0.9758992896E-01    0.5802277046E+00
    0.7000000000E+03    0.3171355642E+00    0.3957225776E-01    0.2258130760E-01    0.1115160866E+00    0.5974014674E+00
    0.9000000000E+03    0.3455685637E+00    0.3421416511E-01    0.2293109280E-01    0.1215409640E+00    0.6078351272E+00
    0.1100000000E+04    0.3669766381E+00    0.2998500692E-01    0.2316156988E-01    0.1290954431E+00    0.6149213423E+00
    0.1300000000E+04    0.3836212019E+00    0.2663071958E-01    0.2332467891E-01    0.1349740007E+00    0.6200860025E+00
    0.1500000000E+04    0.3968861830E+00    0.2393788129E-01    0.2344595636E-01    0.1396629985E+00    0.6240384876E+00
    0.1700000000E+04    0.4076720378E+00    0.2174596593E-01    0.2353945491E-01    0.1434789933E+00    0.6271736061E+00
    0.1900000000E+04    0.4165905403E+00    0.1993727220E-01    0.2361355916E-01    0.1466371241E+00    0.6297295045E+00
    0.2100000000E+04    0.4240713508E+00    0.1842554830E-01    0.2367358691E-01    0.1492885349E+00    0.6318588265E+00
    0.2300000000E+04    0.4304244548E+00    0.1714705589E-01    0.2372307612E-01    0.1515423048E+00    0.6336641771E+00
    0.2500000000E+04    0.4358786129E+00    0.1605413799E-01    0.2376447305E-01    0.1534789559E+00    0.6352172181E+00
    0.2700000000E+04    0.4406059656E+00    0.1511070399E-01    0.2379952360E-01    0.1551590988E+00    0.6365696021E+00
    0.2900000000E+04    0.4447382757E+00    0.1428907113E-01    0.2382950738E-01    0.1566291413E+00    0.6377595555E+00
    0.3100000000E+04    0.4483779361E+00    0.1356774235E-01    0.2385538367E-01    0.1579251578E+00    0.6388160113E+00
    0.3300000000E+04    0.4516055990E+00    0.1292982792E-01    0.2387788572E-01    0.1590755718E+00    0.6397612954E+00
    0.3500000000E+04    0.4544855698E+00    0.1236191159E-01    0.2389758358E-01    0.1601030526E+00    0.6406129281E+00
    0.3700000000E+04    0.4570696888E+00    0.1185322649E-01    0.2391492709E-01    0.1610258810E+00    0.6413848628E+00
    0.3900000000E+04    0.4594001689E+00    0.1139504896E-01    0.2393027587E-01    0.1618589471E+00    0.6420883587E+00
    0.4100000000E+04    0.4615117006E+00    0.1098024765E-01    0.2394392085E-01    0.1626144915E+00    0.6427326076E+00
    0.4300000000E+04    0.4634330329E+00    0.1060294440E-01    0.2395609986E-01    0.1633026613E+00    0.6433251921E+00
    0.4500000000E+04    0.4651881770E+00    0.1025825636E-01    0.2396700919E-01    0.1639319341E+00    0.6438724271E+00
    0.4700000000E+04    0.4667973308E+00    0.9942098177E-02    0.2397681223E-01    0.1645094433E+00    0.6443796167E+00
    0.4900000000E+04    0.4682775976E+00    0.9651028621E-02    0.2398564606E-01    0.1650412312E+00    0.6448512508E+00
    0.1000000000E+04    0.3569819347E+00    0.3197478302E-01    0.2305708996E-01    0.1255677131E+00    0.6116829713E+00
    0.3000000000E+04    0.4466142088E+00    0.1391701725E-01    0.2384290869E-01    0.1572969724E+00    0.6383029448E+00
    0.5000000000E+04    0.4689740383E+00    0.9513972767E-02    0.2398973644E-01    0.1652916194E+00    0.6450749533E+00
    0.7000000000E+04    0.4787472849E+00    0.7571873691E-02    0.2404116512E-01    0.1688222683E+00    0.6483711310E+00
    0.9000000000E+04    0.4841630331E+00    0.6459758527E-02    0.2406194810E-01    0.1707994347E+00    0.6503791708E+00
    0.1100000000E+05    0.4875863166E+00    0.5726387282E-02    0.2406970873E-01    0.1720625365E+00    0.6517548089E+00
    0.1300000000E+05    0.4899390205E+00    0.5198934433E-02    0.2407106193E-01    0.1729399241E+00    0.6527681498E+00
    0.1500000000E+05    0.4916522645E+00    0.4796904036E-02    0.2406898001E-01    0.1735856921E+00    0.6535524052E+00
    0.1700000000E+05    0.4929538497E+00    0.4477563443E-02    0.2406496230E-01    0.1740815520E+00    0.6541814853E+00
    0.1900000000E+05    0.4939752066E+00    0.4216002062E-02    0.2405982810E-01    0.1744748154E+00    0.6546999730E+00
    0.2100000000E+05    0.4947973733E+00    0.3996643474E-02    0.2405405172E-01    0.1747947583E+00    0.6551364977E+00
    0.2300000000E+05    0.4954729850E+00    0.3809203001E-02    0.2404791956E-01    0.1750604641E+00    0.6555103619E+00
    0.2500000000E+05    0.4960376906E+00    0.3646588703E-02    0.2404161003E-01    0.1752849042E+00    0.6558350976E+00
    0.2700000000E+05    0.4965164803E+00    0.3503734133E-02    0.2403523662E-01    0.1754772044E+00    0.6561204993E+00
    0.2900000000E+05    0.4969273845E+00    0.3376912021E-02    0.2402887253E-01    0.1756439725E+00    0.6563738484E+00
    0.3100000000E+05    0.4972837346E+00    0.3263311640E-02    0.2402256521E-01    0.1757901121E+00    0.6566006819E+00
    0.3300000000E+05    0.4975955974E+00    0.3160768224E-02    0.2401634524E-01    0.1759193393E+00    0.6568052928E+00
    0.3500000000E+05    0.4978707149E+00    0.3067583876E-02    0.2401023204E-01    0.1760345223E+00    0.6569910661E+00
    0.3700000000E+05    0.4981151374E+00    0.2982405583E-02    0.2400423743E-01    0.1761379105E+00    0.6571607108E+00
    0.3900000000E+05    0.4983336611E+00    0.2904140028E-02    0.2399836812E-01    0.1762312938E+00    0.6573164231E+00
    0.4100000000E+05    0.4985301360E+00    0.2831892771E-02    0.2399262728E-01    0.1763161139E+00    0.6574600047E+00
    0.4300000000E+05    0.4987076883E+00    0.2764923980E-02    0.2398701565E-01    0.1763935458E+00    0.6575929487E+00
    0.4500000000E+05    0.4988688821E+00    0.2702615638E-02    0.2398153233E-01    0.1764645566E+00    0.6577165042E+00
    0.4700000000E+05    0.4990158404E+00    0.2644446869E-02    0.2397617528E-01    0.1765299501E+00    0.6578317252E+00
    0.4900000000E+05    0.4991503356E+00    0.2589975122E-02    0.2397094171E-01    0.1765903995E+00    0.6579395080E+00
    0.1000000000E+05    0.4860489185E+00    0.6059785814E-02    0.2406691411E-01    0.1714936212E+00    0.6511244350E+00
    0.3000000000E+05    0.4971116860E+00    0.3318607109E-02    0.2402570955E-01    0.1757193654E+00    0.6564902867E+00
    0.5000000000E+05    0.4992133850E+00    0.2564005101E-02    0.2396837023E-01    0.1766189514E+00    0.6579908542E+00
    0.7000000000E+05    0.5000824776E+00    0.2170013269E-02    0.2392254367E-01    0.1770311345E+00    0.6587664326E+00
    0.9000000000E+05    0.5005498104E+00    0.1917545198E-02    0.2388511001E-01    0.1772753758E+00    0.6592601300E+00
    0.1100000000E+06    0.5008378379E+00    0.1737870882E-02    0.2385358493E-01    0.1774406122E+00    0.6596102657E+00
    0.1300000000E+06    0.5010309140E+00    0.1601499918E-02    0.2382638194E-01    0.1775618301E+00    0.6598756684E+00
    0.1500000000E+06    0.5011679210E+00    0.1493373855E-02    0.2380246347E-01    0.1776557383E+00    0.6600861315E+00
    0.1700000000E+06    0.5012692103E+00    0.1404886191E-02    0.2378112133E-01    0.1777313894E+00    0.6602585647E+00
    0.1900000000E+06    0.5013464374E+00    0.1330710771E-02    0.2376185279E-01    0.1777941460E+00    0.6604033723E+00
    0.2100000000E+06    0.5014067416E+00    0.1267349958E-02    0.2374428873E-01    0.1778474036E+00    0.6605273541E+00
    0.2300000000E+06    0.5014547314E+00    0.1212398573E-02    0.2372815047E-01    0.1778934267E+00    0.6606351680E+00
    0.2500000000E+06    0.5014935082E+00    0.1164140582E-02    0.2371322251E-01    0.1779337889E+00    0.6607301266E+00
    0.2700000000E+06    0.5015252326E+00    0.1121314119E-02    0.2369933481E-01    0.1779696217E+00    0.6608146597E+00
    0.2900000000E+06    0.5015514532E+00    0.1082967627E-02    0.2368635088E-01    0.1780017617E+00    0.6608905955E+00
    0.3100000000E+06    0.5015733071E+00    0.1048368074E-02    0.2367415949E-01    0.1780308428E+00    0.6609593400E+00
    0.3300000000E+06    0.5015916472E+00    0.1016940331E-02    0.2366266881E-01    0.1780573548E+00    0.6610219951E+00
    0.3500000000E+06    0.5016071244E+00    0.9882259283E-03    0.2365180212E-01    0.1780816833E+00    0.6610794379E+00
    0.3700000000E+06    0.5016202439E+00    0.9618542616E-03    0.2364149468E-01    0.1781041362E+00    0.6611323772E+00
    0.3900000000E+06    0.5016314029E+00    0.9375220458E-03    0.2363169137E-01    0.1781249634E+00    0.6611813925E+00
    0.4100000000E+06    0.5016409177E+00    0.9149783507E-03    0.2362234485E-01    0.1781443694E+00    0.6612269632E+00
    0.4300000000E+06    0.5016490431E+00    0.8940135153E-03    0.2361341417E-01    0.1781625240E+00    0.6612694898E+00
    0.4500000000E+06    0.5016559863E+00    0.8744508038E-03    0.2360486367E-01    0.1781795693E+00    0.6613093097E+00
    0.4700000000E+06    0.5016619175E+00    0.8561400367E-03    0.2359666209E-01    0.1781956253E+00    0.6613467099E+00
    0.4900000000E+06    0.5016669774E+00    0.8389526665E-03    0.2358878191E-01    0.1782107942E+00    0.6613819358E+00
    0.1000000000E+06    0.5007093607E+00    0.1820944228E-02    0.2386872440E-01    0.1773650440E+00    0.6594484733E+00
    0.3000000000E+06    0.5015628671E+00    0.1065238572E-02    0.2368016226E-01    0.1780166512E+00    0.6609257918E+00
    0.5000000000E+06    0.5016692180E+00    0.8307450337E-03    0.2358495460E-01    0.1782180739E+00    0.6613988008E+00
    0.7000000000E+06    0.5016885928E+00    0.7052757107E-03    0.2352059432E-01    0.1783330531E+00    0.6616607688E+00
    0.9000000000E+06    0.5016848932E+00    0.6240884379E-03    0.2347186118E-01    0.1784125942E+00    0.6618356626E+00
    0.1100000000E+07    0.5016733360E+00    0.5660226913E-03    0.2343261083E-01    0.1784731089E+00    0.6619643197E+00
    0.1300000000E+07    0.5016589550E+00    0.5218241485E-03    0.2339973847E-01    0.1785218291E+00    0.6620647860E+00
    0.1500000000E+07    0.5016437226E+00    0.4867158835E-03    0.2337145367E-01    0.1785625502E+00    0.6621464793E+00
    0.1700000000E+07    0.5016284845E+00    0.4579488972E-03    0.2334662889E-01    0.1785975017E+00    0.6622148792E+00
    0.1900000000E+07    0.5016136161E+00    0.4338140141E-03    0.2332450765E-01    0.1786281004E+00    0.6622734297E+00
    0.2100000000E+07    0.5015992787E+00    0.4131850898E-03    0.2330455759E-01    0.1786553016E+00    0.6623244239E+00
    0.2300000000E+07    0.5015855314E+00    0.3952858084E-03    0.2328638977E-01    0.1786797785E+00    0.6623694587E+00
    0.2500000000E+07    0.5015723830E+00    0.3795612422E-03    0.2326971131E-01    0.1787020236E+00    0.6624096869E+00
    0.2700000000E+07    0.5015598174E+00    0.3656027313E-03    0.2325429618E-01    0.1787224072E+00    0.6624459655E+00
    0.2900000000E+07    0.5015478071E+00    0.3531017490E-03    0.2323996622E-01    0.1787412150E+00    0.6624789475E+00
    0.3100000000E+07    0.5015363196E+00    0.3418203964E-03    0.2322657853E-01    0.1787586719E+00    0.6625091410E+00
    0.3300000000E+07    0.5015253213E+00    0.3315718755E-03    0.2321401673E-01    0.1787749579E+00    0.6625369482E+00
    0.3500000000E+07    0.5015147794E+00    0.3222071819E-03    0.2320218476E-01    0.1787902196E+00    0.6625626928E+00
    0.3700000000E+07    0.5015046626E+00    0.3136058036E-03    0.2319100241E-01    0.1788045776E+00    0.6625866387E+00
    0.3900000000E+07    0.5014949418E+00    0.3056690739E-03    0.2318040205E-01    0.1788181326E+00    0.6626090037E+00
    0.4100000000E+07    0.5014855898E+00    0.2983153267E-03    0.2317032605E-01    0.1788309692E+00    0.6626299692E+00
    0.4300000000E+07    0.5014765819E+00    0.2914763045E-03    0.2316072498E-01    0.1788431595E+00    0.6626496883E+00
    0.4500000000E+07    0.5014678953E+00    0.2850944527E-03    0.2315155607E-01    0.1788547652E+00    0.6626682907E+00
    0.4700000000E+07    0.5014595092E+00    0.2791208523E-03    0.2314278209E-01    0.1788658396E+00    0.6626858878E+00
    0.4900000000E+07    0.5014514045E+00    0.2735136217E-03    0.2313437043E-01    0.1788764292E+00    0.6627025752E+00
    0.1000000000E+07    0.5016796707E+00    0.5928956382E-03    0.2345128741E-01    0.1784446614E+00    0.6619043510E+00
    0.3000000000E+07    0.5015420001E+00    0.3473213118E-03    0.2323316240E-01    0.1787501001E+00    0.6624943656E+00
    0.5000000000E+07    0.5014474521E+00    0.2708359178E-03    0.2313029135E-01    0.1788815550E+00    0.6627106043E+00
    0.7000000000E+07    0.5013796473E+00    0.2299009868E-03    0.2306225965E-01    0.1789662501E+00    0.6628388554E+00
    0.9000000000E+07    0.5013269732E+00    0.2034143813E-03    0.2301135364E-01    0.1790288215E+00    0.6629285668E+00
    0.1100000000E+08    0.5012839338E+00    0.1844726935E-03    0.2297066702E-01    0.1790784546E+00    0.6629969330E+00
    0.1300000000E+08    0.5012475529E+00    0.1700560168E-03    0.2293677819E-01    0.1791195896E+00    0.6630518516E+00
    0.1500000000E+08    0.5012160458E+00    0.1586054240E-03    0.2290773995E-01    0.1791547134E+00    0.6630975717E+00
    0.1700000000E+08    0.5011882598E+00    0.1492237977E-03    0.2288233777E-01    0.1791853597E+00    0.6631366287E+00
    0.1900000000E+08    0.5011634076E+00    0.1413533805E-03    0.2285976289E-01    0.1792125414E+00    0.6631706508E+00
    0.2100000000E+08    0.5011409278E+00    0.1346266942E-03    0.2283944949E-01    0.1792369625E+00    0.6632007425E+00
    0.2300000000E+08    0.5011204061E+00    0.1287904286E-03    0.2282098624E-01    0.1792591321E+00    0.6632276863E+00
    0.2500000000E+08    0.5011015282E+00    0.1236635220E-03    0.2280406468E-01    0.1792794303E+00    0.6632520553E+00
    0.2700000000E+08    0.5010840497E+00    0.1191126438E-03    0.2278844758E-01    0.1792981485E+00    0.6632742816E+00
