  Pressure (Pa) 22mC5-400 (mol/kg) 2mC6-400 (mol/kg) 3mC6-400 (mol/kg) 23mC5-400 (mol/kg) C7-400 (mol/kg)
    0.1000000000E+01    0.1585149059E-02    0.5541256826E-02    0.2629141647E-02    0.3711134501E-03    0.1706540240E-02
    0.3000000000E+01    0.4678794451E-02    0.1613605066E-01    0.7687398289E-02    0.1095405560E-02    0.4990334188E-02
    0.5000000000E+01    0.7675403480E-02    0.2612386314E-01    0.1249659159E-01    0.1796993477E-02    0.8113132235E-02
    0.7000000000E+01    0.1058073183E-01    0.3555199667E-01    0.1707595003E-01    0.2477223728E-02    0.1108734751E-01
    0.9000000000E+01    0.1340007298E-01    0.4446301559E-01    0.2144274252E-01    0.3137334717E-02    0.1392412898E-01
    0.1100000000E+02    0.1613830415E-01    0.5289532420E-01    0.2561252303E-01    0.3778467470E-02    0.1663351925E-01
    0.1300000000E+02    0.1879992679E-01    0.6088366202E-01    0.2959933955E-01    0.4401675114E-02    0.1922458923E-01
    0.1500000000E+02    0.2138910249E-01    0.6845952983E-01    0.3341591295E-01    0.5007931269E-02    0.2170555356E-01
    0.1700000000E+02    0.2390968480E-01    0.7565155764E-01    0.3707379111E-01    0.5598137493E-02    0.2408386997E-01
    0.1900000000E+02    0.2636524750E-01    0.8248582347E-01    0.4058348178E-01    0.6173129899E-02    0.2636632497E-01
    0.2100000000E+02    0.2875910986E-01    0.8898613063E-01    0.4395456790E-01    0.6733685055E-02    0.2855910824E-01
    0.2300000000E+02    0.3109435912E-01    0.9517424956E-01    0.4719580781E-01    0.7280525257E-02    0.3066787729E-01
    0.2500000000E+02    0.3337387072E-01    0.1010701295E+00    0.5031522262E-01    0.7814323243E-02    0.3269781377E-01
    0.2700000000E+02    0.3560032633E-01    0.1066920841E+00    0.5332017277E-01    0.8335706425E-02    0.3465367290E-01
    0.2900000000E+02    0.3777623012E-01    0.1120569551E+00    0.5621742514E-01    0.8845260693E-02    0.3653982675E-01
    0.3100000000E+02    0.3990392344E-01    0.1171802565E+00    0.5901321214E-01    0.9343533840E-02    0.3836030235E-01
    0.3300000000E+02    0.4198559797E-01    0.1220763021E+00    0.6171328384E-01    0.9831038649E-02    0.4011881536E-01
    0.3500000000E+02    0.4402330769E-01    0.1267583188E+00    0.6432295415E-01    0.1030825568E-01    0.4181879982E-01
    0.3700000000E+02    0.4601897965E-01    0.1312385475E+00    0.6684714169E-01    0.1077563582E-01    0.4346343458E-01
    0.3900000000E+02    0.4797442380E-01    0.1355283321E+00    0.6929040622E-01    0.1123360253E-01    0.4505566673E-01
    0.4100000000E+02    0.4989134188E-01    0.1396382003E+00    0.7165698101E-01    0.1168255398E-01    0.4659823258E-01
    0.4300000000E+02    0.5177133549E-01    0.1435779349E+00    0.7395080185E-01    0.1212286490E-01    0.4809367630E-01
    0.4500000000E+02    0.5361591349E-01    0.1473566382E+00    0.7617553294E-01    0.1255488832E-01    0.4954436667E-01
    0.4700000000E+02    0.5542649869E-01    0.1509827895E+00    0.7833459012E-01    0.1297895715E-01    0.5095251209E-01
    0.4900000000E+02    0.5720443404E-01    0.1544642975E+00    0.8043116179E-01    0.1339538561E-01    0.5232017403E-01
    0.1000000000E+02    0.1477903761E-01    0.4873675688E-01    0.2355134821E-01    0.3460205595E-02    0.1529415975E-01
    0.3000000000E+02    0.3884596275E-01    0.1146478806E+00    0.5762763170E-01    0.9095774572E-02    0.3745803517E-01
    0.5000000000E+02    0.5808155724E-01    0.1561531372E+00    0.8145695440E-01    0.1360082811E-01    0.5298943075E-01
    0.7000000000E+02    0.7418373244E-01    0.1838919994E+00    0.9932155364E-01    0.1737262929E-01    0.6465610890E-01
    0.9000000000E+02    0.8811044562E-01    0.2031780399E+00    0.1133776887E+00    0.2063532474E-01    0.7385273494E-01
    0.1100000000E+03    0.1004469498E+00    0.2169473872E+00    0.1248356302E+00    0.2352586044E-01    0.8136264357E-01
    0.1300000000E+03    0.1115731761E+00    0.2269469910E+00    0.1344305329E+00    0.2613314158E-01    0.8766196794E-01
    0.1500000000E+03    0.1217478643E+00    0.2342768025E+00    0.1426366744E+00    0.2851771619E-01    0.9305807553E-01
    0.1700000000E+03    0.1311541876E+00    0.2396611331E+00    0.1497749121E+00    0.3072245011E-01    0.9775903471E-01
    0.1900000000E+03    0.1399260479E+00    0.2435946006E+00    0.1560708172E+00    0.3277867954E-01    0.1019112115E+00
    0.2100000000E+03    0.1481640059E+00    0.2464252910E+00    0.1616880888E+00    0.3470993853E-01    0.1056208876E+00
    0.2300000000E+03    0.1559453425E+00    0.2484044502E+00    0.1667487358E+00    0.3653431330E-01    0.1089673236E+00
    0.2500000000E+03    0.1633306425E+00    0.2497173796E+00    0.1713457849E+00    0.3826598285E-01    0.1120109864E+00
    0.2700000000E+03    0.1703682355E+00    0.2505033077E+00    0.1755515679E+00    0.3991625819E-01    0.1147989178E+00
    0.2900000000E+03    0.1770972718E+00    0.2508685483E+00    0.1794232930E+00    0.4149430200E-01    0.1173683440E+00
    0.3100000000E+03    0.1835499020E+00    0.2508954377E+00    0.1830068897E+00    0.4300763888E-01    0.1197491682E+00
    0.3300000000E+03    0.1897528544E+00    0.2506485416E+00    0.1863397248E+00    0.4446252436E-01    0.1219657317E+00
    0.3500000000E+03    0.1957285964E+00    0.2501790528E+00    0.1894525598E+00    0.4586421678E-01    0.1240380833E+00
    0.3700000000E+03    0.2014962051E+00    0.2495279606E+00    0.1923709885E+00    0.4721718097E-01    0.1259829123E+00
    0.3900000000E+03    0.2070720278E+00    0.2487283737E+00    0.1951165091E+00    0.4852524291E-01    0.1278142446E+00
    0.4100000000E+03    0.2124701915E+00    0.2478072453E+00    0.1977073367E+00    0.4979170889E-01    0.1295439698E+00
    0.4300000000E+03    0.2177029995E+00    0.2467866722E+00    0.2001590264E+00    0.5101945840E-01    0.1311822464E+00
    0.4500000000E+03    0.2227812442E+00    0.2456848840E+00    0.2024849578E+00    0.5221101724E-01    0.1327378161E+00
    0.4700000000E+03    0.2277144557E+00    0.2445170046E+00    0.2046967150E+00    0.5336861587E-01    0.1342182514E+00
    0.4900000000E+03    0.2325111021E+00    0.2432956451E+00    0.2068043887E+00    0.5449423612E-01    0.1356301515E+00
    0.1000000000E+03    0.9445015880E-01    0.2106234623E+00    0.1193775976E+00    0.2212072082E-01    0.7778366823E-01
    0.3000000000E+03    0.1803563554E+00    0.2509198937E+00    0.1812485972E+00    0.4225864167E-01    0.1185806965E+00
    0.5000000000E+03    0.2348606098E+00    0.2426682805E+00    0.2078219997E+00    0.5504561519E-01    0.1363122364E+00
    0.7000000000E+03    0.2761665466E+00    0.2291333955E+00    0.2243749245E+00    0.6474197772E-01    0.1474462224E+00
    0.9000000000E+03    0.3092158116E+00    0.2158730339E+00    0.2362631484E+00    0.7250424424E-01    0.1554916191E+00
    0.1100000000E+04    0.3363332551E+00    0.2039398660E+00    0.2454700772E+00    0.7887652828E-01    0.1617535833E+00
    0.1300000000E+04    0.3589256194E+00    0.1934400089E+00    0.2529417061E+00    0.8418811662E-01    0.1668569049E+00
    0.1500000000E+04    0.3779585591E+00    0.1842450911E+00    0.2592013489E+00    0.8866509818E-01    0.1711483136E+00
    0.1700000000E+04    0.3941397086E+00    0.1761789126E+00    0.2645683227E+00    0.9247319398E-01    0.1748399747E+00
    0.1900000000E+04    0.4080065889E+00    0.1690718201E+00    0.2692515568E+00    0.9573831890E-01    0.1780710587E+00
    0.2100000000E+04    0.4199764356E+00    0.1627755081E+00    0.2733950893E+00    0.9855823568E-01    0.1809377303E+00
    0.2300000000E+04    0.4303778751E+00    0.1571649813E+00    0.2771023391E+00    0.1010099639E+00    0.1835091789E+00
    0.2500000000E+04    0.4394726023E+00    0.1521364237E+00    0.2804500122E+00    0.1031548509E+00    0.1858368211E+00
    0.2700000000E+04    0.4474709089E+00    0.1476040335E+00    0.2834965346E+00    0.1050422051E+00    0.1879598895E+00
    0.2900000000E+04    0.4545431314E+00    0.1434969035E+00    0.2862874058E+00    0.1067119753E+00    0.1899089868E+00
    0.3100000000E+04    0.4608282486E+00    0.1397562895E+00    0.2888587293E+00    0.1081967629E+00    0.1917084339E+00
    0.3300000000E+04    0.4664404276E+00    0.1363333328E+00    0.2912396176E+00    0.1095233545E+00    0.1933778706E+00
    0.3500000000E+04    0.4714740568E+00    0.1331872074E+00    0.2934538758E+00    0.1107139008E+00    0.1949333783E+00
    0.3700000000E+04    0.4760076502E+00    0.1302836256E+00    0.2955212081E+00    0.1117868310E+00    0.1963882857E+00
    0.3900000000E+04    0.4801068982E+00    0.1275936404E+00    0.2974581016E+00    0.1127575671E+00    0.1977537589E+00
    0.4100000000E+04    0.4838270681E+00    0.1250926852E+00    0.2992784842E+00    0.1136390868E+00    0.1990392423E+00
    0.4300000000E+04    0.4872149048E+00    0.1227598024E+00    0.3009942236E+00    0.1144423689E+00    0.2002527922E+00
    0.4500000000E+04    0.4903101459E+00    0.1205770226E+00    0.3026155106E+00    0.1151767481E+00    0.2014013344E+00
    0.4700000000E+04    0.4931467356E+00    0.1185288625E+00    0.3041511577E+00    0.1158501997E+00    0.2024908642E+00
    0.4900000000E+04    0.4957538030E+00    0.1166019180E+00    0.3056088342E+00    0.1164695693E+00    0.2035266046E+00
    0.1000000000E+04    0.3234144645E+00    0.2097244628E+00    0.2411286631E+00    0.7584036581E-01    0.1587972892E+00
    0.3000000000E+04    0.4577764265E+00    0.1415840437E+00    0.2875985502E+00    0.1074756968E+00    0.1908260944E+00
    0.5000000000E+04    0.4969792506E+00    0.1156801982E+00    0.3063105645E+00    0.1167608501E+00    0.2040257562E+00
    0.7000000000E+04    0.5140075295E+00    0.1014501460E+00    0.3175154579E+00    0.1208215566E+00    0.2120478834E+00
    0.9000000000E+04    0.5231852155E+00    0.9205042133E-01    0.3252798250E+00    0.1230265285E+00    0.2176720986E+00
    0.1100000000E+05    0.5288234272E+00    0.8518403298E-01    0.3311031158E+00    0.1243918907E+00    0.2219321948E+00
    0.1300000000E+05    0.5326010041E+00    0.7984873103E-01    0.3356955578E+00    0.1253142460E+00    0.2253211860E+00
    0.1500000000E+05    0.5352919441E+00    0.7552806841E-01    0.3394459379E+00    0.1259768757E+00    0.2281105236E+00
    0.1700000000E+05    0.5372979426E+00    0.7192420671E-01    0.3425884945E+00    0.1264751353E+00    0.2304645916E+00
    0.1900000000E+05    0.5388465302E+00    0.6885097202E-01    0.3452743862E+00    0.1268631744E+00    0.2324899614E+00
    0.2100000000E+05    0.5400755416E+00    0.6618477244E-01    0.3476063470E+00    0.1271738821E+00    0.2342593706E+00
    0.2300000000E+05    0.5410730355E+00    0.6383965352E-01    0.3496570925E+00    0.1274283267E+00    0.2358245055E+00
    0.2500000000E+05    0.5418977489E+00    0.6175358378E-01    0.3514798017E+00    0.1276405999E+00    0.2372233048E+00
    0.2700000000E+05    0.5425902824E+00    0.5988042891E-01    0.3531144283E+00    0.1278204692E+00    0.2384843706E+00
    0.2900000000E+05    0.5431795536E+00    0.5818501110E-01    0.3545916753E+00    0.1279749112E+00    0.2396297545E+00
    0.3100000000E+05    0.5436866917E+00    0.5663993743E-01    0.3559355949E+00    0.1281090382E+00    0.2406767852E+00
    0.3300000000E+05    0.5441274780E+00    0.5522349093E-01    0.3571653443E+00    0.1282266795E+00    0.2416393058E+00
    0.3500000000E+05    0.5445139273E+00    0.5391818563E-01    0.3582964034E+00    0.1283307591E+00    0.2425285339E+00
    0.3700000000E+05    0.5448553424E+00    0.5270975058E-01    0.3593414404E+00    0.1284235475E+00    0.2433536749E+00
    0.3900000000E+05    0.5451590337E+00    0.5158639919E-01    0.3603109399E+00    0.1285068343E+00    0.2441223675E+00
    0.4100000000E+05    0.5454308231E+00    0.5053829342E-01    0.3612136669E+00    0.1285820491E+00    0.2448410136E+00
    0.4300000000E+05    0.5456754022E+00    0.4955714376E-01    0.3620570145E+00    0.1286503473E+00    0.2455150267E+00
    0.4500000000E+05    0.5458965925E+00    0.4863590596E-01    0.3628472704E+00    0.1287126729E+00    0.2461490216E+00
    0.4700000000E+05    0.5460975376E+00    0.4776854794E-01    0.3635898213E+00    0.1287698046E+00    0.2467469611E+00
    0.4900000000E+05    0.5462808459E+00    0.4694986821E-01    0.3642893133E+00    0.1288223908E+00    0.2473122710E+00
    0.1000000000E+05    0.5263100973E+00    0.8837971976E-01    0.3283790705E+00    0.1237818967E+00    0.2199345249E+00
    0.3000000000E+05    0.5434422994E+00    0.5739515211E-01    0.3552790053E+00    0.1280442499E+00    0.2401646287E+00
    0.5000000000E+05    0.5463665823E+00    0.4655734853E-01    0.3646241933E+00    0.1288471528E+00    0.2475836362E+00
    0.7000000000E+05    0.5475359017E+00    0.4042534820E-01    0.3698087091E+00    0.1291991374E+00    0.2518524291E+00
    0.9000000000E+05    0.5481558648E+00    0.3631803095E-01    0.3732229804E+00    0.1294028435E+00    0.2547475126E+00
    0.1100000000E+06    0.5485358639E+00    0.3330838073E-01    0.3756884885E+00    0.1295386388E+00    0.2568915730E+00
    0.1300000000E+06    0.5487904193E+00    0.3097523498E-01    0.3775752984E+00    0.1296372621E+00    0.2585696337E+00
    0.1500000000E+06    0.5489714987E+00    0.2909496124E-01    0.3790782973E+00    0.1297131147E+00    0.2599338771E+00
    0.1700000000E+06    0.5491060106E+00    0.2753597877E-01    0.3803112815E+00    0.1297738899E+00    0.2610742620E+00
    0.1900000000E+06    0.5492092471E+00    0.2621498796E-01    0.3813457886E+00    0.1298240957E+00    0.2620479766E+00
    0.2100000000E+06    0.5492905227E+00    0.2507626978E-01    0.3822293620E+00    0.1298665622E+00    0.2628934228E+00
    0.2300000000E+06    0.5493558252E+00    0.2408091608E-01    0.3829950024E+00    0.1299031632E+00    0.2636375143E+00
    0.2500000000E+06    0.5494091726E+00    0.2320080213E-01    0.3836664315E+00    0.1299351935E+00    0.2642997737E+00
    0.2700000000E+06    0.5494533579E+00    0.2241501201E-01    0.3842611982E+00    0.1299635792E+00    0.2648947683E+00
    0.2900000000E+06    0.5494903805E+00    0.2170761651E-01    0.3847926018E+00    0.1299890024E+00    0.2654336282E+00
    0.3100000000E+06    0.5495217074E+00    0.2106623652E-01    0.3852709292E+00    0.1300119777E+00    0.2659250298E+00
    0.3300000000E+06    0.5495484383E+00    0.2048108307E-01    0.3857042786E+00    0.1300329018E+00    0.2663758554E+00
    0.3500000000E+06    0.5495714129E+00    0.1994429737E-01    0.3860991240E+00    0.1300520858E+00    0.2667916461E+00
    0.3700000000E+06    0.5495912830E+00    0.1944948586E-01    0.3864607106E+00    0.1300697778E+00    0.2671769230E+00
    0.3900000000E+06    0.5496085614E+00    0.1899138555E-01    0.3867933397E+00    0.1300861783E+00    0.2675354184E+00
    0.4100000000E+06    0.5496236571E+00    0.1856561842E-01    0.3871005753E+00    0.1301014514E+00    0.2678702451E+00
    0.4300000000E+06    0.5496368999E+00    0.1816850825E-01    0.3873853997E+00    0.1301157331E+00    0.2681840241E+00
    0.4500000000E+06    0.5496485585E+00    0.1779694180E-01    0.3876503293E+00    0.1301291367E+00    0.2684789810E+00
    0.4700000000E+06    0.5496588536E+00    0.1744826222E-01    0.3878975044E+00    0.1301417580E+00    0.2687570196E+00
    0.4900000000E+06    0.5496679685E+00    0.1712018625E-01    0.3881287582E+00    0.1301536786E+00    0.2690197804E+00
    0.1000000000E+06    0.5483664805E+00    0.3470894500E-01    0.3745453115E+00    0.1294767332E+00    0.2558911606E+00
    0.3000000000E+06    0.5495066800E+00    0.2137933821E-01    0.3850378502E+00    0.1300007689E+00    0.2656847952E+00
    0.5000000000E+06    0.5496721322E+00    0.1696324692E-01    0.3882389171E+00    0.1301593982E+00    0.2691458836E+00
    0.7000000000E+06    0.5497200321E+00    0.1454205880E-01    0.3898959450E+00    0.1302496701E+00    0.2711292596E+00
    0.9000000000E+06    0.5497342664E+00    0.1295279567E-01    0.3909322685E+00    0.1303120893E+00    0.2724779606E+00
    0.1100000000E+07    0.5497355431E+00    0.1180489823E-01    0.3916490415E+00    0.1303595891E+00    0.2734817017E+00
    0.1300000000E+07    0.5497310706E+00    0.1092468413E-01    0.3921770600E+00    0.1303978491E+00    0.2742718081E+00
    0.1500000000E+07    0.5497238747E+00    0.1022143290E-01    0.3925832531E+00    0.1304298446E+00    0.2749180314E+00
    0.1700000000E+07    0.5497153826E+00    0.9642462079E-02    0.3929057725E+00    0.1304573216E+00    0.2754614893E+00
    0.1900000000E+07    0.5497063209E+00    0.9154777976E-02    0.3931681065E+00    0.1304813893E+00    0.2759282876E+00
    0.2100000000E+07    0.5496970780E+00    0.8736510644E-02    0.3933855768E+00    0.1305027951E+00    0.2763359508E+00
    0.2300000000E+07    0.5496878677E+00    0.8372506882E-02    0.3935686398E+00    0.1305220660E+00    0.2766967649E+00
    0.2500000000E+07    0.5496788086E+00    0.8051887101E-02    0.3937246955E+00    0.1305395872E+00    0.2770196492E+00
    0.2700000000E+07    0.5496699652E+00    0.7766608413E-02    0.3938591390E+00    0.1305556487E+00    0.2773112663E+00
    0.2900000000E+07    0.5496613706E+00    0.7510577869E-02    0.3939760033E+00    0.1305704740E+00    0.2775767139E+00
    0.3100000000E+07    0.5496530394E+00    0.7279082910E-02    0.3940783677E+00    0.1305842393E+00    0.2778199718E+00
    0.3300000000E+07    0.5496449749E+00    0.7068412985E-02    0.3941686265E+00    0.1305970856E+00    0.2780442023E+00
    0.3500000000E+07    0.5496371738E+00    0.6875600819E-02    0.3942486713E+00    0.1306091277E+00    0.2782519556E+00
    0.3700000000E+07    0.5496296291E+00    0.6698240997E-02    0.3943200172E+00    0.1306204599E+00    0.2784453165E+00
    0.3900000000E+07    0.5496223312E+00    0.6534359951E-02    0.3943838930E+00    0.1306311612E+00    0.2786260091E+00
    0.4100000000E+07    0.5496152699E+00    0.6382320957E-02    0.3944413061E+00    0.1306412981E+00    0.2787954742E+00
    0.4300000000E+07    0.5496084341E+00    0.6240753524E-02    0.3944930908E+00    0.1306509269E+00    0.2789549272E+00
    0.4500000000E+07    0.5496018129E+00    0.6108500083E-02    0.3945399440E+00    0.1306600961E+00    0.2791054020E+00
    0.4700000000E+07    0.5495953957E+00    0.5984575190E-02    0.3945824525E+00    0.1306688475E+00    0.2792477851E+00
    0.4900000000E+07    0.5495891720E+00    0.5868133896E-02    0.3946211141E+00    0.1306772175E+00    0.2793828416E+00
    0.1000000000E+07    0.5497359233E+00    0.1233733161E-01    0.3913202543E+00    0.1303372574E+00    0.2730126760E+00
    0.3000000000E+07    0.5496571717E+00    0.7392015345E-02    0.3940288347E+00    0.1305774797E+00    0.2777009025E+00
    0.5000000000E+07    0.5495861297E+00    0.5812487758E-02    0.3946391377E+00    0.1306812695E+00    0.2794478335E+00
    0.7000000000E+07    0.5495333384E+00    0.4958490960E-02    0.3948742716E+00    0.1307482794E+00    0.2804865636E+00
    0.9000000000E+07    0.5494917602E+00    0.4402468888E-02    0.3949768699E+00    0.1307978521E+00    0.2812132710E+00
    0.1100000000E+08    0.5494575446E+00    0.4003076112E-02    0.3950190880E+00    0.1308372127E+00    0.2817667724E+00
    0.1300000000E+08    0.5494284990E+00    0.3698066237E-02    0.3950297972E+00    0.1308698586E+00    0.2822110561E+00
    0.1500000000E+08    0.5494032745E+00    0.3455149954E-02    0.3950226596E+00    0.1308977506E+00    0.2825806137E+00
    0.1700000000E+08    0.5493809860E+00    0.3255675086E-02    0.3950048837E+00    0.1309220992E+00    0.2828960472E+00
    0.1900000000E+08    0.5493610230E+00    0.3088009272E-02    0.3949805741E+00    0.1309437044E+00    0.2831705939E+00
    0.2100000000E+08    0.5493429468E+00    0.2944468621E-02    0.3949522018E+00    0.1309631225E+00    0.2834132369E+00
    0.2300000000E+08    0.5493264319E+00    0.2819744655E-02    0.3949213184E+00    0.1309807561E+00    0.2836303376E+00
    0.2500000000E+08    0.5493112303E+00    0.2710035573E-02    0.3948889294E+00    0.1309969058E+00    0.2838265573E+00
    0.2700000000E+08    0.5492971487E+00    0.2612536972E-02    0.3948557028E+00    0.1310118023E+00    0.2840054080E+00
