  Pressure (Pa) 22mC5-400 (mol/kg) 2mC6-400 (mol/kg) 3mC6-400 (mol/kg) 23mC5-400 (mol/kg) C7-400 (mol/kg)
    0.1000000000E+01    0.1587147591E-02    0.3949579071E-02    0.1048239978E-02    0.5573717576E-03    0.6804106074E-02
    0.3000000000E+01    0.4696063514E-02    0.1145426830E-01    0.3045909308E-02    0.1649170688E-02    0.1977380487E-01
    0.5000000000E+01    0.7721496462E-02    0.1847313227E-01    0.4922265860E-02    0.2711671437E-02    0.3195948676E-01
    0.7000000000E+01    0.1066760761E-01    0.2504927743E-01    0.6688473127E-02    0.3746334165E-02    0.4343319500E-01
    0.9000000000E+01    0.1353827727E-01    0.3122080220E-01    0.8354352945E-02    0.4754520492E-02    0.5425832092E-01
    0.1100000000E+02    0.1633712835E-01    0.3702151373E-01    0.9928581743E-02    0.5737501716E-02    0.6449086886E-01
    0.1300000000E+02    0.1906754747E-01    0.4248152377E-01    0.1141885329E-01    0.6696466231E-02    0.7418050531E-01
    0.1500000000E+02    0.2173270407E-01    0.4762774698E-01    0.1283201444E-01    0.7632526224E-02    0.8337143392E-01
    0.1700000000E+02    0.2433556763E-01    0.5248431983E-01    0.1417417891E-01    0.8546723721E-02    0.9210312923E-01
    0.1900000000E+02    0.2687892332E-01    0.5707295471E-01    0.1545082328E-01    0.9440036083E-02    0.1004109551E+00
    0.2100000000E+02    0.2936538620E-01    0.6141324058E-01    0.1666686810E-01    0.1031338098E-01    0.1083266886E+00
    0.2300000000E+02    0.3179741410E-01    0.6552289955E-01    0.1782674710E-01    0.1116762090E-01    0.1158789651E+00
    0.2500000000E+02    0.3417731939E-01    0.6941800668E-01    0.1893446609E-01    0.1200356731E-01    0.1230936592E+00
    0.2700000000E+02    0.3650727961E-01    0.7311317918E-01    0.1999365371E-01    0.1282198436E-01    0.1299942113E+00
    0.2900000000E+02    0.3878934732E-01    0.7662173973E-01    0.2100760490E-01    0.1362359234E-01    0.1366019083E+00
    0.3100000000E+02    0.4102545896E-01    0.7995585826E-01    0.2197931865E-01    0.1440907079E-01    0.1429361269E+00
    0.3300000000E+02    0.4321744308E-01    0.8312667511E-01    0.2291153065E-01    0.1517906142E-01    0.1490145444E+00
    0.3500000000E+02    0.4536702776E-01    0.8614440873E-01    0.2380674170E-01    0.1593417064E-01    0.1548533218E+00
    0.3700000000E+02    0.4747584754E-01    0.8901844991E-01    0.2466724255E-01    0.1667497209E-01    0.1604672641E+00
    0.3900000000E+02    0.4954544970E-01    0.9175744459E-01    0.2549513560E-01    0.1740200874E-01    0.1658699601E+00
    0.4100000000E+02    0.5157730011E-01    0.9436936683E-01    0.2629235400E-01    0.1811579503E-01    0.1710739062E+00
    0.4300000000E+02    0.5357278851E-01    0.9686158328E-01    0.2706067843E-01    0.1881681866E-01    0.1760906140E+00
    0.4500000000E+02    0.5553323349E-01    0.9924091031E-01    0.2780175196E-01    0.1950554238E-01    0.1809307066E+00
    0.4700000000E+02    0.5745988704E-01    0.1015136647E+00    0.2851709315E-01    0.2018240557E-01    0.1856040030E+00
    0.4900000000E+02    0.5935393873E-01    0.1036857089E+00    0.2920810772E-01    0.2084782569E-01    0.1901195933E+00
    0.1000000000E+02    0.1494646316E-01    0.3416554729E-01    0.9152421539E-02    0.5249085606E-02    0.5944542545E-01
    0.3000000000E+02    0.3991303093E-01    0.7830988518E-01    0.2149856465E-01    0.1401830679E-01    0.1398020600E+00
    0.5000000000E+02    0.6028909452E-01    0.1047356825E+00    0.2954490352E-01    0.2117636942E-01    0.1923209067E+00
    0.7000000000E+02    0.7752796880E-01    0.1215856244E+00    0.3527457154E-01    0.2723329201E-01    0.2298199112E+00
    0.9000000000E+02    0.9250625487E-01    0.1327185756E+00    0.3960332246E-01    0.3249671890E-01    0.2582237623E+00
    0.1100000000E+03    0.1057862820E+00    0.1402014094E+00    0.4301475722E-01    0.3716400830E-01    0.2806641507E+00
    0.1300000000E+03    0.1177467970E+00    0.1452386087E+00    0.4578950546E-01    0.4136809205E-01    0.2989600194E+00
    0.1500000000E+03    0.1286532030E+00    0.1485769510E+00    0.4810223694E-01    0.4520212355E-01    0.3142445217E+00
    0.1700000000E+03    0.1386976901E+00    0.1507019909E+00    0.5006772966E-01    0.4873356112E-01    0.3272629176E+00
    0.1900000000E+03    0.1480233462E+00    0.1519415714E+00    0.5176474012E-01    0.5201262943E-01    0.3385270160E+00
    0.2100000000E+03    0.1567392646E+00    0.1525239374E+00    0.5324925069E-01    0.5507762150E-01    0.3484009323E+00
    0.2300000000E+03    0.1649303533E+00    0.1526120747E+00    0.5456224157E-01    0.5795834155E-01    0.3571514282E+00
    0.2500000000E+03    0.1726639033E+00    0.1523248726E+00    0.5573446498E-01    0.6067841021E-01    0.3649788507E+00
    0.2700000000E+03    0.1799941054E+00    0.1517506348E+00    0.5678949329E-01    0.6325684990E-01    0.3720368952E+00
    0.2900000000E+03    0.1869652297E+00    0.1509559688E+00    0.5774573056E-01    0.6570920066E-01    0.3784456554E+00
    0.3100000000E+03    0.1936139103E+00    0.1499917888E+00    0.5861777833E-01    0.6804832221E-01    0.3843004869E+00
    0.3300000000E+03    0.1999708177E+00    0.1488974616E+00    0.5941738633E-01    0.7028498095E-01    0.3896781820E+00
    0.3500000000E+03    0.2060619034E+00    0.1477037282E+00    0.6015412892E-01    0.7242828682E-01    0.3946413634E+00
    0.3700000000E+03    0.2119093405E+00    0.1464347994E+00    0.6083589587E-01    0.7448602329E-01    0.3992416750E+00
    0.3900000000E+03    0.2175322424E+00    0.1451098828E+00    0.6146925455E-01    0.7646489997E-01    0.4035221370E+00
    0.4100000000E+03    0.2229472212E+00    0.1437443110E+00    0.6205972159E-01    0.7837074835E-01    0.4075189135E+00
    0.4300000000E+03    0.2281688248E+00    0.1423503868E+00    0.6261196941E-01    0.8020867529E-01    0.4112626572E+00
    0.4500000000E+03    0.2332098826E+00    0.1409380233E+00    0.6312998532E-01    0.8198318450E-01    0.4147795448E+00
    0.4700000000E+03    0.2380817826E+00    0.1395152336E+00    0.6361719545E-01    0.8369827361E-01    0.4180920855E+00
    0.4900000000E+03    0.2427946942E+00    0.1380885094E+00    0.6407656248E-01    0.8535751258E-01    0.4212197573E+00
    0.1000000000E+03    0.9933159573E-01    0.1368269612E+00    0.4140290368E-01    0.3489542025E-01    0.2700546033E+00
    0.3000000000E+03    0.1903278351E+00    0.1504923761E+00    0.5819148595E-01    0.6689219885E-01    0.3814371361E+00
    0.5000000000E+03    0.2450944195E+00    0.1373753587E+00    0.6429662337E-01    0.8616720282E-01    0.4227196521E+00
    0.7000000000E+03    0.2845501373E+00    0.1237496594E+00    0.6771529317E-01    0.1000636160E+00    0.4461688796E+00
    0.9000000000E+03    0.3147347480E+00    0.1120669322E+00    0.6997955106E-01    0.1107017814E+00    0.4618845815E+00
    0.1100000000E+04    0.3385528129E+00    0.1023577465E+00    0.7162183693E-01    0.1191015702E+00    0.4734011013E+00
    0.1300000000E+04    0.3577402208E+00    0.9430007143E-01    0.7288320889E-01    0.1258726614E+00    0.4823282468E+00
    0.1500000000E+04    0.3734473990E+00    0.8756656615E-01    0.7389107369E-01    0.1314192269E+00    0.4895214527E+00
    0.1700000000E+04    0.3864798117E+00    0.8188620691E-01    0.7472005573E-01    0.1360243295E+00    0.4954842271E+00
    0.1900000000E+04    0.3974205689E+00    0.7704617626E-01    0.7541719843E-01    0.1398929494E+00    0.5005354188E+00
    0.2100000000E+04    0.4067017510E+00    0.7288172507E-01    0.7601384616E-01    0.1431770183E+00    0.5048883643E+00
    0.2300000000E+04    0.4146493623E+00    0.6926537068E-01    0.7653180653E-01    0.1459911993E+00    0.5086920734E+00
    0.2500000000E+04    0.4215131131E+00    0.6609794598E-01    0.7698678887E-01    0.1484233446E+00    0.5120542833E+00
    0.2700000000E+04    0.4274868156E+00    0.6330171064E-01    0.7739043762E-01    0.1505416578E+00    0.5150551329E+00
    0.2900000000E+04    0.4327226907E+00    0.6081518594E-01    0.7775159312E-01    0.1523997198E+00    0.5177556653E+00
    0.3100000000E+04    0.4373415926E+00    0.5858931152E-01    0.7807710468E-01    0.1540400814E+00    0.5202033257E+00
    0.3300000000E+04    0.4414404319E+00    0.5658458439E-01    0.7837237258E-01    0.1554968718E+00    0.5224356360E+00
    0.3500000000E+04    0.4450976389E+00    0.5476891910E-01    0.7864171993E-01    0.1567977183E+00    0.5244827220E+00
    0.3700000000E+04    0.4483772328E+00    0.5311603675E-01    0.7888865400E-01    0.1579651779E+00    0.5263690938E+00
    0.3900000000E+04    0.4513318882E+00    0.5160424278E-01    0.7911605406E-01    0.1590178146E+00    0.5281149277E+00
    0.4100000000E+04    0.4540052688E+00    0.5021549218E-01    0.7932630884E-01    0.1599710206E+00    0.5297370073E+00
    0.4300000000E+04    0.4564338221E+00    0.4893466865E-01    0.7952141892E-01    0.1608376473E+00    0.5312494256E+00
    0.4500000000E+04    0.4586481702E+00    0.4774902421E-01    0.7970307420E-01    0.1616284949E+00    0.5326641165E+00
    0.4700000000E+04    0.4606741991E+00    0.4664774010E-01    0.7987271318E-01    0.1623526955E+00    0.5339912640E+00
    0.4900000000E+04    0.4625339168E+00    0.4562158008E-01    0.8003156907E-01    0.1630180148E+00    0.5352396194E+00
    0.1000000000E+04    0.3273131991E+00    0.1069840450E+00    0.7085955856E-01    0.1151370827E+00    0.4680418406E+00
    0.3000000000E+04    0.4351027172E+00    0.5967233232E-01    0.7791843792E-01    0.1532448080E+00    0.5190085608E+00
    0.5000000000E+04    0.4634073969E+00    0.4513414893E-01    0.8010729164E-01    0.1633307073E+00    0.5358366558E+00
    0.7000000000E+04    0.4755281912E+00    0.3789088252E-01    0.8125092211E-01    0.1676877328E+00    0.5450358468E+00
    0.9000000000E+04    0.4820872085E+00    0.3339874587E-01    0.8197188793E-01    0.1700675441E+00    0.5510612436E+00
    0.1100000000E+05    0.4861492613E+00    0.3026424912E-01    0.8247438547E-01    0.1715556983E+00    0.5554066061E+00
    0.1300000000E+05    0.4888940533E+00    0.2791322024E-01    0.8284740791E-01    0.1725712713E+00    0.5587350248E+00
    0.1500000000E+05    0.4908648715E+00    0.2606241629E-01    0.8313661038E-01    0.1733078426E+00    0.5613922627E+00
    0.1700000000E+05    0.4923445411E+00    0.2455423012E-01    0.8336807351E-01    0.1738664986E+00    0.5635787938E+00
    0.1900000000E+05    0.4934940262E+00    0.2329309700E-01    0.8355788450E-01    0.1743049527E+00    0.5654199922E+00
    0.2100000000E+05    0.4944113622E+00    0.2221722952E-01    0.8371655628E-01    0.1746584687E+00    0.5669988570E+00
    0.2300000000E+05    0.4951595272E+00    0.2128464289E-01    0.8385127600E-01    0.1749497744E+00    0.5683728310E+00
    0.2500000000E+05    0.4957807553E+00    0.2046565615E-01    0.8396713867E-01    0.1751941616E+00    0.5695831145E+00
    0.2700000000E+05    0.4963043912E+00    0.1973859888E-01    0.8406786542E-01    0.1754022911E+00    0.5706601377E+00
    0.2900000000E+05    0.4967514379E+00    0.1908722005E-01    0.8415624267E-01    0.1755818185E+00    0.5716269343E+00
    0.3100000000E+05    0.4971373118E+00    0.1849905475E-01    0.8423440161E-01    0.1757383826E+00    0.5725013065E+00
    0.3300000000E+05    0.4974735774E+00    0.1796435604E-01    0.8430400233E-01    0.1758762274E+00    0.5732972618E+00
    0.3500000000E+05    0.4977690747E+00    0.1747537438E-01    0.8436635859E-01    0.1759986084E+00    0.5740259954E+00
    0.3700000000E+05    0.4980306738E+00    0.1702585815E-01    0.8442252472E-01    0.1761080643E+00    0.5746965775E+00
    0.3900000000E+05    0.4982637927E+00    0.1661069919E-01    0.8447335730E-01    0.1762066041E+00    0.5753164465E+00
    0.4100000000E+05    0.4984727604E+00    0.1622567606E-01    0.8451955996E-01    0.1762958385E+00    0.5758917684E+00
    0.4300000000E+05    0.4986610762E+00    0.1586726462E-01    0.8456171641E-01    0.1763770743E+00    0.5764277042E+00
    0.4500000000E+05    0.4988315989E+00    0.1553249592E-01    0.8460031523E-01    0.1764513825E+00    0.5769286116E+00
    0.4700000000E+05    0.4989866862E+00    0.1521884814E-01    0.8463576864E-01    0.1765196497E+00    0.5773981991E+00
    0.4900000000E+05    0.4991282995E+00    0.1492416316E-01    0.8466842705E-01    0.1765826158E+00    0.5778396456E+00
    0.1000000000E+05    0.4843342389E+00    0.3170772868E-01    0.8224341225E-01    0.1708889604E+00    0.5533917699E+00
    0.3000000000E+05    0.4969512239E+00    0.1878589883E-01    0.8419648632E-01    0.1756626786E+00    0.5720747223E+00
    0.5000000000E+05    0.4991945781E+00    0.1478334045E-01    0.8468380355E-01    0.1766123096E+00    0.5780506880E+00
    0.7000000000E+05    0.5001006892E+00    0.1262164395E-01    0.8489883434E-01    0.1770375913E+00    0.5812978046E+00
    0.9000000000E+05    0.5005814521E+00    0.1121261013E-01    0.8501366052E-01    0.1772865936E+00    0.5834236695E+00
    0.1100000000E+06    0.5008750357E+00    0.1019917974E-01    0.8508068580E-01    0.1774538050E+00    0.5849591699E+00
    0.1300000000E+06    0.5010704422E+00    0.9424340905E-02    0.8512141590E-01    0.1775758554E+00    0.5861381522E+00
    0.1500000000E+06    0.5012082870E+00    0.8806634026E-02    0.8514630946E-01    0.1776700668E+00    0.5870820217E+00
    0.1700000000E+06    0.5013096702E+00    0.8298971605E-02    0.8516105102E-01    0.1777457569E+00    0.5878609913E+00
    0.1900000000E+06    0.5013866049E+00    0.7871963180E-02    0.8516898387E-01    0.1778084150E+00    0.5885189090E+00
    0.2100000000E+06    0.5014464142E+00    0.7506177890E-02    0.8517219374E-01    0.1778615019E+00    0.5890847823E+00
    0.2300000000E+06    0.5014938055E+00    0.7188180666E-02    0.8517204264E-01    0.1779073170E+00    0.5895786826E+00
    0.2500000000E+06    0.5015319361E+00    0.6908342177E-02    0.8516945297E-01    0.1779474539E+00    0.5900150079E+00
    0.2700000000E+06    0.5015629982E+00    0.6659554233E-02    0.8516506815E-01    0.1779830554E+00    0.5904043959E+00
    0.2900000000E+06    0.5015885588E+00    0.6436438786E-02    0.8515934812E-01    0.1780149648E+00    0.5907549033E+00
    0.3100000000E+06    0.5016097659E+00    0.6234840818E-02    0.8515262842E-01    0.1780438195E+00    0.5910727610E+00
    0.3300000000E+06    0.5016274782E+00    0.6051491991E-02    0.8514515813E-01    0.1780701117E+00    0.5913628754E+00
    0.3500000000E+06    0.5016423497E+00    0.5883780963E-02    0.8513712483E-01    0.1780942280E+00    0.5916291712E+00
    0.3700000000E+06    0.5016548870E+00    0.5729592549E-02    0.8512867157E-01    0.1781164770E+00    0.5918748310E+00
    0.3900000000E+06    0.5016654876E+00    0.5587192563E-02    0.8511990862E-01    0.1781371084E+00    0.5921024673E+00
    0.4100000000E+06    0.5016744675E+00    0.5455143774E-02    0.8511092171E-01    0.1781563269E+00    0.5923142476E+00
    0.4300000000E+06    0.5016820808E+00    0.5332243473E-02    0.8510177802E-01    0.1781743019E+00    0.5925119881E+00
    0.4500000000E+06    0.5016885339E+00    0.5217476390E-02    0.8509253054E-01    0.1781911753E+00    0.5926972237E+00
    0.4700000000E+06    0.5016939957E+00    0.5109978683E-02    0.8508322123E-01    0.1782070667E+00    0.5928712620E+00
    0.4900000000E+06    0.5016986060E+00    0.5009010041E-02    0.8507388350E-01    0.1782220779E+00    0.5930352251E+00
    0.1000000000E+06    0.5007443646E+00    0.1066881632E-01    0.8505142312E-01    0.1773774561E+00    0.5842467936E+00
    0.3000000000E+06    0.5015996473E+00    0.6333172070E-02    0.8515609597E-01    0.1780297403E+00    0.5909175803E+00
    0.5000000000E+06    0.5017006290E+00    0.4960771074E-02    0.8506921252E-01    0.1782292813E+00    0.5931137365E+00
    0.7000000000E+06    0.5017164495E+00    0.4221541765E-02    0.8497847636E-01    0.1783430137E+00    0.5943333107E+00
    0.9000000000E+06    0.5017102436E+00    0.3741413605E-02    0.8489632125E-01    0.1784216759E+00    0.5951459359E+00
    0.1100000000E+07    0.5016968041E+00    0.3397158996E-02    0.8482300435E-01    0.1784815308E+00    0.5957417141E+00
    0.1300000000E+07    0.5016809427E+00    0.3134635400E-02    0.8475726831E-01    0.1785297325E+00    0.5962051619E+00
    0.1500000000E+07    0.5016645058E+00    0.2925805784E-02    0.8469784602E-01    0.1785700321E+00    0.5965805226E+00
    0.1700000000E+07    0.5016482622E+00    0.2754496797E-02    0.8464368772E-01    0.1786046318E+00    0.5968935764E+00
    0.1900000000E+07    0.5016325371E+00    0.2610633692E-02    0.8459395767E-01    0.1786349312E+00    0.5971605344E+00
    0.2100000000E+07    0.5016174580E+00    0.2487568120E-02    0.8454799303E-01    0.1786618734E+00    0.5973921895E+00
    0.2300000000E+07    0.5016030601E+00    0.2380711037E-02    0.8450526423E-01    0.1786861233E+00    0.5975960544E+00
    0.2500000000E+07    0.5015893344E+00    0.2286778445E-02    0.8446534366E-01    0.1787081671E+00    0.5977775480E+00
    0.2700000000E+07    0.5015762521E+00    0.2203349602E-02    0.8442788203E-01    0.1787283706E+00    0.5979406956E+00
    0.2900000000E+07    0.5015637753E+00    0.2128595360E-02    0.8439259084E-01    0.1787470161E+00    0.5980885606E+00
    0.3100000000E+07    0.5015518638E+00    0.2061104229E-02    0.8435922931E-01    0.1787643255E+00    0.5982235236E+00
    0.3300000000E+07    0.5015404779E+00    0.1999767153E-02    0.8432759453E-01    0.1787804768E+00    0.5983474677E+00
    0.3500000000E+07    0.5015295797E+00    0.1943698917E-02    0.8429751399E-01    0.1787956147E+00    0.5984619056E+00
    0.3700000000E+07    0.5015191338E+00    0.1892183176E-02    0.8426883982E-01    0.1788098585E+00    0.5985680693E+00
    0.3900000000E+07    0.5015091077E+00    0.1844633131E-02    0.8424144437E-01    0.1788233076E+00    0.5986669738E+00
    0.4100000000E+07    0.5014994715E+00    0.1800562864E-02    0.8421521664E-01    0.1788360457E+00    0.5987594647E+00
    0.4300000000E+07    0.5014901981E+00    0.1759566058E-02    0.8419005956E-01    0.1788481440E+00    0.5988462531E+00
    0.4500000000E+07    0.5014812627E+00    0.1721299966E-02    0.8416588773E-01    0.1788596637E+00    0.5989279421E+00
    0.4700000000E+07    0.5014726427E+00    0.1685473159E-02    0.8414262564E-01    0.1788706572E+00    0.5990050472E+00
    0.4900000000E+07    0.5014643176E+00    0.1651836043E-02    0.8412020616E-01    0.1788811707E+00    0.5990780124E+00
    0.1000000000E+07    0.5017040189E+00    0.3556570289E-02    0.8485863012E-01    0.1784533917E+00    0.5954642888E+00
    0.3000000000E+07    0.5015577514E+00    0.2094017249E-02    0.8437568234E-01    0.1787558258E+00    0.5981575272E+00
    0.5000000000E+07    0.5014602597E+00    0.1635770198E-02    0.8410929343E-01    0.1788862600E+00    0.5991130648E+00
    0.7000000000E+07    0.5013908160E+00    0.1389953033E-02    0.8392361421E-01    0.1789703910E+00    0.5996679391E+00
    0.9000000000E+07    0.5013370538E+00    0.1230680490E-02    0.8378058291E-01    0.1790325904E+00    0.6000500627E+00
    0.1100000000E+08    0.5012932210E+00    0.1116668871E-02    0.8366406048E-01    0.1790819540E+00    0.6003377034E+00
    0.1300000000E+08    0.5012562267E+00    0.1029830818E-02    0.8356565779E-01    0.1791228819E+00    0.6005664380E+00
    0.1500000000E+08    0.5012242261E+00    0.9608190416E-03    0.8348044360E-01    0.1791578401E+00    0.6007552374E+00
    0.1700000000E+08    0.5011960312E+00    0.9042498779E-03    0.8340526814E-01    0.1791883499E+00    0.6009153334E+00
    0.1900000000E+08    0.5011708324E+00    0.8567738878E-03    0.8333799484E-01    0.1792154167E+00    0.6010538887E+00
    0.2100000000E+08    0.5011480539E+00    0.8161830343E-03    0.8327710662E-01    0.1792397392E+00    0.6011757331E+00
    0.2300000000E+08    0.5011272710E+00    0.7809545302E-03    0.8322148688E-01    0.1792618231E+00    0.6012842672E+00
    0.2500000000E+08    0.5011081619E+00    0.7499994526E-03    0.8317028957E-01    0.1792820459E+00    0.6013819701E+00
    0.2700000000E+08    0.5010904768E+00    0.7225156409E-03    0.8312285811E-01    0.1793006971E+00    0.6014707014E+00
