  Pressure (Pa) 22mC5-400 (mol/kg) 2mC6-400 (mol/kg) 3mC6-400 (mol/kg) 23mC5-400 (mol/kg) C7-400 (mol/kg)
    0.1000000000E+01    0.1585501188E-02    0.4755670870E-02    0.5266442299E-03    0.7423918834E-03    0.3418353870E-02
    0.3000000000E+01    0.4681800792E-02    0.1388203287E-01    0.1544448238E-02    0.2192219746E-02    0.1002571135E-01
    0.5000000000E+01    0.7683332382E-02    0.2252606713E-01    0.2517713644E-02    0.3597702218E-02    0.1634517486E-01
    0.7000000000E+01    0.1059549945E-01    0.3072193745E-01    0.3449498340E-02    0.4961367459E-02    0.2239648451E-01
    0.9000000000E+01    0.1342328897E-01    0.3850071501E-01    0.4342582425E-02    0.6285548772E-02    0.2819758837E-01
    0.1100000000E+02    0.1617131105E-01    0.4589071827E-01    0.5199499203E-02    0.7572403148E-02    0.3376484236E-01
    0.1300000000E+02    0.1884383416E-01    0.5291780913E-01    0.6022562117E-02    0.8823927733E-02    0.3911318390E-01
    0.1500000000E+02    0.2144481637E-01    0.5960565177E-01    0.6813888221E-02    0.1004197447E-01    0.4425628330E-01
    0.1700000000E+02    0.2397793337E-01    0.6597593949E-01    0.7575418700E-02    0.1122826319E-01    0.4920667608E-01
    0.1900000000E+02    0.2644660336E-01    0.7204859416E-01    0.8308936866E-02    0.1238439324E-01    0.5397587905E-01
    0.2100000000E+02    0.2885400941E-01    0.7784194197E-01    0.9016083983E-02    0.1351185399E-01    0.5857449236E-01
    0.2300000000E+02    0.3120311956E-01    0.8337286876E-01    0.9698373221E-02    0.1461203417E-01    0.6301228950E-01
    0.2500000000E+02    0.3349670480E-01    0.8865695754E-01    0.1035720199E-01    0.1568623035E-01    0.6729829687E-01
    0.2700000000E+02    0.3573735532E-01    0.9370861077E-01    0.1099386287E-01    0.1673565450E-01    0.7144086431E-01
    0.2900000000E+02    0.3792749521E-01    0.9854115897E-01    0.1160955334E-01    0.1776144087E-01    0.7544772775E-01
    0.3100000000E+02    0.4006939565E-01    0.1031669578E+00    0.1220538442E-01    0.1876465217E-01    0.7932606506E-01
    0.3300000000E+02    0.4216518694E-01    0.1075974746E+00    0.1278238836E-01    0.1974628522E-01    0.8308254578E-01
    0.3500000000E+02    0.4421686937E-01    0.1118433662E+00    0.1334152562E-01    0.2070727597E-01    0.8672337575E-01
    0.3700000000E+02    0.4622632311E-01    0.1159145486E+00    0.1388369098E-01    0.2164850421E-01    0.9025433699E-01
    0.3900000000E+02    0.4819531720E-01    0.1198202592E+00    0.1440971913E-01    0.2257079770E-01    0.9368082354E-01
    0.4100000000E+02    0.5012551771E-01    0.1235691138E+00    0.1492038970E-01    0.2347493604E-01    0.9700787381E-01
    0.4300000000E+02    0.5201849528E-01    0.1271691572E+00    0.1541643170E-01    0.2436165419E-01    0.1002401996E+00
    0.4500000000E+02    0.5387573189E-01    0.1306279092E+00    0.1589852766E-01    0.2523164560E-01    0.1033822122E+00
    0.4700000000E+02    0.5569862714E-01    0.1339524062E+00    0.1636731726E-01    0.2608556521E-01    0.1064380468E+00
    0.4900000000E+02    0.5748850396E-01    0.1371492394E+00    0.1682340070E-01    0.2692403204E-01    0.1094115829E+00
    0.1000000000E+02    0.1480699654E-01    0.4224264268E-01    0.4775412275E-02    0.6933513439E-02    0.3100948164E-01
    0.3000000000E+02    0.3900433905E-01    0.1008791655E+00    0.1190988503E-01    0.1826580462E-01    0.7740253396E-01
    0.5000000000E+02    0.5837145422E-01    0.1387017284E+00    0.1704685512E-01    0.2733765493E-01    0.1108686367E+00
    0.7000000000E+02    0.7456787031E-01    0.1643618155E+00    0.2096910406E-01    0.3492559826E-01    0.1364664293E+00
    0.9000000000E+02    0.8854368572E-01    0.1823747730E+00    0.2409234607E-01    0.4147423208E-01    0.1568841224E+00
    0.1100000000E+03    0.1008851584E+00    0.1953130866E+00    0.2665881197E-01    0.4725790717E-01    0.1736890488E+00
    0.1300000000E+03    0.1119755716E+00    0.2047419214E+00    0.2881975366E-01    0.5245599501E-01    0.1878604439E+00
    0.1500000000E+03    0.1220773205E+00    0.2116635995E+00    0.3067482106E-01    0.5719129697E-01    0.2000438288E+00
    0.1700000000E+03    0.1313769291E+00    0.2167468947E+00    0.3229254407E-01    0.6155110878E-01    0.2106833797E+00
    0.1900000000E+03    0.1400112133E+00    0.2204532883E+00    0.3372173400E-01    0.6559946364E-01    0.2200956391E+00
    0.2100000000E+03    0.1480832341E+00    0.2231102715E+00    0.3499818896E-01    0.6938459738E-01    0.2285128827E+00
    0.2300000000E+03    0.1556724226E+00    0.2249558216E+00    0.3614882102E-01    0.7294368688E-01    0.2361098210E+00
    0.2500000000E+03    0.1628412309E+00    0.2261664072E+00    0.3719429578E-01    0.7630596246E-01    0.2430206821E+00
    0.2700000000E+03    0.1696396307E+00    0.2268751945E+00    0.3815077664E-01    0.7949481330E-01    0.2493505048E+00
    0.2900000000E+03    0.1761082360E+00    0.2271842130E+00    0.3903111067E-01    0.8252924885E-01    0.2551828183E+00
    0.3100000000E+03    0.1822805195E+00    0.2271726836E+00    0.3984565496E-01    0.8542493614E-01    0.2605849957E+00
    0.3300000000E+03    0.1881844180E+00    0.2269028424E+00    0.4060286514E-01    0.8819495114E-01    0.2656120680E+00
    0.3500000000E+03    0.1938435158E+00    0.2264240908E+00    0.4130972272E-01    0.9085033258E-01    0.2703094938E+00
    0.3700000000E+03    0.1992779307E+00    0.2257760033E+00    0.4197205085E-01    0.9340049680E-01    0.2747152075E+00
    0.3900000000E+03    0.2045049882E+00    0.2249905415E+00    0.4259475118E-01    0.9585355308E-01    0.2788611553E+00
    0.4100000000E+03    0.2095397395E+00    0.2240937056E+00    0.4318198419E-01    0.9821654629E-01    0.2827744654E+00
    0.4300000000E+03    0.2143953657E+00    0.2231067823E+00    0.4373730818E-01    0.1004956460E+00    0.2864783501E+00
    0.4500000000E+03    0.2190834964E+00    0.2220472987E+00    0.4426378762E-01    0.1026962955E+00    0.2899928092E+00
    0.4700000000E+03    0.2236144622E+00    0.2209297588E+00    0.4476407860E-01    0.1048233303E+00    0.2933351848E+00
    0.4900000000E+03    0.2279974984E+00    0.2197662174E+00    0.4524049682E-01    0.1068810729E+00    0.2965206034E+00
    0.1000000000E+03    0.9489121054E-01    0.1893634990E+00    0.2543418019E-01    0.4444881792E-01    0.1656670050E+00
    0.3000000000E+03    0.1792295577E+00    0.2272142842E+00    0.3944603914E-01    0.8399356534E-01    0.2579339820E+00
    0.5000000000E+03    0.2301361706E+00    0.2191704070E+00    0.4547039791E-01    0.1078851897E+00    0.2980586638E+00
    0.7000000000E+03    0.2667933454E+00    0.2065549793E+00    0.4919783158E-01    0.1251020342E+00    0.3230827867E+00
    0.9000000000E+03    0.2947361989E+00    0.1945572259E+00    0.5185880558E-01    0.1382350539E+00    0.3410576919E+00
    0.1100000000E+04    0.3166779435E+00    0.1840230241E+00    0.5390941674E-01    0.1485545503E+00    0.3549801830E+00
    0.1300000000E+04    0.3342616191E+00    0.1749355156E+00    0.5556665430E-01    0.1568300065E+00    0.3662810505E+00
    0.1500000000E+04    0.3485822153E+00    0.1670974605E+00    0.5695016756E-01    0.1635744015E+00    0.3757516862E+00
    0.1700000000E+04    0.3604067405E+00    0.1602978741E+00    0.5813273069E-01    0.1691471765E+00    0.3838747616E+00
    0.1900000000E+04    0.3702891127E+00    0.1543528838E+00    0.5916181791E-01    0.1738079914E+00    0.3909659256E+00
    0.2100000000E+04    0.3786381692E+00    0.1491118187E+00    0.6007006960E-01    0.1777485533E+00    0.3972426864E+00
    0.2300000000E+04    0.3857609588E+00    0.1444537671E+00    0.6088086371E-01    0.1811128804E+00    0.4028611500E+00
    0.2500000000E+04    0.3918915408E+00    0.1402821913E+00    0.6161150111E-01    0.1840107865E+00    0.4079370626E+00
    0.2700000000E+04    0.3972107137E+00    0.1365198617E+00    0.6227513284E-01    0.1865271195E+00    0.4125585628E+00
    0.2900000000E+04    0.4018598243E+00    0.1331046631E+00    0.6288198125E-01    0.1887282306E+00    0.4167942751E+00
    0.3100000000E+04    0.4059506048E+00    0.1299862888E+00    0.6344014387E-01    0.1906665829E+00    0.4206986443E+00
    0.3300000000E+04    0.4095722846E+00    0.1271236824E+00    0.6395613991E-01    0.1923840846E+00    0.4243155682E+00
    0.3500000000E+04    0.4127968013E+00    0.1244830731E+00    0.6443529223E-01    0.1939145312E+00    0.4276809393E+00
    0.3700000000E+04    0.4156826659E+00    0.1220364663E+00    0.6488200071E-01    0.1952854174E+00    0.4308244660E+00
    0.3900000000E+04    0.4182778612E+00    0.1197604794E+00    0.6529994211E-01    0.1965192969E+00    0.4337710061E+00
    0.4100000000E+04    0.4206220397E+00    0.1176354400E+00    0.6569221868E-01    0.1976348124E+00    0.4365415593E+00
    0.4300000000E+04    0.4227482057E+00    0.1156446828E+00    0.6606147081E-01    0.1986474852E+00    0.4391540198E+00
    0.4500000000E+04    0.4246840148E+00    0.1137739964E+00    0.6640996330E-01    0.1995703244E+00    0.4416237542E+00
    0.4700000000E+04    0.4264527871E+00    0.1120111877E+00    0.6673965262E-01    0.2004143027E+00    0.4439640517E+00
    0.4900000000E+04    0.4280743033E+00    0.1103457330E+00    0.6705223977E-01    0.2011887300E+00    0.4461864784E+00
    0.1000000000E+04    0.3063378880E+00    0.1891003342E+00    0.5294362145E-01    0.1436906162E+00    0.3484149134E+00
    0.3000000000E+04    0.4039689703E+00    0.1315111303E+00    0.6316670896E-01    0.1897274172E+00    0.4187849208E+00
    0.5000000000E+04    0.4288352120E+00    0.1095466117E+00    0.6720259227E-01    0.2015523907E+00    0.4472567043E+00
    0.7000000000E+04    0.4393456025E+00    0.9698498874E-01    0.6959133554E-01    0.2065981181E+00    0.4643794835E+00
    0.9000000000E+04    0.4449917910E+00    0.8843929335E-01    0.7123187472E-01    0.2093362375E+00    0.4762893213E+00
    0.1100000000E+05    0.4484714352E+00    0.8207310670E-01    0.7245312187E-01    0.2110415421E+00    0.4852518863E+00
    0.1300000000E+05    0.4508140466E+00    0.7706040459E-01    0.7340997473E-01    0.2122020720E+00    0.4923419159E+00
    0.1500000000E+05    0.4524910828E+00    0.7296323630E-01    0.7418682390E-01    0.2130420521E+00    0.4981485657E+00
    0.1700000000E+05    0.4537469839E+00    0.6952295840E-01    0.7483430424E-01    0.2136781286E+00    0.5030272672E+00
    0.1900000000E+05    0.4547204370E+00    0.6657475854E-01    0.7538497133E-01    0.2141767099E+00    0.5072076754E+00
    0.2100000000E+05    0.4554957003E+00    0.6400751792E-01    0.7586087749E-01    0.2145782833E+00    0.5108460608E+00
    0.2300000000E+05    0.4561267893E+00    0.6174298179E-01    0.7627758331E-01    0.2149088965E+00    0.5140531572E+00
    0.2500000000E+05    0.4566498643E+00    0.5972409466E-01    0.7664643615E-01    0.2151860496E+00    0.5169100361E+00
    0.2700000000E+05    0.4570900114E+00    0.5790806391E-01    0.7697593838E-01    0.2154219275E+00    0.5194776703E+00
    0.2900000000E+05    0.4574651608E+00    0.5626203054E-01    0.7727260722E-01    0.2156252715E+00    0.5218029625E+00
    0.3100000000E+05    0.4577884577E+00    0.5476025656E-01    0.7754153589E-01    0.2158025136E+00    0.5239226914E+00
    0.3300000000E+05    0.4580697516E+00    0.5338223550E-01    0.7778677171E-01    0.2159584912E+00    0.5258661780E+00
    0.3500000000E+05    0.4583165637E+00    0.5211138609E-01    0.7801157796E-01    0.2160969123E+00    0.5276571369E+00
    0.3700000000E+05    0.4585347338E+00    0.5093412654E-01    0.7821861963E-01    0.2162206665E+00    0.5293149929E+00
    0.3900000000E+05    0.4587288632E+00    0.4983920432E-01    0.7841009785E-01    0.2163320393E+00    0.5308558365E+00
    0.4100000000E+05    0.4589026250E+00    0.4881720154E-01    0.7858784912E-01    0.2164328621E+00    0.5322931300E+00
    0.4300000000E+05    0.4590589861E+00    0.4786016390E-01    0.7875341968E-01    0.2165246198E+00    0.5336382392E+00
    0.4500000000E+05    0.4592003685E+00    0.4696131791E-01    0.7890812210E-01    0.2166085292E+00    0.5349008373E+00
    0.4700000000E+05    0.4593287680E+00    0.4611485270E-01    0.7905307892E-01    0.2166855968E+00    0.5360892187E+00
    0.4900000000E+05    0.4594458441E+00    0.4531574938E-01    0.7918925668E-01    0.2167566626E+00    0.5372105428E+00
    0.1000000000E+05    0.4469184116E+00    0.8504845974E-01    0.7188288979E-01    0.2102781953E+00    0.4810557671E+00
    0.3000000000E+05    0.4576326113E+00    0.5549449784E-01    0.7741026512E-01    0.2157168219E+00    0.5228865399E+00
    0.5000000000E+05    0.4595005794E+00    0.4493257284E-01    0.7925431953E-01    0.2167901702E+00    0.5377480338E+00
    0.7000000000E+05    0.4602439198E+00    0.3894482807E-01    0.8024945877E-01    0.2172696437E+00    0.5461317564E+00
    0.9000000000E+05    0.4606325433E+00    0.3493508487E-01    0.8089003043E-01    0.2175499775E+00    0.5517318976E+00
    0.1100000000E+06    0.4608662376E+00    0.3199905752E-01    0.8134339547E-01    0.2177380521E+00    0.5558274221E+00
    0.1300000000E+06    0.4610192584E+00    0.2972487122E-01    0.8168404584E-01    0.2178752389E+00    0.5589981604E+00
    0.1500000000E+06    0.4611253217E+00    0.2789362122E-01    0.8195080629E-01    0.2179810809E+00    0.5615512228E+00
    0.1700000000E+06    0.4612018582E+00    0.2637647506E-01    0.8216613767E-01    0.2180660822E+00    0.5636668840E+00
    0.1900000000E+06    0.4612587442E+00    0.2509187815E-01    0.8234404076E-01    0.2181364270E+00    0.5654590351E+00
    0.2100000000E+06    0.4613019713E+00    0.2398529116E-01    0.8249374742E-01    0.2181960119E+00    0.5670037217E+00
    0.2300000000E+06    0.4613353724E+00    0.2301864173E-01    0.8262161857E-01    0.2182474250E+00    0.5683539637E+00
    0.2500000000E+06    0.4613615058E+00    0.2216441917E-01    0.8273219474E-01    0.2182924589E+00    0.5695480355E+00
    0.2700000000E+06    0.4613821390E+00    0.2140217208E-01    0.8282881269E-01    0.2183323988E+00    0.5706143682E+00
    0.2900000000E+06    0.4613985291E+00    0.2071633105E-01    0.8291398506E-01    0.2183681929E+00    0.5715745927E+00
    0.3100000000E+06    0.4614115921E+00    0.2009480131E-01    0.8298964350E-01    0.2184005578E+00    0.5724455044E+00
    0.3300000000E+06    0.4614220097E+00    0.1952802241E-01    0.8305729972E-01    0.2184300463E+00    0.5732403743E+00
    0.3500000000E+06    0.4614302986E+00    0.1900832191E-01    0.8311815528E-01    0.2184570928E+00    0.5739698495E+00
    0.3700000000E+06    0.4614368564E+00    0.1852946017E-01    0.8317317836E-01    0.2184820440E+00    0.5746425869E+00
    0.3900000000E+06    0.4614419936E+00    0.1808630272E-01    0.8322315850E-01    0.2185051804E+00    0.5752657091E+00
    0.4100000000E+06    0.4614459556E+00    0.1767457993E-01    0.8326874658E-01    0.2185267316E+00    0.5758451383E+00
    0.4300000000E+06    0.4614489385E+00    0.1729070779E-01    0.8331048435E-01    0.2185468881E+00    0.5763858452E+00
    0.4500000000E+06    0.4614511006E+00    0.1693165215E-01    0.8334882668E-01    0.2185658089E+00    0.5768920382E+00
    0.4700000000E+06    0.4614525708E+00    0.1659482448E-01    0.8338415850E-01    0.2185836283E+00    0.5773673074E+00
    0.4900000000E+06    0.4614534549E+00    0.1627800090E-01    0.8341680795E-01    0.2186004606E+00    0.5778147375E+00
    0.1000000000E+06    0.4607626775E+00    0.3336506574E-01    0.8113425490E-01    0.2176521950E+00    0.5539223449E+00
    0.3000000000E+06    0.4614054293E+00    0.2039817549E-01    0.8295290068E-01    0.2183847662E+00    0.5720203128E+00
    0.5000000000E+06    0.4614537051E+00    0.1612647942E-01    0.8343221636E-01    0.2186085378E+00    0.5780288606E+00
    0.7000000000E+06    0.4614428535E+00    0.1379193317E-01    0.8365072200E-01    0.2187360708E+00    0.5813413760E+00
    0.9000000000E+06    0.4614196217E+00    0.1226295318E-01    0.8377090075E-01    0.2188242903E+00    0.5835283318E+00
    0.1100000000E+07    0.4613939642E+00    0.1116048424E-01    0.8384332790E-01    0.2188914297E+00    0.5851168430E+00
    0.1300000000E+07    0.4613686966E+00    0.1031627598E-01    0.8388908511E-01    0.2189455079E+00    0.5863414858E+00
    0.1500000000E+07    0.4613446723E+00    0.9642576721E-02    0.8391855493E-01    0.2189907287E+00    0.5873249399E+00
    0.1700000000E+07    0.4613221025E+00    0.9088491499E-02    0.8393744250E-01    0.2190295600E+00    0.5881385535E+00
    0.1900000000E+07    0.4613009714E+00    0.8622180130E-02    0.8394913660E-01    0.2190635701E+00    0.5888270833E+00
    0.2100000000E+07    0.4612811843E+00    0.8222556983E-02    0.8395577100E-01    0.2190938160E+00    0.5894202464E+00
    0.2300000000E+07    0.4612626239E+00    0.7875024423E-02    0.8395875153E-01    0.2191210430E+00    0.5899386690E+00
    0.2500000000E+07    0.4612451731E+00    0.7569109567E-02    0.8395903855E-01    0.2191457960E+00    0.5903971859E+00
    0.2700000000E+07    0.4612287231E+00    0.7297075446E-02    0.8395730778E-01    0.2191684849E+00    0.5908067828E+00
    0.2900000000E+07    0.4612131762E+00    0.7053064505E-02    0.8395404645E-01    0.2191894262E+00    0.5911757964E+00
    0.3100000000E+07    0.4611984456E+00    0.6832548846E-02    0.8394961321E-01    0.2192088688E+00    0.5915106858E+00
    0.3300000000E+07    0.4611844548E+00    0.6631965212E-02    0.8394427668E-01    0.2192270122E+00    0.5918165451E+00
    0.3500000000E+07    0.4611711369E+00    0.6448465532E-02    0.8393824112E-01    0.2192440186E+00    0.5920974548E+00
    0.3700000000E+07    0.4611584327E+00    0.6279742093E-02    0.8393166386E-01    0.2192600217E+00    0.5923567282E+00
    0.3900000000E+07    0.4611462900E+00    0.6123902316E-02    0.8392466743E-01    0.2192751330E+00    0.5925970882E+00
    0.4100000000E+07    0.4611346629E+00    0.5979377292E-02    0.8391734818E-01    0.2192894464E+00    0.5928207965E+00
    0.4300000000E+07    0.4611235104E+00    0.5844853825E-02    0.8390978254E-01    0.2193030419E+00    0.5930297498E+00
    0.4500000000E+07    0.4611127962E+00    0.5719223152E-02    0.8390203154E-01    0.2193159877E+00    0.5932255528E+00
    0.4700000000E+07    0.4611024878E+00    0.5601541706E-02    0.8389414424E-01    0.2193283432E+00    0.5934095733E+00
    0.4900000000E+07    0.4610925562E+00    0.5491000721E-02    0.8388616028E-01    0.2193401596E+00    0.5935829863E+00
    0.1000000000E+07    0.4614068464E+00    0.1167163904E-01    0.8381139822E-01    0.2188598645E+00    0.5843789555E+00
    0.3000000000E+07    0.4612057138E+00    0.6940111712E-02    0.8395195777E-01    0.2191993214E+00    0.5913471610E+00
    0.5000000000E+07    0.4610877235E+00    0.5438186051E-02    0.8388214236E-01    0.2193458800E+00    0.5936660376E+00
    0.7000000000E+07    0.4610057126E+00    0.4628652130E-02    0.8380194380E-01    0.2194404630E+00    0.5949571982E+00
    0.9000000000E+07    0.4609429141E+00    0.4102686594E-02    0.8372720731E-01    0.2195104146E+00    0.5958182993E+00
    0.1100000000E+08    0.4608920379E+00    0.3725487342E-02    0.8365952134E-01    0.2195659450E+00    0.5964497589E+00
    0.1300000000E+08    0.4608492783E+00    0.3437798002E-02    0.8359827276E-01    0.2196119951E+00    0.5969409153E+00
    0.1500000000E+08    0.4608124006E+00    0.3208924073E-02    0.8354255093E-01    0.2196513347E+00    0.5973386132E+00
    0.1700000000E+08    0.4607799816E+00    0.3021155398E-02    0.8349152220E-01    0.2196856732E+00    0.5976701784E+00
    0.1900000000E+08    0.4607510586E+00    0.2863458111E-02    0.8344449091E-01    0.2197161400E+00    0.5979528071E+00
    0.2100000000E+08    0.4607249505E+00    0.2728549987E-02    0.8340088975E-01    0.2197435206E+00    0.5981979540E+00
    0.2300000000E+08    0.4607011578E+00    0.2611403907E-02    0.8336025696E-01    0.2197683833E+00    0.5984135954E+00
    0.2500000000E+08    0.4606793029E+00    0.2508422056E-02    0.8332221463E-01    0.2197911526E+00    0.5986054862E+00
    0.2700000000E+08    0.4606590937E+00    0.2416952162E-02    0.8328645093E-01    0.2198121538E+00    0.5987779018E+00
