  Pressure (Pa) 22mC5-400 (mol/kg) 2mC6-400 (mol/kg) 3mC6-400 (mol/kg) 23mC5-400 (mol/kg) C7-400 (mol/kg)
    0.1000000000E+01    0.1586789385E-02    0.4700572318E-02    0.5188648078E-03    0.1857486288E-03    0.1347241970E-01
    0.3000000000E+01    0.4692985682E-02    0.1342530894E-01    0.1479499233E-02    0.5493630392E-03    0.3842460021E-01
    0.5000000000E+01    0.7713328785E-02    0.2135359112E-01    0.2349810637E-02    0.9029337177E-03    0.6104176205E-01
    0.7000000000E+01    0.1065230430E-01    0.2859151087E-01    0.3142323348E-02    0.1246985358E-02    0.8164719828E-01
    0.9000000000E+01    0.1351407995E-01    0.3522651900E-01    0.3867332549E-02    0.1582005473E-02    0.1005067040E+00
    0.1100000000E+02    0.1630253345E-01    0.4133140577E-01    0.4533380136E-02    0.1908447657E-02    0.1178408446E+00
    0.1300000000E+02    0.1902127762E-01    0.4696729813E-01    0.5147613579E-02    0.2226734517E-02    0.1338342091E+00
    0.1500000000E+02    0.2167368276E-01    0.5218594622E-01    0.5716060043E-02    0.2537260298E-02    0.1486424786E+00
    0.1700000000E+02    0.2426289693E-01    0.5703148846E-01    0.6243838226E-02    0.2840393247E-02    0.1623978898E+00
    0.1900000000E+02    0.2679186411E-01    0.6154182931E-01    0.6735323839E-02    0.3136477745E-02    0.1752135032E+00
    0.2100000000E+02    0.2926334071E-01    0.6574972559E-01    0.7194280133E-02    0.3425836227E-02    0.1871865695E+00
    0.2300000000E+02    0.3167991039E-01    0.6968365103E-01    0.7623961822E-02    0.3708770928E-02    0.1984012113E+00
    0.2500000000E+02    0.3404399754E-01    0.7336849038E-01    0.8027198496E-02    0.3985565451E-02    0.2089305747E+00
    0.2700000000E+02    0.3635787956E-01    0.7682610122E-01    0.8406462126E-02    0.4256486204E-02    0.2188385713E+00
    0.2900000000E+02    0.3862369790E-01    0.8007577209E-01    0.8763922068E-02    0.4521783695E-02    0.2281812973E+00
    0.3100000000E+02    0.4084346823E-01    0.8313459876E-01    0.9101490211E-02    0.4781693720E-02    0.2370081991E+00
    0.3300000000E+02    0.4301908963E-01    0.8601779532E-01    0.9420858254E-02    0.5036438436E-02    0.2453630354E+00
    0.3500000000E+02    0.4515235302E-01    0.8873895294E-01    0.9723528679E-02    0.5286227348E-02    0.2532846761E+00
    0.3700000000E+02    0.4724494884E-01    0.9131025644E-01    0.1001084062E-01    0.5531258211E-02    0.2608077711E+00
    0.3900000000E+02    0.4929847414E-01    0.9374266650E-01    0.1028399162E-01    0.5771717850E-02    0.2679633108E+00
    0.4100000000E+02    0.5131443895E-01    0.9604607376E-01    0.1054405592E-01    0.6007782917E-02    0.2747791000E+00
    0.4300000000E+02    0.5329427231E-01    0.9822942980E-01    0.1079200010E-01    0.6239620587E-02    0.2812801595E+00
    0.4500000000E+02    0.5523932762E-01    0.1003008590E+00    0.1102869625E-01    0.6467389186E-02    0.2874890687E+00
    0.4700000000E+02    0.5715088769E-01    0.1022677546E+00    0.1125493335E-01    0.6691238788E-02    0.2934262580E+00
    0.4900000000E+02    0.5903016938E-01    0.1041368612E+00    0.1147142702E-01    0.6911311746E-02    0.2991102605E+00
    0.1000000000E+02    0.1491724023E-01    0.3834116349E-01    0.4207250708E-02    0.1746271699E-02    0.1093521568E+00
    0.3000000000E+02    0.3973921775E-01    0.8162804923E-01    0.8935082113E-02    0.4652397949E-02    0.2326563681E+00
    0.5000000000E+02    0.5995806910E-01    0.1050366917E+00    0.1157622572E-01    0.7019974481E-02    0.3018626435E+00
    0.7000000000E+02    0.7707323624E-01    0.1191495070E+00    0.1329104163E-01    0.9024411574E-02    0.3469960339E+00
    0.9000000000E+02    0.9197415376E-01    0.1281195545E+00    0.1450856342E-01    0.1076976357E-01    0.3791761683E+00
    0.1100000000E+03    0.1052246382E+00    0.1339509162E+00    0.1542573165E-01    0.1232199371E-01    0.4035153197E+00
    0.1300000000E+03    0.1172011263E+00    0.1377394468E+00    0.1614628618E-01    0.1372514450E-01    0.4227105194E+00
    0.1500000000E+03    0.1281656470E+00    0.1401368030E+00    0.1673037637E-01    0.1500987388E-01    0.4383278612E+00
    0.1700000000E+03    0.1383069476E+00    0.1415546173E+00    0.1721544151E-01    0.1619826633E-01    0.4513435664E+00
    0.1900000000E+03    0.1477649414E+00    0.1422650664E+00    0.1762609446E-01    0.1730669284E-01    0.4624003301E+00
    0.2100000000E+03    0.1566458984E+00    0.1424546937E+00    0.1797923405E-01    0.1834758812E-01    0.4719400377E+00
    0.2300000000E+03    0.1650322438E+00    0.1422551095E+00    0.1828688005E-01    0.1933059701E-01    0.4802774285E+00
    0.2500000000E+03    0.1729890857E+00    0.1417614118E+00    0.1855783625E-01    0.2026333806E-01    0.4876433440E+00
    0.2700000000E+03    0.1805686836E+00    0.1410437033E+00    0.1879871224E-01    0.2115192650E-01    0.4942113239E+00
    0.2900000000E+03    0.1878135850E+00    0.1401545445E+00    0.1901457611E-01    0.2200134110E-01    0.5001146101E+00
    0.3100000000E+03    0.1947588727E+00    0.1391339189E+00    0.1920938548E-01    0.2281568718E-01    0.5054573850E+00
    0.3300000000E+03    0.2014338067E+00    0.1380126237E+00    0.1938628042E-01    0.2359838875E-01    0.5103224139E+00
    0.3500000000E+03    0.2078630451E+00    0.1368146379E+00    0.1954778739E-01    0.2435233125E-01    0.5147763735E+00
    0.3700000000E+03    0.2140675637E+00    0.1355588060E+00    0.1969596461E-01    0.2507996927E-01    0.5188736494E+00
    0.3900000000E+03    0.2200653610E+00    0.1342600569E+00    0.1983250748E-01    0.2578340900E-01    0.5226590952E+00
    0.4100000000E+03    0.2258720036E+00    0.1329302995E+00    0.1995882652E-01    0.2646447202E-01    0.5261700725E+00
    0.4300000000E+03    0.2315010534E+00    0.1315790894E+00    0.2007610581E-01    0.2712474537E-01    0.5294379825E+00
    0.4500000000E+03    0.2369644065E+00    0.1302141312E+00    0.2018534750E-01    0.2776562110E-01    0.5324894327E+00
    0.4700000000E+03    0.2422725637E+00    0.1288416619E+00    0.2028740608E-01    0.2838832802E-01    0.5353471360E+00
    0.4900000000E+03    0.2474348487E+00    0.1274667457E+00    0.2038301507E-01    0.2899395717E-01    0.5380306129E+00
    0.1000000000E+03    0.9877884520E-01    0.1313451257E+00    0.1499681710E-01    0.1156687692E-01    0.3921212321E+00
    0.3000000000E+03    0.1913217313E+00    0.1396585567E+00    0.1911439993E-01    0.2241266961E-01    0.5028504582E+00
    0.5000000000E+03    0.2499639253E+00    0.1267796895E+00    0.2042860241E-01    0.2929067606E-01    0.5393123825E+00
    0.7000000000E+03    0.2945158375E+00    0.1135767415E+00    0.2111823043E-01    0.3451905447E-01    0.5589106794E+00
    0.9000000000E+03    0.3303701231E+00    0.1020069714E+00    0.2155443301E-01    0.3872883963E-01    0.5715635788E+00
    0.1100000000E+04    0.3600053853E+00    0.9214779095E-01    0.2185954207E-01    0.4221007569E-01    0.5805768681E+00
    0.1300000000E+04    0.3848892901E+00    0.8377930510E-01    0.2208692310E-01    0.4513452619E-01    0.5874068642E+00
    0.1500000000E+04    0.4060165118E+00    0.7665569057E-01    0.2226395797E-01    0.4761862104E-01    0.5928075158E+00
    0.1700000000E+04    0.4241127010E+00    0.7056026556E-01    0.2240628866E-01    0.4974731896E-01    0.5972131062E+00
    0.1900000000E+04    0.4397298046E+00    0.6531334589E-01    0.2252356374E-01    0.5158525680E-01    0.6008936048E+00
    0.2100000000E+04    0.4532983589E+00    0.6076881618E-01    0.2262208901E-01    0.5318286526E-01    0.6040267448E+00
    0.2300000000E+04    0.4651598025E+00    0.5680850055E-01    0.2270617614E-01    0.5458014782E-01    0.6067348965E+00
    0.2500000000E+04    0.4755881682E+00    0.5333678075E-01    0.2277888242E-01    0.5580921769E-01    0.6091054010E+00
    0.2700000000E+04    0.4848054665E+00    0.5027605007E-01    0.2284244150E-01    0.5689609732E-01    0.6112024690E+00
    0.2900000000E+04    0.4929929927E+00    0.4756304145E-01    0.2289852660E-01    0.5786204123E-01    0.6130744892E+00
    0.3100000000E+04    0.5002998381E+00    0.4514591545E-01    0.2294841808E-01    0.5872453195E-01    0.6147587020E+00
    0.3300000000E+04    0.5068494011E+00    0.4298196715E-01    0.2299311383E-01    0.5949804212E-01    0.6162842914E+00
    0.3500000000E+04    0.5127444298E+00    0.4103582329E-01    0.2303340402E-01    0.6019462474E-01    0.6176744902E+00
    0.3700000000E+04    0.5180709641E+00    0.3927802311E-01    0.2306992318E-01    0.6082437476E-01    0.6189480510E+00
    0.3900000000E+04    0.5229014414E+00    0.3768389788E-01    0.2310318723E-01    0.6139579275E-01    0.6201202965E+00
    0.4100000000E+04    0.5272971610E+00    0.3623268295E-01    0.2313362025E-01    0.6191607356E-01    0.6212038840E+00
    0.4300000000E+04    0.5313102519E+00    0.3490681083E-01    0.2316157436E-01    0.6239133680E-01    0.6222093717E+00
    0.4500000000E+04    0.5349852525E+00    0.3369134587E-01    0.2318734451E-01    0.6282681199E-01    0.6231456449E+00
    0.4700000000E+04    0.5383603873E+00    0.3257352980E-01    0.2321117979E-01    0.6322698807E-01    0.6240202414E+00
    0.4900000000E+04    0.5414686025E+00    0.3154241477E-01    0.2323329214E-01    0.6359573487E-01    0.6248396024E+00
    0.1000000000E+04    0.3458586226E+00    0.9687537204E-01    0.2171915718E-01    0.4054806192E-01    0.5764103846E+00
    0.3000000000E+04    0.4967482512E+00    0.4632035303E-01    0.2292417856E-01    0.5830525079E-01    0.6139380872E+00
    0.5000000000E+04    0.5429316792E+00    0.3105636949E-01    0.2324375998E-01    0.6376938708E-01    0.6252303319E+00
    0.7000000000E+04    0.5634032140E+00    0.2417056018E-01    0.2339556308E-01    0.6620623239E-01    0.6311572022E+00
    0.9000000000E+04    0.5745516068E+00    0.2028155666E-01    0.2348409552E-01    0.6754213300E-01    0.6349433127E+00
    0.1100000000E+05    0.5814438338E+00    0.1776784989E-01    0.2354160227E-01    0.6837385297E-01    0.6376261681E+00
    0.1300000000E+05    0.5860818350E+00    0.1599423847E-01    0.2358151614E-01    0.6893765452E-01    0.6396539586E+00
    0.1500000000E+05    0.5893967486E+00    0.1466472165E-01    0.2361047818E-01    0.6934366141E-01    0.6412557663E+00
    0.1700000000E+05    0.5918746779E+00    0.1362344547E-01    0.2363216246E-01    0.6964949090E-01    0.6425623606E+00
    0.1900000000E+05    0.5937921239E+00    0.1278060262E-01    0.2364877110E-01    0.6988799096E-01    0.6436544963E+00
    0.2100000000E+05    0.5953171166E+00    0.1208074144E-01    0.2366170568E-01    0.7007917002E-01    0.6445850735E+00
    0.2300000000E+05    0.5965572713E+00    0.1148770590E-01    0.2367190105E-01    0.7023587323E-01    0.6453903763E+00
    0.2500000000E+05    0.5975845140E+00    0.1097686169E-01    0.2368000466E-01    0.7036670672E-01    0.6460962267E+00
    0.2700000000E+05    0.5984486452E+00    0.1053080672E-01    0.2368647892E-01    0.7047764408E-01    0.6467215666E+00
    0.2900000000E+05    0.5991851864E+00    0.1013687093E-01    0.2369166272E-01    0.7057295682E-01    0.6472806464E+00
    0.3100000000E+05    0.5998201245E+00    0.9785590547E-02    0.2369580991E-01    0.7065577786E-01    0.6477844198E+00
    0.3300000000E+05    0.6003728907E+00    0.9469740163E-02    0.2369911424E-01    0.7072845586E-01    0.6482414631E+00
    0.3500000000E+05    0.6008582942E+00    0.9183697728E-02    0.2370172598E-01    0.7079278542E-01    0.6486585997E+00
    0.3700000000E+05    0.6012878117E+00    0.8923015751E-02    0.2370376342E-01    0.7085016094E-01    0.6490413350E+00
    0.3900000000E+05    0.6016704699E+00    0.8684124296E-02    0.2370532077E-01    0.7090168210E-01    0.6493941667E+00
    0.4100000000E+05    0.6020134635E+00    0.8464120596E-02    0.2370647397E-01    0.7094822766E-01    0.6497208101E+00
    0.4300000000E+05    0.6023225947E+00    0.8260617041E-02    0.2370728482E-01    0.7099050824E-01    0.6500243644E+00
    0.4500000000E+05    0.6026025936E+00    0.8071629364E-02    0.2370780407E-01    0.7102910464E-01    0.6503074387E+00
    0.4700000000E+05    0.6028573532E+00    0.7895493082E-02    0.2370807374E-01    0.7106449624E-01    0.6505722467E+00
    0.4900000000E+05    0.6030901065E+00    0.7730800124E-02    0.2370812886E-01    0.7109708217E-01    0.6508206810E+00
    0.1000000000E+05    0.5783672213E+00    0.1890437617E-01    0.2351565412E-01    0.6800184602E-01    0.6363871768E+00
    0.3000000000E+05    0.5995140143E+00    0.9956394176E-02    0.2369385260E-01    0.7061576679E-01    0.6475388631E+00
    0.5000000000E+05    0.6031990942E+00    0.7652362769E-02    0.2370808535E-01    0.7111242985E-01    0.6509392760E+00
    0.7000000000E+05    0.6046959918E+00    0.6468088841E-02    0.2370108961E-01    0.7133086292E-01    0.6527493754E+00
    0.9000000000E+05    0.6055018252E+00    0.5713708936E-02    0.2368895448E-01    0.7145754934E-01    0.6539188029E+00
    0.1100000000E+06    0.6060033292E+00    0.5178313671E-02    0.2367559725E-01    0.7154213504E-01    0.6547551704E+00
    0.1300000000E+06    0.6063444799E+00    0.4772524351E-02    0.2366226084E-01    0.7160364081E-01    0.6553922894E+00
    0.1500000000E+06    0.6065909718E+00    0.4451021323E-02    0.2364937812E-01    0.7165099010E-01    0.6558989891E+00
    0.1700000000E+06    0.6067770042E+00    0.4188014708E-02    0.2363709126E-01    0.7168895558E-01    0.6563147834E+00
    0.1900000000E+06    0.6069221152E+00    0.3967589708E-02    0.2362542806E-01    0.7172033679E-01    0.6566641988E+00
    0.2100000000E+06    0.6070382684E+00    0.3779315496E-02    0.2361437001E-01    0.7174689275E-01    0.6569633759E+00
    0.2300000000E+06    0.6071331947E+00    0.3616029018E-02    0.2360388063E-01    0.7176978912E-01    0.6572234323E+00
    0.2500000000E+06    0.6072121090E+00    0.3472624607E-02    0.2359391786E-01    0.7178983191E-01    0.6574523108E+00
    0.2700000000E+06    0.6072786550E+00    0.3345350550E-02    0.2358443962E-01    0.7180759812E-01    0.6576558585E+00
    0.2900000000E+06    0.6073354548E+00    0.3231379203E-02    0.2357540612E-01    0.7182351287E-01    0.6578384893E+00
    0.3100000000E+06    0.6073844422E+00    0.3128533123E-02    0.2356678079E-01    0.7183789715E-01    0.6580036062E+00
    0.3300000000E+06    0.6074270746E+00    0.3035104396E-02    0.2355853047E-01    0.7185099842E-01    0.6581538814E+00
    0.3500000000E+06    0.6074644706E+00    0.2949731813E-02    0.2355062528E-01    0.7186301096E-01    0.6582914469E+00
    0.3700000000E+06    0.6074975028E+00    0.2871315206E-02    0.2354303840E-01    0.7187408967E-01    0.6584180273E+00
    0.3900000000E+06    0.6075268618E+00    0.2798954337E-02    0.2353574577E-01    0.7188435986E-01    0.6585350351E+00
    0.4100000000E+06    0.6075531011E+00    0.2731904418E-02    0.2352872577E-01    0.7189392410E-01    0.6586436394E+00
    0.4300000000E+06    0.6075766694E+00    0.2669543178E-02    0.2352195897E-01    0.7190286732E-01    0.6587448182E+00
    0.4500000000E+06    0.6075979340E+00    0.2611346072E-02    0.2351542784E-01    0.7191126051E-01    0.6588393961E+00
    0.4700000000E+06    0.6076171988E+00    0.2556867376E-02    0.2350911657E-01    0.7191916358E-01    0.6589280743E+00
    0.4900000000E+06    0.6076347170E+00    0.2505725557E-02    0.2350301084E-01    0.7192662746E-01    0.6590114537E+00
    0.1000000000E+06    0.6057788434E+00    0.5425732652E-02    0.2368232135E-01    0.7150356043E-01    0.6543680482E+00
    0.3000000000E+06    0.6073608247E+00    0.3178681594E-02    0.2357104459E-01    0.7183087941E-01    0.6579230554E+00
    0.5000000000E+06    0.6076428890E+00    0.2481301437E-02    0.2350003094E-01    0.7193020860E-01    0.6590513210E+00
    0.7000000000E+06    0.6077519693E+00    0.2107762597E-02    0.2344862573E-01    0.7198670972E-01    0.6596654838E+00
    0.9000000000E+06    0.6078061887E+00    0.1865868350E-02    0.2340827331E-01    0.7202574467E-01    0.6600688061E+00
    0.1100000000E+07    0.6078366383E+00    0.1692762151E-02    0.2337501394E-01    0.7205542340E-01    0.6603610797E+00
    0.1300000000E+07    0.6078549010E+00    0.1560936515E-02    0.2334669923E-01    0.7207930932E-01    0.6605862180E+00
    0.1500000000E+07    0.6078662159E+00    0.1456184527E-02    0.2332203268E-01    0.7209926941E-01    0.6607670200E+00
    0.1700000000E+07    0.6078732707E+00    0.1370326537E-02    0.2330017098E-01    0.7211639912E-01    0.6609166777E+00
    0.1900000000E+07    0.6078775724E+00    0.1298274797E-02    0.2328053442E-01    0.7213139427E-01    0.6610434360E+00
    0.2100000000E+07    0.6078800234E+00    0.1236675888E-02    0.2326270703E-01    0.7214472362E-01    0.6611527540E+00
    0.2300000000E+07    0.6078811924E+00    0.1183217386E-02    0.2324638014E-01    0.7215671757E-01    0.6612484131E+00
    0.2500000000E+07    0.6078814527E+00    0.1136245864E-02    0.2323131823E-01    0.7216761754E-01    0.6613331284E+00
    0.2700000000E+07    0.6078810575E+00    0.1094543403E-02    0.2321733748E-01    0.7217760522E-01    0.6614089082E+00
    0.2900000000E+07    0.6078801831E+00    0.1057190309E-02    0.2320429160E-01    0.7218682068E-01    0.6614772750E+00
    0.3100000000E+07    0.6078789553E+00    0.1023477281E-02    0.2319206227E-01    0.7219537413E-01    0.6615394078E+00
    0.3300000000E+07    0.6078774654E+00    0.9928472740E-03    0.2318055240E-01    0.7220335387E-01    0.6615962356E+00
    0.3500000000E+07    0.6078757810E+00    0.9648558735E-03    0.2316968130E-01    0.7221083169E-01    0.6616485027E+00
    0.3700000000E+07    0.6078739525E+00    0.9391435899E-03    0.2315938122E-01    0.7221786672E-01    0.6616968129E+00
    0.3900000000E+07    0.6078720181E+00    0.9154160567E-03    0.2314959467E-01    0.7222450827E-01    0.6617416626E+00
    0.4100000000E+07    0.6078700071E+00    0.8934295962E-03    0.2314027249E-01    0.7223079786E-01    0.6617834641E+00
    0.4300000000E+07    0.6078679421E+00    0.8729805143E-03    0.2313137226E-01    0.7223677080E-01    0.6618225630E+00
    0.4500000000E+07    0.6078658405E+00    0.8538970366E-03    0.2312285715E-01    0.7224245732E-01    0.6618592518E+00
    0.4700000000E+07    0.6078637161E+00    0.8360331474E-03    0.2311469499E-01    0.7224788357E-01    0.6618937800E+00
    0.4900000000E+07    0.6078615795E+00    0.8192638234E-03    0.2310685746E-01    0.7225307226E-01    0.6619263617E+00
    0.1000000000E+07    0.6078234360E+00    0.1772887020E-02    0.2339091829E-01    0.7204147331E-01    0.6602253644E+00
    0.3000000000E+07    0.6078796070E+00    0.1039916636E-02    0.2319808137E-01    0.7219117419E-01    0.6615090576E+00
    0.5000000000E+07    0.6078605094E+00    0.8112553588E-03    0.2310305251E-01    0.7225558382E-01    0.6619419815E+00
    0.7000000000E+07    0.6078397640E+00    0.6887981374E-03    0.2303920678E-01    0.7229708393E-01    0.6621863161E+00
    0.9000000000E+07    0.6078212705E+00    0.6095337359E-03    0.2299100400E-01    0.7232774517E-01    0.6623511790E+00
    0.1100000000E+08    0.6078050559E+00    0.5528340797E-03    0.2295224762E-01    0.7235206758E-01    0.6624733084E+00
    0.1300000000E+08    0.6077907427E+00    0.5096714343E-03    0.2291982605E-01    0.7237222640E-01    0.6625691573E+00
    0.1500000000E+08    0.6077779754E+00    0.4753840748E-03    0.2289195194E-01    0.7238943998E-01    0.6626473932E+00
    0.1700000000E+08    0.6077664710E+00    0.4472886745E-03    0.2286750267E-01    0.7240445975E-01    0.6627130951E+00
    0.1900000000E+08    0.6077560106E+00    0.4237166330E-03    0.2284572653E-01    0.7241778195E-01    0.6627694730E+00
    0.2100000000E+08    0.6077464248E+00    0.4035684209E-03    0.2282609530E-01    0.7242975146E-01    0.6628186741E+00
    0.2300000000E+08    0.6077375810E+00    0.3860860101E-03    0.2280822352E-01    0.7244061773E-01    0.6628621992E+00
    0.2500000000E+08    0.6077293739E+00    0.3707275132E-03    0.2279182123E-01    0.7245056701E-01    0.6629011355E+00
    0.2700000000E+08    0.6077217185E+00    0.3570938551E-03    0.2277666480E-01    0.7245974205E-01    0.6629362934E+00
