  Pressure (Pa) 22mC5-400 (mol/kg) 2mC6-400 (mol/kg) 3mC6-400 (mol/kg) 23mC5-400 (mol/kg) C7-400 (mol/kg)
    0.1000000000E+01    0.1588580865E-02    0.3146294178E-02    0.5211276947E-03    0.4648956870E-03    0.1183955005E-01
    0.3000000000E+01    0.4708535492E-02    0.9052883497E-02    0.1497966310E-02    0.1377956895E-02    0.3403928321E-01
    0.5000000000E+01    0.7755011982E-02    0.1449558328E-01    0.2396538195E-02    0.2269529374E-02    0.5446875686E-01
    0.7000000000E+01    0.1073119285E-01    0.1952696543E-01    0.3226098151E-02    0.3140543727E-02    0.7333698108E-01
    0.9000000000E+01    0.1364007379E-01    0.2419169325E-01    0.3994489068E-02    0.3991875930E-02    0.9082110380E-01
    0.1100000000E+02    0.1648447725E-01    0.2852797688E-01    0.4708401725E-02    0.4824351305E-02    0.1070722707E+00
    0.1300000000E+02    0.1926706483E-01    0.3256871707E-01    0.5373579231E-02    0.5638748142E-02    0.1222202373E+00
    0.1500000000E+02    0.2199034861E-01    0.3634241259E-01    0.5994979396E-02    0.6435801023E-02    0.1363770316E+00
    0.1700000000E+02    0.2465670162E-01    0.3987388644E-01    0.6576904814E-02    0.7216203859E-02    0.1496398896E+00
    0.1900000000E+02    0.2726836732E-01    0.4318487181E-01    0.7123107885E-02    0.7980612685E-02    0.1620936246E+00
    0.2100000000E+02    0.2982746839E-01    0.4629448841E-01    0.7636876260E-02    0.8729648222E-02    0.1738125554E+00
    0.2300000000E+02    0.3233601484E-01    0.4921963258E-01    0.8121102821E-02    0.9463898237E-02    0.1848620857E+00
    0.2500000000E+02    0.3479591137E-01    0.5197529877E-01    0.8578343377E-02    0.1018391972E-01    0.1953000064E+00
    0.2700000000E+02    0.3720896428E-01    0.5457484618E-01    0.9010864514E-02    0.1089024087E-01    0.2051775751E+00
    0.2900000000E+02    0.3957688775E-01    0.5703022132E-01    0.9420683515E-02    0.1158336297E-01    0.2145404180E+00
    0.3100000000E+02    0.4190130971E-01    0.5935214462E-01    0.9809601832E-02    0.1226376206E-01    0.2234292849E+00
    0.3300000000E+02    0.4418377719E-01    0.6155026788E-01    0.1017923330E-01    0.1293189055E-01    0.2318806867E+00
    0.3500000000E+02    0.4642576140E-01    0.6363330771E-01    0.1053102804E-01    0.1358817867E-01    0.2399274346E+00
    0.3700000000E+02    0.4862866227E-01    0.6560915913E-01    0.1086629278E-01    0.1423303580E-01    0.2475990993E+00
    0.3900000000E+02    0.5079381281E-01    0.6748499282E-01    0.1118620822E-01    0.1486685176E-01    0.2549224030E+00
    0.4100000000E+02    0.5292248309E-01    0.6926733855E-01    0.1149184394E-01    0.1548999796E-01    0.2619215565E+00
    0.4300000000E+02    0.5501588391E-01    0.7096215721E-01    0.1178417122E-01    0.1610282850E-01    0.2686185482E+00
    0.4500000000E+02    0.5707517028E-01    0.7257490316E-01    0.1206407414E-01    0.1670568113E-01    0.2750333950E+00
    0.4700000000E+02    0.5910144464E-01    0.7411057838E-01    0.1233235921E-01    0.1729887825E-01    0.2811843596E+00
    0.4900000000E+02    0.6109575980E-01    0.7557377971E-01    0.1258976369E-01    0.1788272775E-01    0.2870881397E+00
    0.1000000000E+02    0.1507016523E-01    0.2639872149E-01    0.4357876105E-02    0.4410421016E-02    0.9909224265E-01
    0.3000000000E+02    0.4074443790E-01    0.5820723784E-01    0.9617650296E-02    0.1192512408E-01    0.2190417239E+00
    0.5000000000E+02    0.6208124882E-01    0.7627953869E-01    0.1271459900E-01    0.1817123959E-01    0.2899521665E+00
    0.7000000000E+02    0.8033546868E-01    0.8745918475E-01    0.1477728108E-01    0.2351573614E-01    0.3373641518E+00
    0.9000000000E+02    0.9630340608E-01    0.9466184398E-01    0.1626135785E-01    0.2819149261E-01    0.3716040929E+00
    0.1100000000E+03    0.1105161581E+00    0.9936707637E-01    0.1738708952E-01    0.3235383318E-01    0.3976703410E+00
    0.1300000000E+03    0.1233425442E+00    0.1024132239E+00    0.1827444153E-01    0.3611062601E-01    0.4182888503E+00
    0.1500000000E+03    0.1350474174E+00    0.1043125868E+00    0.1899457789E-01    0.3953933457E-01    0.4350787658E+00
    0.1700000000E+03    0.1458264250E+00    0.1053959070E+00    0.1959251652E-01    0.4269718270E-01    0.4490656578E+00
    0.1900000000E+03    0.1558276336E+00    0.1058858183E+00    0.2009820184E-01    0.4562747853E-01    0.4609325628E+00
    0.2100000000E+03    0.1651654777E+00    0.1059371842E+00    0.2053237148E-01    0.4836369380E-01    0.4711530980E+00
    0.2300000000E+03    0.1739300418E+00    0.1056606147E+00    0.2090987031E-01    0.5093217835E-01    0.4800667173E+00
    0.2500000000E+03    0.1821934063E+00    0.1051368485E+00    0.2124162307E-01    0.5335401611E-01    0.4879235370E+00
    0.2700000000E+03    0.1900140902E+00    0.1044258970E+00    0.2153586036E-01    0.5564632446E-01    0.4949122200E+00
    0.2900000000E+03    0.1974402277E+00    0.1035730500E+00    0.2179890930E-01    0.5782318320E-01    0.5011779697E+00
    0.3100000000E+03    0.2045118815E+00    0.1026129312E+00    0.2203571955E-01    0.5989631133E-01    0.5068345114E+00
    0.3300000000E+03    0.2112627572E+00    0.1015723014E+00    0.2225022299E-01    0.6187556832E-01    0.5119722907E+00
    0.3500000000E+03    0.2177214919E+00    0.1004720365E+00    0.2244558555E-01    0.6376933109E-01    0.5166642184E+00
    0.3700000000E+03    0.2239126369E+00    0.9932854994E-01    0.2262438732E-01    0.6558478144E-01    0.5209697808E+00
    0.3900000000E+03    0.2298574161E+00    0.9815483005E-01    0.2278875375E-01    0.6732812788E-01    0.5249380373E+00
    0.4100000000E+03    0.2355743183E+00    0.9696120937E-01    0.2294045281E-01    0.6900477888E-01    0.5286098422E+00
    0.4300000000E+03    0.2410795645E+00    0.9575594147E-01    0.2308096812E-01    0.7061947952E-01    0.5320195166E+00
    0.4500000000E+03    0.2463874800E+00    0.9454563880E-01    0.2321155465E-01    0.7217642037E-01    0.5351961243E+00
    0.4700000000E+03    0.2515107936E+00    0.9333560869E-01    0.2333328176E-01    0.7367932502E-01    0.5381644571E+00
    0.4900000000E+03    0.2564608800E+00    0.9213011342E-01    0.2344706672E-01    0.7513152098E-01    0.5409458041E+00
    0.1000000000E+03    0.1036031595E+00    0.9726413239E-01    0.1685998108E-01    0.3032922971E-01    0.3854536905E+00
    0.3000000000E+03    0.2010181263E+00    0.1031045692E+00    0.2192032804E-01    0.5887205872E-01    0.5040762700E+00
    0.5000000000E+03    0.2588741968E+00    0.9153016353E-01    0.2350123259E-01    0.7583954921E-01    0.5422722052E+00
    0.7000000000E+03    0.3000684157E+00    0.8030163724E-01    0.2431284669E-01    0.8792952195E-01    0.5623651158E+00
    0.9000000000E+03    0.3313378496E+00    0.7092223263E-01    0.2481732290E-01    0.9711292802E-01    0.5751240146E+00
    0.1100000000E+04    0.3558858689E+00    0.6327015228E-01    0.2516518155E-01    0.1043271041E+00    0.5840944119E+00
    0.1300000000E+04    0.3755958161E+00    0.5702066766E-01    0.2542131178E-01    0.1101232777E+00    0.5908196308E+00
    0.1500000000E+04    0.3916973020E+00    0.5187562659E-01    0.2561865502E-01    0.1148614424E+00    0.5960901553E+00
    0.1700000000E+04    0.4050408223E+00    0.4759700362E-01    0.2577585143E-01    0.1187906701E+00    0.6003570146E+00
    0.1900000000E+04    0.4162362616E+00    0.4400165128E-01    0.2590430179E-01    0.1220896196E+00    0.6038982301E+00
    0.2100000000E+04    0.4257322419E+00    0.4094977907E-01    0.2601140037E-01    0.1248897458E+00    0.6068954562E+00
    0.2300000000E+04    0.4338653528E+00    0.3833442059E-01    0.2610216816E-01    0.1272897026E+00    0.6094729129E+00
    0.2500000000E+04    0.4408923089E+00    0.3607316081E-01    0.2618014291E-01    0.1293647522E+00    0.6117187153E+00
    0.2700000000E+04    0.4470117092E+00    0.3410194568E-01    0.2624789419E-01    0.1311731336E+00    0.6136972791E+00
    0.2900000000E+04    0.4523791489E+00    0.3237052311E-01    0.2630733653E-01    0.1327604868E+00    0.6154568983E+00
    0.3100000000E+04    0.4571179333E+00    0.3083909446E-01    0.2635992756E-01    0.1341629891E+00    0.6170345651E+00
    0.3300000000E+04    0.4613268043E+00    0.2947584704E-01    0.2640679798E-01    0.1354096183E+00    0.6184591427E+00
    0.3500000000E+04    0.4650855963E+00    0.2825512411E-01    0.2644883918E-01    0.1365238092E+00    0.6197535160E+00
    0.3700000000E+04    0.4684594317E+00    0.2715605725E-01    0.2648676399E-01    0.1375246827E+00    0.6209360878E+00
    0.3900000000E+04    0.4715018703E+00    0.2616153550E-01    0.2652114968E-01    0.1384279687E+00    0.6220218427E+00
    0.4100000000E+04    0.4742572999E+00    0.2525742169E-01    0.2655246903E-01    0.1392467064E+00    0.6230231180E+00
    0.4300000000E+04    0.4767627701E+00    0.2443195148E-01    0.2658111313E-01    0.1399917823E+00    0.6239501740E+00
    0.4500000000E+04    0.4790494115E+00    0.2367526870E-01    0.2660740852E-01    0.1406723456E+00    0.6248116204E+00
    0.4700000000E+04    0.4811435443E+00    0.2297906303E-01    0.2663163003E-01    0.1412961341E+00    0.6256147414E+00
    0.4900000000E+04    0.4830675514E+00    0.2233628537E-01    0.2665401077E-01    0.1418697294E+00    0.6263657455E+00
    0.1000000000E+04    0.3443142133E+00    0.6690020948E-01    0.2500568610E-01    0.1009258345E+00    0.5799607527E+00
    0.3000000000E+04    0.4548204506E+00    0.3158196094E-01    0.2633441131E-01    0.1334828863E+00    0.6162665104E+00
    0.5000000000E+04    0.4839718497E+00    0.2203301763E-01    0.2666457422E-01    0.1421394962E+00    0.6267233988E+00
    0.7000000000E+04    0.4965703420E+00    0.1769431665E-01    0.2681509590E-01    0.1459131718E+00    0.6321096479E+00
    0.9000000000E+04    0.5034392030E+00    0.1517504949E-01    0.2689984665E-01    0.1479894749E+00    0.6355107581E+00
    0.1100000000E+05    0.5077186915E+00    0.1349971068E-01    0.2695306942E-01    0.1492952907E+00    0.6379012171E+00
    0.1300000000E+05    0.5106245735E+00    0.1228771584E-01    0.2698875802E-01    0.1501905107E+00    0.6396969017E+00
    0.1500000000E+05    0.5127196120E+00    0.1135984988E-01    0.2701372147E-01    0.1508422204E+00    0.6411084707E+00
    0.1700000000E+05    0.5142980665E+00    0.1062026135E-01    0.2703167449E-01    0.1513380525E+00    0.6422553247E+00
    0.1900000000E+05    0.5155280509E+00    0.1001276366E-01    0.2704481544E-01    0.1517282275E+00    0.6432107690E+00
    0.2100000000E+05    0.5165122986E+00    0.9502069383E-02    0.2705452705E-01    0.1520435317E+00    0.6440225879E+00
    0.2300000000E+05    0.5173170003E+00    0.9064794973E-02    0.2706172135E-01    0.1523038636E+00    0.6447234185E+00
    0.2500000000E+05    0.5179866624E+00    0.8684766609E-02    0.2706702319E-01    0.1525226459E+00    0.6453364018E+00
    0.2700000000E+05    0.5185522811E+00    0.8350399165E-02    0.2707087420E-01    0.1527092572E+00    0.6458784578E+00
    0.2900000000E+05    0.5190360892E+00    0.8053149848E-02    0.2707359475E-01    0.1528704464E+00    0.6463622787E+00
    0.3100000000E+05    0.5194544379E+00    0.7786563186E-02    0.2707542237E-01    0.1530111931E+00    0.6467975951E+00
    0.3300000000E+05    0.5198196146E+00    0.7545658023E-02    0.2707653654E-01    0.1531352518E+00    0.6471920075E+00
    0.3500000000E+05    0.5201410277E+00    0.7326520863E-02    0.2707707511E-01    0.1532455069E+00    0.6475515501E+00
    0.3700000000E+05    0.5204260001E+00    0.7126028328E-02    0.2707714544E-01    0.1533442107E+00    0.6478810818E+00
    0.3900000000E+05    0.5206803153E+00    0.6941652962E-02    0.2707683223E-01    0.1534331479E+00    0.6481845647E+00
    0.4100000000E+05    0.5209086003E+00    0.6771324363E-02    0.2707620300E-01    0.1535137514E+00    0.6484652664E+00
    0.4300000000E+05    0.5211146003E+00    0.6613327936E-02    0.2707531217E-01    0.1535871845E+00    0.6487259085E+00
    0.4500000000E+05    0.5213013783E+00    0.6466229788E-02    0.2707420391E-01    0.1536544019E+00    0.6489687784E+00
    0.4700000000E+05    0.5214714633E+00    0.6328820152E-02    0.2707291444E-01    0.1537161946E+00    0.6491958146E+00
    0.4900000000E+05    0.5216269617E+00    0.6200070161E-02    0.2707147361E-01    0.1537732235E+00    0.6494086723E+00
    0.1000000000E+05    0.5058037028E+00    0.1426273857E-01    0.2692927616E-01    0.1487094350E+00    0.6367993165E+00
    0.3000000000E+05    0.5192525990E+00    0.7916364021E-02    0.2707460782E-01    0.1529431165E+00    0.6465854826E+00
    0.5000000000E+05    0.5216998048E+00    0.6138662089E-02    0.2707070434E-01    0.1538001290E+00    0.6495102366E+00
    0.7000000000E+05    0.5227008585E+00    0.5205063510E-02    0.2705160578E-01    0.1541863286E+00    0.6510567680E+00
    0.9000000000E+05    0.5232375772E+00    0.4604888465E-02    0.2703046446E-01    0.1544132267E+00    0.6520526227E+00
    0.1100000000E+06    0.5235685421E+00    0.4176857329E-02    0.2700996756E-01    0.1545659323E+00    0.6527635448E+00
    0.1300000000E+06    0.5237909525E+00    0.3851491112E-02    0.2699073355E-01    0.1546775673E+00    0.6533045307E+00
    0.1500000000E+06    0.5239493768E+00    0.3593213866E-02    0.2697283674E-01    0.1547638367E+00    0.6537345203E+00
    0.1700000000E+06    0.5240670657E+00    0.3381650416E-02    0.2695619503E-01    0.1548332059E+00    0.6540872623E+00
    0.1900000000E+06    0.5241573070E+00    0.3204171069E-02    0.2694068700E-01    0.1548906699E+00    0.6543836626E+00
    0.2100000000E+06    0.5242282301E+00    0.3052471097E-02    0.2692618996E-01    0.1549393818E+00    0.6546374583E+00
    0.2300000000E+06    0.5242850784E+00    0.2920833431E-02    0.2691259189E-01    0.1549814390E+00    0.6548580994E+00
    0.2500000000E+06    0.5243313803E+00    0.2805175280E-02    0.2689979433E-01    0.1550182963E+00    0.6550523305E+00
    0.2700000000E+06    0.5243695939E+00    0.2702492006E-02    0.2688771195E-01    0.1550509978E+00    0.6552251128E+00
    0.2900000000E+06    0.5244014818E+00    0.2610516255E-02    0.2687627110E-01    0.1550803146E+00    0.6553801884E+00
    0.3100000000E+06    0.5244283391E+00    0.2527500286E-02    0.2686540824E-01    0.1551068300E+00    0.6555204413E+00
    0.3300000000E+06    0.5244511379E+00    0.2452072080E-02    0.2685506837E-01    0.1551309942E+00    0.6556481347E+00
    0.3500000000E+06    0.5244706209E+00    0.2383137372E-02    0.2684520369E-01    0.1551531615E+00    0.6557650737E+00
    0.3700000000E+06    0.5244873651E+00    0.2319811215E-02    0.2683577251E-01    0.1551736144E+00    0.6558727181E+00
    0.3900000000E+06    0.5245018246E+00    0.2261369111E-02    0.2682673825E-01    0.1551925820E+00    0.6559722628E+00
    0.4100000000E+06    0.5245143619E+00    0.2207211403E-02    0.2681806874E-01    0.1552102518E+00    0.6560646973E+00
    0.4300000000E+06    0.5245252691E+00    0.2156836882E-02    0.2680973549E-01    0.1552267792E+00    0.6561508483E+00
    0.4500000000E+06    0.5245347843E+00    0.2109822915E-02    0.2680171319E-01    0.1552422944E+00    0.6562314135E+00
    0.4700000000E+06    0.5245431032E+00    0.2065810266E-02    0.2679397929E-01    0.1552569071E+00    0.6563069858E+00
    0.4900000000E+06    0.5245503880E+00    0.2024491356E-02    0.2678651356E-01    0.1552707108E+00    0.6563780731E+00
    0.1000000000E+06    0.5234208423E+00    0.4374852397E-02    0.2702007582E-01    0.1544961728E+00    0.6524346057E+00
    0.3000000000E+06    0.5244154723E+00    0.2567981531E-02    0.2687077104E-01    0.1550938917E+00    0.6554520139E+00
    0.5000000000E+06    0.5245536859E+00    0.2004757760E-02    0.2678287552E-01    0.1552773348E+00    0.6564120741E+00
    0.7000000000E+06    0.5245888882E+00    0.1702913883E-02    0.2672061856E-01    0.1553819198E+00    0.6569369548E+00
    0.9000000000E+06    0.5245952484E+00    0.1507422646E-02    0.2667228969E-01    0.1554542427E+00    0.6572830781E+00
    0.1100000000E+07    0.5245909137E+00    0.1367520679E-02    0.2663273527E-01    0.1555092591E+00    0.6575348577E+00
    0.1300000000E+07    0.5245821065E+00    0.1260982460E-02    0.2659922741E-01    0.1555535516E+00    0.6577294803E+00
    0.1500000000E+07    0.5245713845E+00    0.1176326641E-02    0.2657014485E-01    0.1555905728E+00    0.6578862779E+00
    0.1700000000E+07    0.5245599201E+00    0.1106942133E-02    0.2654444427E-01    0.1556223498E+00    0.6580164518E+00
    0.1900000000E+07    0.5245482879E+00    0.1048716626E-02    0.2652141402E-01    0.1556501707E+00    0.6581270126E+00
    0.2100000000E+07    0.5245367786E+00    0.9989395688E-03    0.2650054668E-01    0.1556749038E+00    0.6582226085E+00
    0.2300000000E+07    0.5245255399E+00    0.9557418285E-03    0.2648146756E-01    0.1556971609E+00    0.6583064636E+00
    0.2500000000E+07    0.5245146437E+00    0.9177869450E-03    0.2646389194E-01    0.1557173896E+00    0.6583808958E+00
    0.2700000000E+07    0.5245041202E+00    0.8840904901E-03    0.2644759838E-01    0.1557359264E+00    0.6584476219E+00
    0.2900000000E+07    0.5244939769E+00    0.8539090938E-03    0.2643241121E-01    0.1557530310E+00    0.6585079451E+00
    0.3100000000E+07    0.5244842085E+00    0.8266694521E-03    0.2641818867E-01    0.1557689077E+00    0.6585628756E+00
    0.3300000000E+07    0.5244748027E+00    0.8019213327E-03    0.2640481473E-01    0.1557837202E+00    0.6586132104E+00
    0.3500000000E+07    0.5244657436E+00    0.7793055422E-03    0.2639219315E-01    0.1557976016E+00    0.6586595889E+00
    0.3700000000E+07    0.5244570139E+00    0.7585315323E-03    0.2638024328E-01    0.1558106615E+00    0.6587025302E+00
    0.3900000000E+07    0.5244485959E+00    0.7393613923E-03    0.2636889679E-01    0.1558229914E+00    0.6587424617E+00
    0.4100000000E+07    0.5244404720E+00    0.7215981826E-03    0.2635809533E-01    0.1558346683E+00    0.6587797385E+00
    0.4300000000E+07    0.5244326254E+00    0.7050772809E-03    0.2634778865E-01    0.1558457576E+00    0.6588146589E+00
    0.4500000000E+07    0.5244250403E+00    0.6896598638E-03    0.2633793315E-01    0.1558563155E+00    0.6588474754E+00
    0.4700000000E+07    0.5244177014E+00    0.6752279275E-03    0.2632849078E-01    0.1558663904E+00    0.6588784036E+00
    0.4900000000E+07    0.5244105948E+00    0.6616804348E-03    0.2631942812E-01    0.1558760244E+00    0.6589076287E+00
    0.1000000000E+07    0.5245938966E+00    0.1432276413E-02    0.2665162157E-01    0.1554833967E+00    0.6574178322E+00
    0.3000000000E+07    0.5244890465E+00    0.8399521450E-03    0.2642518714E-01    0.1557611118E+00    0.6585360304E+00
    0.5000000000E+07    0.5244071245E+00    0.6552106643E-03    0.2631502982E-01    0.1558806878E+00    0.6589216536E+00
    0.7000000000E+07    0.5243471925E+00    0.5562861801E-03    0.2624135688E-01    0.1559577512E+00    0.6591423434E+00
    0.9000000000E+07    0.5243002428E+00    0.4922588208E-03    0.2618587714E-01    0.1560146952E+00    0.6592928091E+00
    0.1100000000E+08    0.5242617014E+00    0.4464608855E-03    0.2614134573E-01    0.1560598708E+00    0.6594052079E+00
    0.1300000000E+08    0.5242290255E+00    0.4115984767E-03    0.2610413909E-01    0.1560973156E+00    0.6594940385E+00
    0.1500000000E+08    0.5242006681E+00    0.3839054177E-03    0.2607218141E-01    0.1561292911E+00    0.6595669826E+00
    0.1700000000E+08    0.5241756214E+00    0.3612139715E-03    0.2604417156E-01    0.1561571925E+00    0.6596285638E+00
    0.1900000000E+08    0.5241531927E+00    0.3421762042E-03    0.2601923971E-01    0.1561819412E+00    0.6596816538E+00
    0.2100000000E+08    0.5241328861E+00    0.3259039198E-03    0.2599677541E-01    0.1562041776E+00    0.6597281811E+00
    0.2300000000E+08    0.5241143341E+00    0.3117848020E-03    0.2597633367E-01    0.1562243648E+00    0.6597694988E+00
    0.2500000000E+08    0.5240972571E+00    0.2993811382E-03    0.2595758007E-01    0.1562428488E+00    0.6598065901E+00
    0.2700000000E+08    0.5240814376E+00    0.2883705799E-03    0.2594025688E-01    0.1562598947E+00    0.6598401902E+00
