  Pressure (Pa) 22mC5-400 (mol/kg) 2mC6-400 (mol/kg) 3mC6-400 (mol/kg) 23mC5-400 (mol/kg) C7-400 (mol/kg)
    0.1000000000E+01    0.1588230645E-02    0.3950034127E-02    0.4715116924E-02    0.9295862614E-04    0.3400644398E-02
    0.3000000000E+01    0.4705511725E-02    0.1145864612E-01    0.1369007235E-01    0.2754142804E-03    0.9875046996E-02
    0.5000000000E+01    0.7746950484E-02    0.1848592682E-01    0.2210719169E-01    0.4534337056E-03    0.1594887812E-01
    0.7000000000E+01    0.1071602102E-01    0.2507534899E-01    0.3001896848E-01    0.6272200851E-03    0.2165977806E-01
    0.9000000000E+01    0.1361598130E-01    0.3126519669E-01    0.3747144946E-01    0.7969639641E-03    0.2704076786E-01
    0.1100000000E+02    0.1644988987E-01    0.3708932938E-01    0.4450519760E-01    0.9628442248E-03    0.3212093903E-01
    0.1300000000E+02    0.1922062101E-01    0.4257781361E-01    0.5115608735E-01    0.1125028973E-02    0.3692602314E-01
    0.1500000000E+02    0.2193087850E-01    0.4775744851E-01    0.5745596519E-01    0.1283676343E-02    0.4147886495E-01
    0.1700000000E+02    0.2458320821E-01    0.5265220526E-01    0.6343320151E-01    0.1438935236E-02    0.4579981774E-01
    0.1900000000E+02    0.2718000956E-01    0.5728359684E-01    0.6911315403E-01    0.1590945988E-02    0.4990707529E-01
    0.2100000000E+02    0.2972354601E-01    0.6167099059E-01    0.7451855882E-01    0.1739840983E-02    0.5381695205E-01
    0.2300000000E+02    0.3221595464E-01    0.6583187367E-01    0.7966986205E-01    0.1885745213E-02    0.5754412076E-01
    0.2500000000E+02    0.3465925493E-01    0.6978207969E-01    0.8458550232E-01    0.2028776796E-02    0.6110181482E-01
    0.2700000000E+02    0.3705535685E-01    0.7353598287E-01    0.8928215233E-01    0.2169047442E-02    0.6450200141E-01
    0.2900000000E+02    0.3940606824E-01    0.7710666518E-01    0.9377492628E-01    0.2306662889E-02    0.6775553015E-01
    0.3100000000E+02    0.4171310163E-01    0.8050606075E-01    0.9807755872E-01    0.2441723302E-02    0.7087226125E-01
    0.3300000000E+02    0.4397808049E-01    0.8374508106E-01    0.1022025592E+00    0.2574323637E-02    0.7386117638E-01
    0.3500000000E+02    0.4620254503E-01    0.8683372391E-01    0.1061613468E+00    0.2704553980E-02    0.7673047497E-01
    0.3700000000E+02    0.4838795756E-01    0.8978116858E-01    0.1099643667E+00    0.2832499861E-02    0.7948765802E-01
    0.3900000000E+02    0.5053570734E-01    0.9259585919E-01    0.1136211927E+00    0.2958242538E-02    0.8213960137E-01
    0.4100000000E+02    0.5264711521E-01    0.9528557791E-01    0.1171406166E+00    0.3081859268E-02    0.8469261989E-01
    0.4300000000E+02    0.5472343777E-01    0.9785750951E-01    0.1205307273E+00    0.3203423551E-02    0.8715252396E-01
    0.4500000000E+02    0.5676587130E-01    0.1003182984E+00    0.1237989795E+00    0.3323005357E-02    0.8952466915E-01
    0.4700000000E+02    0.5877555536E-01    0.1026740992E+00    0.1269522555E+00    0.3440671342E-02    0.9181400020E-01
    0.4900000000E+02    0.6075357620E-01    0.1049306217E+00    0.1299969195E+00    0.3556485042E-02    0.9402508993E-01
    0.1000000000E+02    0.1504100825E-01    0.3422101598E-01    0.4103832143E-01    0.8803762974E-03    0.2961677477E-01
    0.3000000000E+02    0.4056494120E-01    0.7882706922E-01    0.9594920129E-01    0.2374506422E-02    0.6933041465E-01
    0.5000000000E+02    0.6173103856E-01    0.1060233261E+00    0.1314803810E+00    0.3613716332E-02    0.9510263021E-01
    0.7000000000E+02    0.7984602687E-01    0.1237727349E+00    0.1566702288E+00    0.4674436917E-02    0.1134246234E+00
    0.9000000000E+02    0.9572365561E-01    0.1358328129E+00    0.1756455326E+00    0.5604266749E-02    0.1272631326E+00
    0.1100000000E+03    0.1098991190E+00    0.1442200431E+00    0.1905692829E+00    0.6434512091E-02    0.1381746184E+00
    0.1300000000E+03    0.1227401302E+00    0.1501155805E+00    0.2026899322E+00    0.7186683109E-02    0.1470582905E+00
    0.1500000000E+03    0.1345085362E+00    0.1542567450E+00    0.2127814352E+00    0.7876097562E-02    0.1544721065E+00
    0.1700000000E+03    0.1453964488E+00    0.1571266641E+00    0.2213507940E+00    0.8513994075E-02    0.1607819010E+00
    0.1900000000E+03    0.1555484294E+00    0.1590542494E+00    0.2287450390E+00    0.9108829744E-02    0.1662382994E+00
    0.2100000000E+03    0.1650756484E+00    0.1602704700E+00    0.2352103561E+00    0.9667108382E-02    0.1710192519E+00
    0.2300000000E+03    0.1740652281E+00    0.1609417279E+00    0.2409266610E+00    0.1019392700E-01    0.1752549177E+00
    0.2500000000E+03    0.1825865855E+00    0.1611905187E+00    0.2460287781E+00    0.1069334682E-01    0.1790429175E+00
    0.2700000000E+03    0.1906958474E+00    0.1611086866E+00    0.2506199323E+00    0.1116865159E-01    0.1824580540E+00
    0.2900000000E+03    0.1984389928E+00    0.1607661907E+00    0.2547806347E+00    0.1162253139E-01    0.1855587185E+00
    0.3100000000E+03    0.2058541333E+00    0.1602170554E+00    0.2585747060E+00    0.1205721599E-01    0.1883912344E+00
    0.3300000000E+03    0.2129731967E+00    0.1595035026E+00    0.2620534625E+00    0.1247457342E-01    0.1909928793E+00
    0.3500000000E+03    0.2198231904E+00    0.1586588790E+00    0.2652586918E+00    0.1287618381E-01    0.1933940324E+00
    0.3700000000E+03    0.2264271622E+00    0.1577097672E+00    0.2682248083E+00    0.1326339565E-01    0.1956197325E+00
    0.3900000000E+03    0.2328049413E+00    0.1566775316E+00    0.2709804430E+00    0.1363736910E-01    0.1976908264E+00
    0.4100000000E+03    0.2389737161E+00    0.1555794675E+00    0.2735496347E+00    0.1399910983E-01    0.1996248305E+00
    0.4300000000E+03    0.2449484890E+00    0.1544296654E+00    0.2759527345E+00    0.1434949561E-01    0.2014365855E+00
    0.4500000000E+03    0.2507424393E+00    0.1532396699E+00    0.2782071029E+00    0.1468929754E-01    0.2031387604E+00
    0.4700000000E+03    0.2563672146E+00    0.1520189857E+00    0.2803276519E+00    0.1501919709E-01    0.2047422453E+00
    0.4900000000E+03    0.2618331659E+00    0.1507754720E+00    0.2823272719E+00    0.1533979989E-01    0.2062564609E+00
    0.1000000000E+03    0.1029981368E+00    0.1403981347E+00    0.1835211886E+00    0.6030315334E-02    0.1330180304E+00
    0.3000000000E+03    0.2021854398E+00    0.1605145766E+00    0.2567200386E+00    0.1184214883E-01    0.1870059818E+00
    0.5000000000E+03    0.2645095111E+00    0.1501472372E+00    0.2832852940E+00    0.1549678636E-01    0.2069826965E+00
    0.7000000000E+03    0.3115081533E+00    0.1374847268E+00    0.2981804399E+00    0.1825433600E-01    0.2183465591E+00
    0.9000000000E+03    0.3491642882E+00    0.1258398558E+00    0.3080659400E+00    0.2046484808E-01    0.2259786042E+00
    0.1100000000E+04    0.3802100013E+00    0.1156772099E+00    0.3152524960E+00    0.2228817673E-01    0.2315841288E+00
    0.1300000000E+04    0.4062430175E+00    0.1069159578E+00    0.3207854884E+00    0.2381781470E-01    0.2359393568E+00
    0.1500000000E+04    0.4283329826E+00    0.9936769023E-01    0.3252172834E+00    0.2511636446E-01    0.2394566963E+00
    0.1700000000E+04    0.4472524248E+00    0.9284164682E-01    0.3288714120E+00    0.2622904881E-01    0.2423789192E+00
    0.1900000000E+04    0.4635844495E+00    0.8717047966E-01    0.3319518662E+00    0.2719000968E-01    0.2448598091E+00
    0.2100000000E+04    0.4777813318E+00    0.8221403683E-01    0.3345946055E+00    0.2802573465E-01    0.2470023047E+00
    0.2300000000E+04    0.4902002926E+00    0.7785691889E-01    0.3368942610E+00    0.2875714905E-01    0.2488783432E+00
    0.2500000000E+04    0.5011272078E+00    0.7400461319E-01    0.3389190338E+00    0.2940100261E-01    0.2505399670E+00
    0.2700000000E+04    0.5107932245E+00    0.7057971496E-01    0.3407195043E+00    0.2997084126E-01    0.2520259108E+00
    0.2900000000E+04    0.5193868516E+00    0.6751866411E-01    0.3423340951E+00    0.3047771445E-01    0.2533656987E+00
    0.3100000000E+04    0.5270629864E+00    0.6476906013E-01    0.3437925930E+00    0.3093070329E-01    0.2545822928E+00
    0.3300000000E+04    0.5339497773E+00    0.6228749912E-01    0.3451184985E+00    0.3133732213E-01    0.2556938652E+00
    0.3500000000E+04    0.5401539111E+00    0.6003784718E-01    0.3463306367E+00    0.3170382806E-01    0.2567150154E+00
    0.3700000000E+04    0.5457647311E+00    0.5798986656E-01    0.3474442906E+00    0.3203546196E-01    0.2576576297E+00
    0.3900000000E+04    0.5508574729E+00    0.5611812199E-01    0.3484720153E+00    0.3233663796E-01    0.2585314991E+00
    0.4100000000E+04    0.5554958255E+00    0.5440110831E-01    0.3494242341E+00    0.3261109344E-01    0.2593447739E+00
    0.4300000000E+04    0.5597339734E+00    0.5282055224E-01    0.3503096830E+00    0.3286200861E-01    0.2601043022E+00
    0.4500000000E+04    0.5636182350E+00    0.5136085133E-01    0.3511357464E+00    0.3309210247E-01    0.2608158870E+00
    0.4700000000E+04    0.5671883841E+00    0.5000862114E-01    0.3519087148E+00    0.3330371029E-01    0.2614844835E+00
    0.4900000000E+04    0.5704787229E+00    0.4875232811E-01    0.3526339848E+00    0.3349884642E-01    0.2621143526E+00
    0.1000000000E+04    0.3653970316E+00    0.1205734605E+00    0.3119146926E+00    0.2141809843E-01    0.2289739699E+00
    0.3000000000E+04    0.5233310378E+00    0.6610783271E-01    0.3430812612E+00    0.3071044206E-01    0.2539881634E+00
    0.5000000000E+04    0.5720284055E+00    0.4815698514E-01    0.3529802143E+00    0.3359079216E-01    0.2624159364E+00
    0.7000000000E+04    0.5937801834E+00    0.3945654768E-01    0.3582570646E+00    0.3488504613E-01    0.2670949518E+00
    0.9000000000E+04    0.6056922710E+00    0.3424851024E-01    0.3616439164E+00    0.3559842569E-01    0.2701998167E+00
    0.1100000000E+05    0.6130874242E+00    0.3072183357E-01    0.3640438980E+00    0.3604433352E-01    0.2724645649E+00
    0.1300000000E+05    0.6180799378E+00    0.2813860352E-01    0.3658534739E+00    0.3634750883E-01    0.2742170123E+00
    0.1500000000E+05    0.6216574293E+00    0.2614241334E-01    0.3672774267E+00    0.3656634022E-01    0.2756290485E+00
    0.1700000000E+05    0.6243372835E+00    0.2453942146E-01    0.3684334962E+00    0.3673148160E-01    0.2768008524E+00
    0.1900000000E+05    0.6264146444E+00    0.2321461939E-01    0.3693947552E+00    0.3686045830E-01    0.2777953792E+00
    0.2100000000E+05    0.6280693078E+00    0.2209510232E-01    0.3702092395E+00    0.3696397067E-01    0.2786544970E+00
    0.2300000000E+05    0.6294166651E+00    0.2113219508E-01    0.3709099758E+00    0.3704890203E-01    0.2794073080E+00
    0.2500000000E+05    0.6305339792E+00    0.2029201802E-01    0.3715205061E+00    0.3711987214E-01    0.2800747718E+00
    0.2700000000E+05    0.6314748308E+00    0.1955017211E-01    0.3720581160E+00    0.3718009245E-01    0.2806724298E+00
    0.2900000000E+05    0.6322774915E+00    0.1888858018E-01    0.3725358168E+00    0.3723186242E-01    0.2812120901E+00
    0.3100000000E+05    0.6329699952E+00    0.1829352419E-01    0.3729636104E+00    0.3727687052E-01    0.2817029118E+00
    0.3300000000E+05    0.6335733275E+00    0.1775437862E-01    0.3733493265E+00    0.3731638388E-01    0.2821521270E+00
    0.3500000000E+05    0.6341034985E+00    0.1726276639E-01    0.3736991914E+00    0.3735137160E-01    0.2825655348E+00
    0.3700000000E+05    0.6345729269E+00    0.1681198037E-01    0.3740182256E+00    0.3738258730E-01    0.2829478491E+00
    0.3900000000E+05    0.6349913889E+00    0.1639657710E-01    0.3743105269E+00    0.3741062577E-01    0.2833029475E+00
    0.4100000000E+05    0.6353666823E+00    0.1601208528E-01    0.3745794771E+00    0.3743596261E-01    0.2836340542E+00
    0.4300000000E+05    0.6357051006E+00    0.1565479253E-01    0.3748278940E+00    0.3745898267E-01    0.2839438758E+00
    0.4500000000E+05    0.6360117771E+00    0.1532158680E-01    0.3750581467E+00    0.3748000069E-01    0.2842347041E+00
    0.4700000000E+05    0.6362909401E+00    0.1500983658E-01    0.3752722431E+00    0.3749927656E-01    0.2845084949E+00
    0.4900000000E+05    0.6365461025E+00    0.1471729908E-01    0.3754718971E+00    0.3751702675E-01    0.2847669292E+00
    0.1000000000E+05    0.6097830324E+00    0.3233434448E-01    0.3629359938E+00    0.3584470484E-01    0.2714114599E+00
    0.3000000000E+05    0.6326360646E+00    0.1858346029E-01    0.3727554194E+00    0.3725512433E-01    0.2814631152E+00
    0.5000000000E+05    0.6366656220E+00    0.1457762268E-01    0.3755667766E+00    0.3752538770E-01    0.2848908499E+00
    0.7000000000E+05    0.6383100818E+00    0.1244196537E-01    0.3769746626E+00    0.3764442476E-01    0.2868313555E+00
    0.9000000000E+05    0.6391983084E+00    0.1105658875E-01    0.3778336854E+00    0.3771348146E-01    0.2881426242E+00
    0.1100000000E+06    0.6397527163E+00    0.1006234993E-01    0.3784155583E+00    0.3775958570E-01    0.2891148287E+00
    0.1300000000E+06    0.6401309227E+00    0.9303000052E-02    0.3788362177E+00    0.3779310464E-01    0.2898782407E+00
    0.1500000000E+06    0.6404049609E+00    0.8697958931E-02    0.3791541723E+00    0.3781890443E-01    0.2905015968E+00
    0.1700000000E+06    0.6406123765E+00    0.8200819291E-02    0.3794023913E+00    0.3783958820E-01    0.2910252202E+00
    0.1900000000E+06    0.6407746421E+00    0.7782685570E-02    0.3796009699E+00    0.3785668295E-01    0.2914746170E+00
    0.2100000000E+06    0.6409049183E+00    0.7424485903E-02    0.3797629004E+00    0.3787114803E-01    0.2918668588E+00
    0.2300000000E+06    0.6410117163E+00    0.7113048932E-02    0.3798969780E+00    0.3788361913E-01    0.2922138856E+00
    0.2500000000E+06    0.6411007824E+00    0.6838942307E-02    0.3800093804E+00    0.3789453571E-01    0.2925243482E+00
    0.2700000000E+06    0.6411761349E+00    0.6595207528E-02    0.3801045805E+00    0.3790421233E-01    0.2928046982E+00
    0.2900000000E+06    0.6412406673E+00    0.6376582160E-02    0.3801859000E+00    0.3791288069E-01    0.2930598649E+00
    0.3100000000E+06    0.6412965156E+00    0.6179001840E-02    0.3802558591E+00    0.3792071573E-01    0.2932936923E+00
    0.3300000000E+06    0.6413452906E+00    0.5999270294E-02    0.3803164058E+00    0.3792785227E-01    0.2935092311E+00
    0.3500000000E+06    0.6413882295E+00    0.5834834186E-02    0.3803690701E+00    0.3793439616E-01    0.2937089401E+00
    0.3700000000E+06    0.6414262986E+00    0.5683625546E-02    0.3804150708E+00    0.3794043177E-01    0.2938948272E+00
    0.3900000000E+06    0.6414602628E+00    0.5543949025E-02    0.3804553910E+00    0.3794602735E-01    0.2940685521E+00
    0.4100000000E+06    0.6414907357E+00    0.5414399628E-02    0.3804908324E+00    0.3795123874E-01    0.2942315009E+00
    0.4300000000E+06    0.6415182153E+00    0.5293801637E-02    0.3805220555E+00    0.3795611219E-01    0.2943848422E+00
    0.4500000000E+06    0.6415431097E+00    0.5181162562E-02    0.3805496093E+00    0.3796068635E-01    0.2945295699E+00
    0.4700000000E+06    0.6415657564E+00    0.5075637917E-02    0.3805739538E+00    0.3796499382E-01    0.2946665353E+00
    0.4900000000E+06    0.6415864372E+00    0.4976503952E-02    0.3805954772E+00    0.3796906233E-01    0.2947964734E+00
    0.1000000000E+06    0.6395043549E+00    0.1052291332E-01    0.3781500587E+00    0.3773856105E-01    0.2886608954E+00
    0.3000000000E+06    0.6412695661E+00    0.6275378442E-02    0.3802221665E+00    0.3791689316E-01    0.2931792395E+00
    0.5000000000E+06    0.6415961158E+00    0.4929134962E-02    0.3806052862E+00    0.3797101453E-01    0.2948590099E+00
    0.7000000000E+06    0.6417281108E+00    0.4202641986E-02    0.3807123110E+00    0.3800183137E-01    0.2958593548E+00
    0.9000000000E+06    0.6417973394E+00    0.3730084796E-02    0.3807293461E+00    0.3802314446E-01    0.2965604645E+00
    0.1100000000E+07    0.6418388500E+00    0.3390848823E-02    0.3807089782E+00    0.3803936475E-01    0.2970953665E+00
    0.1300000000E+07    0.6418658455E+00    0.3131889861E-02    0.3806712146E+00    0.3805243028E-01    0.2975253718E+00
    0.1500000000E+07    0.6418843702E+00    0.2925716082E-02    0.3806250265E+00    0.3806335665E-01    0.2978835393E+00
    0.1700000000E+07    0.6418975652E+00    0.2756456449E-02    0.3805748709E+00    0.3807273990E-01    0.2981896255E+00
    0.1900000000E+07    0.6419072162E+00    0.2614217697E-02    0.3805231147E+00    0.3808095880E-01    0.2984563319E+00
    0.2100000000E+07    0.6419144085E+00    0.2492467159E-02    0.3804710694E+00    0.3808826858E-01    0.2986922837E+00
    0.2300000000E+07    0.6419198373E+00    0.2386693069E-02    0.3804194781E+00    0.3809484921E-01    0.2989035928E+00
    0.2500000000E+07    0.6419239664E+00    0.2293665041E-02    0.3803687631E+00    0.3810083225E-01    0.2990947404E+00
    0.2700000000E+07    0.6419271162E+00    0.2211000707E-02    0.3803191590E+00    0.3810631673E-01    0.2992691051E+00
    0.2900000000E+07    0.6419295144E+00    0.2136899103E-02    0.3802707877E+00    0.3811137903E-01    0.2994292945E+00
    0.3100000000E+07    0.6419313267E+00    0.2069969909E-02    0.3802237026E+00    0.3811607928E-01    0.2995773615E+00
    0.3300000000E+07    0.6419326761E+00    0.2009120275E-02    0.3801779143E+00    0.3812046566E-01    0.2997149494E+00
    0.3500000000E+07    0.6419336557E+00    0.1953477599E-02    0.3801334080E+00    0.3812457734E-01    0.2998433937E+00
    0.3700000000E+07    0.6419343368E+00    0.1902335498E-02    0.3800901529E+00    0.3812844661E-01    0.2999637936E+00
    0.3900000000E+07    0.6419347752E+00    0.1855115144E-02    0.3800481088E+00    0.3813210042E-01    0.3000770643E+00
    0.4100000000E+07    0.6419350147E+00    0.1811337067E-02    0.3800072309E+00    0.3813556143E-01    0.3001839754E+00
    0.4300000000E+07    0.6419350902E+00    0.1770600224E-02    0.3799674719E+00    0.3813884894E-01    0.3002851800E+00
    0.4500000000E+07    0.6419350297E+00    0.1732566222E-02    0.3799287840E+00    0.3814197949E-01    0.3003812372E+00
    0.4700000000E+07    0.6419348560E+00    0.1696947255E-02    0.3798911200E+00    0.3814496736E-01    0.3004726286E+00
    0.4900000000E+07    0.6419345877E+00    0.1663496767E-02    0.3798544341E+00    0.3814782496E-01    0.3005597725E+00
    0.1000000000E+07    0.6418204813E+00    0.3547982228E-02    0.3807221993E+00    0.3803173879E-01    0.2968439153E+00
    0.3000000000E+07    0.6419304853E+00    0.2102612187E-02    0.3802470829E+00    0.3811377116E-01    0.2995047324E+00
    0.5000000000E+07    0.6419344230E+00    0.1647517101E-02    0.3798364440E+00    0.3814920837E-01    0.3006018675E+00
    0.7000000000E+07    0.6419287498E+00    0.1402763834E-02    0.3795183537E+00    0.3817208496E-01    0.3012892598E+00
    0.9000000000E+07    0.6419215419E+00    0.1243898690E-02    0.3792601344E+00    0.3818900726E-01    0.3017873719E+00
    0.1100000000E+08    0.6419143776E+00    0.1130023324E-02    0.3790427956E+00    0.3820244272E-01    0.3021768259E+00
    0.1300000000E+08    0.6419076328E+00    0.1043192663E-02    0.3788550277E+00    0.3821358564E-01    0.3024959598E+00
    0.1500000000E+08    0.6419013765E+00    0.9741220901E-03    0.3786896322E+00    0.3822310559E-01    0.3027659540E+00
    0.1700000000E+08    0.6418955895E+00    0.9174588402E-03    0.3785417585E+00    0.3823141589E-01    0.3029997195E+00
    0.1900000000E+08    0.6418902283E+00    0.8698699264E-03    0.3784079857E+00    0.3823878966E-01    0.3032056970E+00
    0.2100000000E+08    0.6418852462E+00    0.8291565538E-03    0.3782858110E+00    0.3824541684E-01    0.3033897013E+00
    0.2300000000E+08    0.6418805995E+00    0.7938013250E-03    0.3781733475E+00    0.3825143485E-01    0.3035559054E+00
    0.2500000000E+08    0.6418762499E+00    0.7627185359E-03    0.3780691374E+00    0.3825694637E-01    0.3037074032E+00
    0.2700000000E+08    0.6418721642E+00    0.7351079708E-03    0.3779720303E+00    0.3826203010E-01    0.3038465513E+00
