  Pressure (Pa) 22mC5-400 (mol/kg) 2mC6-400 (mol/kg) 3mC6-400 (mol/kg) 23mC5-400 (mol/kg) C7-400 (mol/kg)
    0.1000000000E+01    0.1588581858E-02    0.3150698994E-02    0.1044038235E-02    0.4648959774E-03    0.1016545966E-01
    0.3000000000E+01    0.4708544175E-02    0.9089136870E-02    0.3010697526E-02    0.1377959435E-02    0.2931960204E-01
    0.5000000000E+01    0.7755035431E-02    0.1458800411E-01    0.4830947167E-02    0.2269536235E-02    0.4705452082E-01
    0.7000000000E+01    0.1073123756E-01    0.1969375744E-01    0.6520953661E-02    0.3140556805E-02    0.6352669007E-01
    0.9000000000E+01    0.1364014571E-01    0.2444633649E-01    0.8094573450E-02    0.3991896968E-02    0.7887024203E-01
    0.1100000000E+02    0.1648458184E-01    0.2888028601E-01    0.9563752030E-02    0.4824381901E-02    0.9320082527E-01
    0.1300000000E+02    0.1926720710E-01    0.3302565254E-01    0.1093884304E-01    0.5638789763E-02    0.1066186896E+00
    0.1500000000E+02    0.2199053318E-01    0.3690870667E-01    0.1222886544E-01    0.6435855015E-02    0.1192111728E+00
    0.1700000000E+02    0.2465693270E-01    0.4055252938E-01    0.1344171236E-01    0.7216271458E-02    0.1310547196E+00
    0.1900000000E+02    0.2726864879E-01    0.4397749146E-01    0.1458432188E-01    0.7980695026E-02    0.1422165337E+00
    0.2100000000E+02    0.2982780382E-01    0.4720164817E-01    0.1566281761E-01    0.8729746348E-02    0.1527559369E+00
    0.2300000000E+02    0.3233640750E-01    0.5024106618E-01    0.1668262516E-01    0.9464013104E-02    0.1627254959E+00
    0.2500000000E+02    0.3479636427E-01    0.5311009604E-01    0.1764856913E-01    0.1018405220E-01    0.1721719598E+00
    0.2700000000E+02    0.3720948017E-01    0.5582160048E-01    0.1856495432E-01    0.1089039178E-01    0.1811370466E+00
    0.2900000000E+02    0.3957746916E-01    0.5838714685E-01    0.1943563416E-01    0.1158353304E-01    0.1896581043E+00
    0.3100000000E+02    0.4190195895E-01    0.6081716993E-01    0.2026406857E-01    0.1226395198E-01    0.1977686711E+00
    0.3300000000E+02    0.4418449640E-01    0.6312111058E-01    0.2105337309E-01    0.1293210094E-01    0.2054989510E+00
    0.3500000000E+02    0.4642655252E-01    0.6530753411E-01    0.2180636090E-01    0.1358841009E-01    0.2128762196E+00
    0.3700000000E+02    0.4862952708E-01    0.6738423195E-01    0.2252557874E-01    0.1423328878E-01    0.2199251726E+00
    0.3900000000E+02    0.5079475295E-01    0.6935830921E-01    0.2321333789E-01    0.1486712678E-01    0.2266682249E+00
    0.4100000000E+02    0.5292350004E-01    0.7123626049E-01    0.2387174085E-01    0.1549029545E-01    0.2331257693E+00
    0.4300000000E+02    0.5501697904E-01    0.7302403557E-01    0.2450270453E-01    0.1610314885E-01    0.2393164006E+00
    0.4500000000E+02    0.5707634484E-01    0.7472709683E-01    0.2510798036E-01    0.1670602471E-01    0.2452571107E+00
    0.4700000000E+02    0.5910269975E-01    0.7635046926E-01    0.2568917189E-01    0.1729924540E-01    0.2509634583E+00
    0.4900000000E+02    0.6109709649E-01    0.7789878446E-01    0.2624775011E-01    0.1788311876E-01    0.2564497180E+00
    0.1000000000E+02    0.1507025282E-01    0.2670116581E-01    0.8841536758E-02    0.4410446642E-02    0.8615555991E-01
    0.3000000000E+02    0.4074505294E-01    0.5961848693E-01    0.1985492977E-01    0.1192530399E-01    0.1937627382E+00
    0.5000000000E+02    0.6208262664E-01    0.7864614501E-01    0.2651898604E-01    0.1817164264E-01    0.2591144569E+00
    0.7000000000E+02    0.8033770376E-01    0.9053562436E-01    0.3103288351E-01    0.2351638995E-01    0.3035375768E+00
    0.9000000000E+02    0.9630652817E-01    0.9825770070E-01    0.3431866670E-01    0.2819240590E-01    0.3359850781E+00
    0.1100000000E+03    0.1105201666E+00    0.1033457654E+00    0.3683286083E-01    0.3235500578E-01    0.3608952310E+00
    0.1300000000E+03    0.1233474246E+00    0.1066770508E+00    0.3882831088E-01    0.3611205369E-01    0.3807291151E+00
    0.1500000000E+03    0.1350531492E+00    0.1087906956E+00    0.4045687866E-01    0.3954101134E-01    0.3969666352E+00
    0.1700000000E+03    0.1458329857E+00    0.1100360091E+00    0.4181555903E-01    0.4269910199E-01    0.4105541169E+00
    0.1900000000E+03    0.1558350008E+00    0.1106486681E+00    0.4296936873E-01    0.4562963380E-01    0.4221266237E+00
    0.2100000000E+03    0.1651736298E+00    0.1107928680E+00    0.4396362060E-01    0.4836607875E-01    0.4321272612E+00
    0.2300000000E+03    0.1739389587E+00    0.1105860183E+00    0.4483092510E-01    0.5093478708E-01    0.4408752794E+00
    0.2500000000E+03    0.1822030691E+00    0.1101138972E+00    0.4559539102E-01    0.5335684313E-01    0.4486069611E+00
    0.2700000000E+03    0.1900244814E+00    0.1094403095E+00    0.4627525425E-01    0.5564936465E-01    0.4555012269E+00
    0.2900000000E+03    0.1974513311E+00    0.1086134410E+00    0.4688458257E-01    0.5782643182E-01    0.4616962525E+00
    0.3100000000E+03    0.2045236819E+00    0.1076701542E+00    0.4743441567E-01    0.5989976397E-01    0.4673005878E+00
    0.3300000000E+03    0.2112752406E+00    0.1066389603E+00    0.4793354802E-01    0.6187922085E-01    0.4724007981E+00
    0.3500000000E+03    0.2177346449E+00    0.1055421184E+00    0.4838907916E-01    0.6377317964E-01    0.4770668389E+00
    0.3700000000E+03    0.2239264469E+00    0.1043971443E+00    0.4880680854E-01    0.6558882234E-01    0.4813559147E+00
    0.3900000000E+03    0.2298718712E+00    0.1032179128E+00    0.4919152406E-01    0.6733235765E-01    0.4853153013E+00
    0.4100000000E+03    0.2355894071E+00    0.1020154742E+00    0.4954721648E-01    0.6900919418E-01    0.4889844432E+00
    0.4300000000E+03    0.2410952761E+00    0.1007986676E+00    0.4987724097E-01    0.7062407714E-01    0.4923965372E+00
    0.4500000000E+03    0.2464038037E+00    0.9957458559E-01    0.5018444073E-01    0.7218119723E-01    0.4955797419E+00
    0.4700000000E+03    0.2515277192E+00    0.9834893180E-01    0.5047124239E-01    0.7368427812E-01    0.4985581146E+00
    0.4900000000E+03    0.2564783974E+00    0.9712629702E-01    0.5073973085E-01    0.7513664739E-01    0.5013523449E+00
    0.1000000000E+03    0.1036067260E+00    0.1010657159E+00    0.3565324679E-01    0.3033027300E-01    0.3491977861E+00
    0.3000000000E+03    0.2010295800E+00    0.1081544003E+00    0.4716634110E-01    0.5887540988E-01    0.4645664027E+00
    0.5000000000E+03    0.2588920065E+00    0.9651729629E-01    0.5086768049E-01    0.7584476121E-01    0.5026860963E+00
    0.7000000000E+03    0.3000915871E+00    0.8507487069E-01    0.5279673047E-01    0.8793630450E-01    0.5229925024E+00
    0.9000000000E+03    0.3313655282E+00    0.7547309673E-01    0.5400894180E-01    0.9712103152E-01    0.5359979261E+00
    0.1100000000E+04    0.3559172817E+00    0.6761659247E-01    0.5485219975E-01    0.1043363025E+00    0.5452015021E+00
    0.1300000000E+04    0.3756302812E+00    0.6118432869E-01    0.5547775646E-01    0.1101333717E+00    0.5521379543E+00
    0.1500000000E+04    0.3917342351E+00    0.5587659152E-01    0.5596291797E-01    0.1148722608E+00    0.5575980152E+00
    0.1700000000E+04    0.4050797333E+00    0.5145274134E-01    0.5635167866E-01    0.1188020695E+00    0.5620350549E+00
    0.1900000000E+04    0.4162767452E+00    0.4772708112E-01    0.5667108031E-01    0.1221014812E+00    0.5657296995E+00
    0.2100000000E+04    0.4257739653E+00    0.4455760781E-01    0.5693873891E-01    0.1249019722E+00    0.5688659689E+00
    0.2300000000E+04    0.4339080440E+00    0.4183550566E-01    0.5716666397E-01    0.1273022140E+00    0.5715701052E+00
    0.2500000000E+04    0.4409357460E+00    0.3947683157E-01    0.5736334803E-01    0.1293774835E+00    0.5739319157E+00
    0.2700000000E+04    0.4470557112E+00    0.3741627021E-01    0.5753498015E-01    0.1311860318E+00    0.5760172248E+00
    0.2900000000E+04    0.4524235679E+00    0.3560252463E-01    0.5768618590E-01    0.1327735084E+00    0.5778755009E+00
    0.3100000000E+04    0.4571626486E+00    0.3399492580E-01    0.5782049732E-01    0.1341760988E+00    0.5795447187E+00
    0.3300000000E+04    0.4613717171E+00    0.3256093120E-01    0.5794066164E-01    0.1354227870E+00    0.5810545686E+00
    0.3500000000E+04    0.4651306256E+00    0.3127426808E-01    0.5804885031E-01    0.1365370131E+00    0.5824286358E+00
    0.3700000000E+04    0.4685045109E+00    0.3011354455E-01    0.5814680402E-01    0.1375379023E+00    0.5836859201E+00
    0.3900000000E+04    0.4715469448E+00    0.2906120200E-01    0.5823593573E-01    0.1384411879E+00    0.5848419175E+00
    0.4100000000E+04    0.4743023249E+00    0.2810271811E-01    0.5831740520E-01    0.1392599120E+00    0.5859094065E+00
    0.4300000000E+04    0.4768077087E+00    0.2722599523E-01    0.5839217394E-01    0.1400049635E+00    0.5868990299E+00
    0.4500000000E+04    0.4790942335E+00    0.2642088719E-01    0.5846104629E-01    0.1406854935E+00    0.5878197308E+00
    0.4700000000E+04    0.4811882249E+00    0.2567883007E-01    0.5852470067E-01    0.1413092413E+00    0.5886790857E+00
    0.4900000000E+04    0.4831120704E+00    0.2499255190E-01    0.5858371356E-01    0.1418827900E+00    0.5894835602E+00
    0.1000000000E+04    0.3443438501E+00    0.7134617179E-01    0.5446472507E-01    0.1009345122E+00    0.5409538148E+00
    0.3000000000E+04    0.4548650314E+00    0.3477515683E-01    0.5775526614E-01    0.1334959560E+00    0.5787317217E+00
    0.5000000000E+04    0.4840162815E+00    0.2466835313E-01    0.5861163640E-01    0.1421525317E+00    0.5898669843E+00
    0.7000000000E+04    0.4966126054E+00    0.1999699332E-01    0.5901563198E-01    0.1459255775E+00    0.5956669730E+00
    0.9000000000E+04    0.5034792051E+00    0.1724982646E-01    0.5925054557E-01    0.1480012215E+00    0.5993569226E+00
    0.1100000000E+05    0.5077566616E+00    0.1540544178E-01    0.5940299823E-01    0.1493064444E+00    0.6019652284E+00
    0.1300000000E+05    0.5106607697E+00    0.1406141534E-01    0.5950886339E-01    0.1502011463E+00    0.6039336506E+00
    0.1500000000E+05    0.5127542620E+00    0.1302661857E-01    0.5958580154E-01    0.1508524043E+00    0.6054870783E+00
    0.1700000000E+05    0.5143313614E+00    0.1219806576E-01    0.5964355191E-01    0.1513478402E+00    0.6067534944E+00
    0.1900000000E+05    0.5155601484E+00    0.1151499767E-01    0.5968793717E-01    0.1517376652E+00    0.6078117412E+00
    0.2100000000E+05    0.5165433297E+00    0.1093904035E-01    0.5972265595E-01    0.1520526575E+00    0.6087133639E+00
    0.2300000000E+05    0.5173470746E+00    0.1044463997E-01    0.5975017136E-01    0.1523127095E+00    0.6094936595E+00
    0.2500000000E+05    0.5180158720E+00    0.1001404542E-01    0.5977218700E-01    0.1525312389E+00    0.6101777134E+00
    0.2700000000E+05    0.5185807045E+00    0.9634493443E-02    0.5978991842E-01    0.1527176202E+00    0.6107839055E+00
    0.2900000000E+05    0.5190637937E+00    0.9296540865E-02    0.5980425571E-01    0.1528785989E+00    0.6113260500E+00
    0.3100000000E+05    0.5194814817E+00    0.8993030440E-02    0.5981586519E-01    0.1530191522E+00    0.6118147561E+00
    0.3300000000E+05    0.5198460485E+00    0.8718424723E-02    0.5982525516E-01    0.1531430324E+00    0.6122583246E+00
    0.3500000000E+05    0.5201668960E+00    0.8468362702E-02    0.5983281981E-01    0.1532531219E+00    0.6126633554E+00
    0.3700000000E+05    0.5204513422E+00    0.8239356281E-02    0.5983886922E-01    0.1533516717E+00    0.6130351708E+00
    0.3900000000E+05    0.5207051661E+00    0.8028577326E-02    0.5984365049E-01    0.1534404651E+00    0.6133781169E+00
    0.4100000000E+05    0.5209329909E+00    0.7833704994E-02    0.5984736269E-01    0.1535209338E+00    0.6136957819E+00
    0.4300000000E+05    0.5211385587E+00    0.7652814154E-02    0.5985016787E-01    0.1535942402E+00    0.6139911587E+00
    0.4500000000E+05    0.5213249296E+00    0.7484292444E-02    0.5985219914E-01    0.1536613384E+00    0.6142667654E+00
    0.4700000000E+05    0.5214946303E+00    0.7326777661E-02    0.5985356671E-01    0.1537230186E+00    0.6145247386E+00
    0.4900000000E+05    0.5216497651E+00    0.7179109834E-02    0.5985436255E-01    0.1537799410E+00    0.6147669041E+00
    0.1000000000E+05    0.5058426559E+00    0.1624732903E-01    0.5933421037E-01    0.1487208756E+00    0.6007612765E+00
    0.3000000000E+05    0.5192799664E+00    0.9140858404E-02    0.5981036655E-01    0.1529511704E+00    0.6115765182E+00
    0.5000000000E+05    0.5217224335E+00    0.7108652021E-02    0.5985457071E-01    0.1538067953E+00    0.6148825587E+00
    0.7000000000E+05    0.5227207376E+00    0.6035451968E-02    0.5984222149E-01    0.1541921893E+00    0.6166529763E+00
    0.9000000000E+05    0.5232555954E+00    0.5343695359E-02    0.5981564699E-01    0.1544185419E+00    0.6178037830E+00
    0.1100000000E+06    0.5235851880E+00    0.4849566098E-02    0.5978526893E-01    0.1545708451E+00    0.6186316563E+00
    0.1300000000E+06    0.5238065297E+00    0.4473553383E-02    0.5975446543E-01    0.1546821666E+00    0.6192657888E+00
    0.1500000000E+06    0.5239640896E+00    0.4174840226E-02    0.5972446119E-01    0.1547681825E+00    0.6197727361E+00
    0.1700000000E+06    0.5240810594E+00    0.3930008265E-02    0.5969569651E-01    0.1548373408E+00    0.6201907745E+00
    0.1900000000E+06    0.5241706897E+00    0.3724522428E-02    0.5966829611E-01    0.1548946255E+00    0.6205437062E+00
    0.2100000000E+06    0.5242410846E+00    0.3548815417E-02    0.5964225175E-01    0.1549431824E+00    0.6208472253E+00
    0.2300000000E+06    0.5242974701E+00    0.3396295662E-02    0.5961749972E-01    0.1549851038E+00    0.6211121623E+00
    0.2500000000E+06    0.5243433618E+00    0.3262252736E-02    0.5959395553E-01    0.1550218407E+00    0.6213462699E+00
    0.2700000000E+06    0.5243812084E+00    0.3143218178E-02    0.5957152980E-01    0.1550544345E+00    0.6215552657E+00
    0.2900000000E+06    0.5244127652E+00    0.3036573387E-02    0.5955013562E-01    0.1550836542E+00    0.6217434740E+00
    0.3100000000E+06    0.5244393217E+00    0.2940299045E-02    0.5952969160E-01    0.1551100812E+00    0.6219142347E+00
    0.3300000000E+06    0.5244618455E+00    0.2852809372E-02    0.5951012308E-01    0.1551341648E+00    0.6220701755E+00
    0.3500000000E+06    0.5244810758E+00    0.2772839214E-02    0.5949136219E-01    0.1551562578E+00    0.6222133962E+00
    0.3700000000E+06    0.5244975865E+00    0.2699365139E-02    0.5947334762E-01    0.1551766423E+00    0.6223455984E+00
    0.3900000000E+06    0.5245118296E+00    0.2631549059E-02    0.5945602405E-01    0.1551955463E+00    0.6224681779E+00
    0.4100000000E+06    0.5245241654E+00    0.2568697140E-02    0.5943934160E-01    0.1552131570E+00    0.6225822926E+00
    0.4300000000E+06    0.5245348843E+00    0.2510229337E-02    0.5942325526E-01    0.1552296291E+00    0.6226889118E+00
    0.4500000000E+06    0.5245442231E+00    0.2455656447E-02    0.5940772436E-01    0.1552450925E+00    0.6227888547E+00
    0.4700000000E+06    0.5245523761E+00    0.2404562577E-02    0.5939271208E-01    0.1552596566E+00    0.6228828189E+00
    0.4900000000E+06    0.5245595047E+00    0.2356591581E-02    0.5937818503E-01    0.1552734144E+00    0.6229714028E+00
    0.1000000000E+06    0.5234381277E+00    0.5078213440E-02    0.5980064388E-01    0.1545012731E+00    0.6182478842E+00
    0.3000000000E+06    0.5244266017E+00    0.2987247657E-02    0.5953979967E-01    0.1550971861E+00    0.6218308569E+00
    0.5000000000E+06    0.5245627277E+00    0.2333679543E-02    0.5937109386E-01    0.1552800164E+00    0.6230138414E+00
    0.7000000000E+06    0.5245967678E+00    0.1983101165E-02    0.5924865965E-01    0.1553842602E+00    0.6236752069E+00
    0.9000000000E+06    0.5246023558E+00    0.1755928460E-02    0.5915244165E-01    0.1554563567E+00    0.6241187230E+00
    0.1100000000E+07    0.5245974578E+00    0.1593295675E-02    0.5907308449E-01    0.1555112078E+00    0.6244457870E+00
    0.1300000000E+07    0.5245882150E+00    0.1469414103E-02    0.5900549566E-01    0.1555553725E+00    0.6247015495E+00
    0.1500000000E+07    0.5245771421E+00    0.1370956066E-02    0.5894659630E-01    0.1555922909E+00    0.6249096941E+00
    0.1700000000E+07    0.5245653871E+00    0.1290244874E-02    0.5889438155E-01    0.1556239827E+00    0.6250840512E+00
    0.1900000000E+07    0.5245535083E+00    0.1222504160E-02    0.5884747197E-01    0.1556517314E+00    0.6252333365E+00
    0.2100000000E+07    0.5245417865E+00    0.1164585003E-02    0.5880487729E-01    0.1556764022E+00    0.6253633657E+00
    0.2300000000E+07    0.5245303619E+00    0.1114315595E-02    0.5876586222E-01    0.1556986049E+00    0.6254781954E+00
    0.2500000000E+07    0.5245193010E+00    0.1070142813E-02    0.5872986558E-01    0.1557187854E+00    0.6255807578E+00
    0.2700000000E+07    0.5245086305E+00    0.1030922484E-02    0.5869644921E-01    0.1557372792E+00    0.6256732353E+00
    0.2900000000E+07    0.5244983546E+00    0.9957905031E-03    0.5866526438E-01    0.1557543451E+00    0.6257572922E+00
    0.3100000000E+07    0.5244884658E+00    0.9640803797E-03    0.5863602890E-01    0.1557701866E+00    0.6258342242E+00
    0.3300000000E+07    0.5244789500E+00    0.9352686480E-03    0.5860851118E-01    0.1557849670E+00    0.6259050580E+00
    0.3500000000E+07    0.5244697899E+00    0.9089376513E-03    0.5858251876E-01    0.1557988188E+00    0.6259706200E+00
    0.3700000000E+07    0.5244609669E+00    0.8847495226E-03    0.5855788999E-01    0.1558118516E+00    0.6260315842E+00
    0.3900000000E+07    0.5244524625E+00    0.8624275839E-03    0.5853448771E-01    0.1558241562E+00    0.6260885069E+00
    0.4100000000E+07    0.5244442581E+00    0.8417427877E-03    0.5851219457E-01    0.1558358096E+00    0.6261418524E+00
    0.4300000000E+07    0.5244363364E+00    0.8225036600E-03    0.5849090934E-01    0.1558468771E+00    0.6261920115E+00
    0.4500000000E+07    0.5244286809E+00    0.8045487238E-03    0.5847054413E-01    0.1558574144E+00    0.6262393164E+00
    0.4700000000E+07    0.5244212759E+00    0.7877407106E-03    0.5845102209E-01    0.1558674700E+00    0.6262840514E+00
    0.4900000000E+07    0.5244141069E+00    0.7719620822E-03    0.5843227567E-01    0.1558770859E+00    0.6263264616E+00
    0.1000000000E+07    0.5246007026E+00    0.1668578825E-02    0.5911103754E-01    0.1554854222E+00    0.6242932650E+00
    0.3000000000E+07    0.5244933626E+00    0.9795432754E-03    0.5865041848E-01    0.1557624079E+00    0.6257965793E+00
    0.5000000000E+07    0.5244106068E+00    0.7644265729E-03    0.5842317439E-01    0.1558817406E+00    0.6263468625E+00
    0.7000000000E+07    0.5243502115E+00    0.6491871651E-03    0.5827043019E-01    0.1559586694E+00    0.6266722866E+00
    0.9000000000E+07    0.5243029541E+00    0.5745794233E-03    0.5815507670E-01    0.1560155243E+00    0.6268993358E+00
    0.1100000000E+08    0.5242641882E+00    0.5212025178E-03    0.5806230929E-01    0.1560606351E+00    0.6270719844E+00
    0.1300000000E+08    0.5242313384E+00    0.4805642394E-03    0.5798469159E-01    0.1560980298E+00    0.6272104130E+00
    0.1500000000E+08    0.5242028411E+00    0.4482787848E-03    0.5791795100E-01    0.1561299651E+00    0.6273254678E+00
    0.1700000000E+08    0.5241776782E+00    0.4218213656E-03    0.5785940346E-01    0.1561578334E+00    0.6274236137E+00
    0.1900000000E+08    0.5241551510E+00    0.3996218168E-03    0.5780725152E-01    0.1561825540E+00    0.6275089982E+00
    0.2100000000E+08    0.5241347593E+00    0.3806453885E-03    0.5776023191E-01    0.1562047662E+00    0.6275844323E+00
    0.2300000000E+08    0.5241161328E+00    0.3641786597E-03    0.5771742271E-01    0.1562249323E+00    0.6276519048E+00
    0.2500000000E+08    0.5240989899E+00    0.3497115978E-03    0.5767813033E-01    0.1562433977E+00    0.6277128719E+00
    0.2700000000E+08    0.5240831114E+00    0.3368685651E-03    0.5764181979E-01    0.1562604269E+00    0.6277684298E+00
