  Pressure (Pa) 22mC5-400 (mol/kg) 2mC6-400 (mol/kg) 3mC6-400 (mol/kg) 23mC5-400 (mol/kg) C7-400 (mol/kg)
    0.1000000000E+01    0.1592043426E-02    0.7937589371E-03    0.4210468693E-02    0.5590902693E-03    0.3416203688E-02
    0.3000000000E+01    0.4738881182E-02    0.2323569425E-02    0.1233196763E-01    0.1664200440E-02    0.1000679558E-01
    0.5000000000E+01    0.7837121168E-02    0.3780715894E-02    0.2007757429E-01    0.2752258019E-02    0.1629380170E-01
    0.7000000000E+01    0.1088800563E-01    0.5169931204E-02    0.2747307010E-01    0.3823698810E-02    0.2229801158E-01
    0.9000000000E+01    0.1389273399E-01    0.6495534764E-02    0.3454192520E-01    0.4878943595E-02    0.2803835244E-01
    0.1100000000E+02    0.1685246464E-01    0.7761477590E-02    0.4130555200E-01    0.5918398766E-02    0.3353209340E-01
    0.1300000000E+02    0.1976831672E-01    0.8971381554E-02    0.4778352597E-01    0.6942456941E-02    0.3879502330E-01
    0.1500000000E+02    0.2264137171E-01    0.1012857367E-01    0.5399377870E-01    0.7951497532E-02    0.4384160621E-01
    0.1700000000E+02    0.2547267502E-01    0.1123611614E-01    0.5995276704E-01    0.8945887297E-02    0.4868511764E-01
    0.1900000000E+02    0.2826323748E-01    0.1229683279E-01    0.6567562176E-01    0.9925980863E-02    0.5333776433E-01
    0.2100000000E+02    0.3101403674E-01    0.1331333232E-01    0.7117627867E-01    0.1089212122E-01    0.5781078983E-01
    0.2300000000E+02    0.3372601861E-01    0.1428802891E-01    0.7646759437E-01    0.1184464018E-01    0.6211456778E-01
    0.2500000000E+02    0.3640009837E-01    0.1522316040E-01    0.8156144887E-01    0.1278385886E-01    0.6625868456E-01
    0.2700000000E+02    0.3903716195E-01    0.1612080456E-01    0.8646883668E-01    0.1371008807E-01    0.7025201271E-01
    0.2900000000E+02    0.4163806712E-01    0.1698289345E-01    0.9119994791E-01    0.1462362876E-01    0.7410277623E-01
    0.3100000000E+02    0.4420364462E-01    0.1781122630E-01    0.9576424060E-01    0.1552477236E-01    0.7781860890E-01
    0.3300000000E+02    0.4673469913E-01    0.1860748103E-01    0.1001705054E+00    0.1641380120E-01    0.8140660635E-01
    0.3500000000E+02    0.4923201040E-01    0.1937322454E-01    0.1044269234E+00    0.1729098883E-01    0.8487337276E-01
    0.3700000000E+02    0.5169633409E-01    0.2010992202E-01    0.1085411184E+00    0.1815660039E-01    0.8822506276E-01
    0.3900000000E+02    0.5412840279E-01    0.2081894523E-01    0.1125202032E+00    0.1901089288E-01    0.9146741910E-01
    0.4100000000E+02    0.5652892683E-01    0.2150158006E-01    0.1163708222E+00    0.1985411553E-01    0.9460580661E-01
    0.4300000000E+02    0.5889859513E-01    0.2215903333E-01    0.1200991891E+00    0.2068651003E-01    0.9764524284E-01
    0.4500000000E+02    0.6123807603E-01    0.2279243887E-01    0.1237111216E+00    0.2150831087E-01    0.1005904258E+00
    0.4700000000E+02    0.6354801803E-01    0.2340286317E-01    0.1272120721E+00    0.2231974558E-01    0.1034457589E+00
    0.4900000000E+02    0.6582905049E-01    0.2399131040E-01    0.1306071562E+00    0.2312103497E-01    0.1062153740E+00
    0.1000000000E+02    0.1537815318E-01    0.7135730112E-02    0.3796062800E-01    0.5400620028E-02    0.3081502834E-01
    0.3000000000E+02    0.4292522094E-01    0.1740117180E-01    0.9350238223E-01    0.1507573234E-01    0.7597710340E-01
    0.5000000000E+02    0.6695891729E-01    0.2427759051E-01    0.1322665113E+00    0.2351794240E-01    0.1075692593E+00
    0.7000000000E+02    0.8817819742E-01    0.2905276126E-01    0.1609199798E+00    0.3097247376E-01    0.1309743112E+00
    0.9000000000E+02    0.1071031410E+00    0.3243528663E-01    0.1830017310E+00    0.3762179926E-01    0.1490517871E+00
    0.1100000000E+03    0.1241288424E+00    0.3485111983E-01    0.2005663203E+00    0.4360454466E-01    0.1634630893E+00
    0.1300000000E+03    0.1395609967E+00    0.3657314489E-01    0.2148893154E+00    0.4902797173E-01    0.1752404895E+00
    0.1500000000E+03    0.1536400166E+00    0.3778469812E-01    0.2268051229E+00    0.5397643866E-01    0.1850597599E+00
    0.1700000000E+03    0.1665577581E+00    0.3861354176E-01    0.2368829072E+00    0.5851726753E-01    0.1933822080E+00
    0.1900000000E+03    0.1784693585E+00    0.3915131313E-01    0.2455244672E+00    0.6270489741E-01    0.2005337382E+00
    0.2100000000E+03    0.1895017713E+00    0.3946527966E-01    0.2530217028E+00    0.6658387860E-01    0.2067512928E+00
    0.2300000000E+03    0.1997600217E+00    0.3960576381E-01    0.2595918928E+00    0.7019106739E-01    0.2122113749E+00
    0.2500000000E+03    0.2093318614E+00    0.3961100672E-01    0.2654001841E+00    0.7355725902E-01    0.2170482394E+00
    0.2700000000E+03    0.2182912792E+00    0.3951045248E-01    0.2705743959E+00    0.7670841967E-01    0.2213658734E+00
    0.2900000000E+03    0.2267011839E+00    0.3932702384E-01    0.2752150411E+00    0.7966662745E-01    0.2252461096E+00
    0.3100000000E+03    0.2346154764E+00    0.3907873431E-01    0.2794022770E+00    0.8245079968E-01    0.2287542567E+00
    0.3300000000E+03    0.2420806689E+00    0.3877985210E-01    0.2832008316E+00    0.8507726095E-01    0.2319430907E+00
    0.3500000000E+03    0.2491371622E+00    0.3844175464E-01    0.2866635614E+00    0.8756019123E-01    0.2348557404E+00
    0.3700000000E+03    0.2558202624E+00    0.3807356527E-01    0.2898340665E+00    0.8991198276E-01    0.2375278074E+00
    0.3900000000E+03    0.2621609980E+00    0.3768263368E-01    0.2927486412E+00    0.9214352659E-01    0.2399889494E+00
    0.4100000000E+03    0.2681867808E+00    0.3727490280E-01    0.2954377503E+00    0.9426444464E-01    0.2422640787E+00
    0.4300000000E+03    0.2739219458E+00    0.3685519185E-01    0.2979271601E+00    0.9628327901E-01    0.2443742807E+00
    0.4500000000E+03    0.2793881941E+00    0.3642741667E-01    0.3002388154E+00    0.9820764753E-01    0.2463375267E+00
    0.4700000000E+03    0.2846049598E+00    0.3599476286E-01    0.3023915263E+00    0.1000443724E+00    0.2481692316E+00
    0.4900000000E+03    0.2895897153E+00    0.3555982271E-01    0.3044015119E+00    0.1017995874E+00    0.2498826966E+00
    0.1000000000E+03    0.1158325222E+00    0.3374434036E-01    0.1922557469E+00    0.4068917007E-01    0.1566405278E+00
    0.3000000000E+03    0.2307172179E+00    0.3921001841E-01    0.2773609753E+00    0.8107939271E-01    0.2270431403E+00
    0.5000000000E+03    0.2920000766E+00    0.3534217044E-01    0.3053574511E+00    0.1026483796E+00    0.2506987561E+00
    0.7000000000E+03    0.3311532176E+00    0.3120579016E-01    0.3195792053E+00    0.1164426106E+00    0.2629457705E+00
    0.9000000000E+03    0.3584660938E+00    0.2776029871E-01    0.3282740836E+00    0.1260747994E+00    0.2705670378E+00
    0.1100000000E+04    0.3785870140E+00    0.2499580952E-01    0.3341753113E+00    0.1331775803E+00    0.2758271134E+00
    0.1300000000E+04    0.3939924925E+00    0.2277405179E-01    0.3384597178E+00    0.1386210967E+00    0.2797078524E+00
    0.1500000000E+04    0.4061390582E+00    0.2096716056E-01    0.3417205491E+00    0.1429172941E+00    0.2827075086E+00
    0.1700000000E+04    0.4159426060E+00    0.1947653301E-01    0.3442905025E+00    0.1463882074E+00    0.2851072957E+00
    0.1900000000E+04    0.4240081905E+00    0.1822926808E-01    0.3463711462E+00    0.1492466515E+00    0.2870786449E+00
    0.2100000000E+04    0.4307512386E+00    0.1717176006E-01    0.3480919913E+00    0.1516387939E+00    0.2887323664E+00
    0.2300000000E+04    0.4364660717E+00    0.1626430716E-01    0.3495401891E+00    0.1536682264E+00    0.2901434644E+00
    0.2500000000E+04    0.4413667548E+00    0.1547715519E-01    0.3507766197E+00    0.1554103184E+00    0.2913646342E+00
    0.2700000000E+04    0.4456125052E+00    0.1478770593E-01    0.3518451443E+00    0.1569211473E+00    0.2924340535E+00
    0.2900000000E+04    0.4493240635E+00    0.1417856330E-01    0.3527781928E+00    0.1582432526E+00    0.2933801057E+00
    0.3100000000E+04    0.4525945595E+00    0.1363616040E-01    0.3536002791E+00    0.1594094574E+00    0.2942243619E+00
    0.3300000000E+04    0.4554969134E+00    0.1314978558E-01    0.3543302895E+00    0.1604454702E+00    0.2949835301E+00
    0.3500000000E+04    0.4580889906E+00    0.1271088360E-01    0.3549830185E+00    0.1613716991E+00    0.2956707672E+00
    0.3700000000E+04    0.4604172644E+00    0.1231254794E-01    0.3555702257E+00    0.1622045396E+00    0.2962965852E+00
    0.3900000000E+04    0.4625194663E+00    0.1194914738E-01    0.3561013802E+00    0.1629573079E+00    0.2968694920E+00
    0.4100000000E+04    0.4644265323E+00    0.1161604803E-01    0.3565841955E+00    0.1636409255E+00    0.2973964531E+00
    0.4300000000E+04    0.4661640559E+00    0.1130940395E-01    0.3570250203E+00    0.1642644308E+00    0.2978832300E+00
    0.4500000000E+04    0.4677533848E+00    0.1102599780E-01    0.3574291293E+00    0.1648353656E+00    0.2983346333E+00
    0.4700000000E+04    0.4692124599E+00    0.1076311820E-01    0.3578009423E+00    0.1653600700E+00    0.2987547136E+00
    0.4900000000E+04    0.4705564641E+00    0.1051846442E-01    0.3581441916E+00    0.1658439115E+00    0.2991469078E+00
    0.1000000000E+04    0.3692384033E+00    0.2630123764E-01    0.3314804790E+00    0.1298766178E+00    0.2734144212E+00
    0.3000000000E+04    0.4510094823E+00    0.1389974649E-01    0.3532018148E+00    0.1588440934E+00    0.2938138178E+00
    0.5000000000E+04    0.4711894322E+00    0.1040234681E-01    0.3583061156E+00    0.1660719648E+00    0.2993334823E+00
    0.7000000000E+04    0.4801249238E+00    0.8683000147E-02    0.3606134232E+00    0.1693077566E+00    0.3021314805E+00
    0.9000000000E+04    0.4851316094E+00    0.7621932273E-02    0.3619253795E+00    0.1711408928E+00    0.3038945426E+00
    0.1100000000E+05    0.4883231681E+00    0.6884177329E-02    0.3627669601E+00    0.1723223817E+00    0.3051386515E+00
    0.1300000000E+05    0.4905308246E+00    0.6332593625E-02    0.3633486348E+00    0.1731486731E+00    0.3060798357E+00
    0.1500000000E+05    0.4921465451E+00    0.5899664506E-02    0.3637715562E+00    0.1737600807E+00    0.3068261716E+00
    0.1700000000E+05    0.4933789412E+00    0.5547858599E-02    0.3640904730E+00    0.1742315601E+00    0.3074384109E+00
    0.1900000000E+05    0.4943491156E+00    0.5254438845E-02    0.3643376294E+00    0.1746067862E+00    0.3079536470E+00
    0.2100000000E+05    0.4951321323E+00    0.5004719169E-02    0.3645332570E+00    0.1749129311E+00    0.3083959740E+00
    0.2300000000E+05    0.4957769676E+00    0.4788731625E-02    0.3646906924E+00    0.1751677895E+00    0.3087818138E+00
    0.2500000000E+05    0.4963169223E+00    0.4599438233E-02    0.3648190814E+00    0.1753835055E+00    0.3091227987E+00
    0.2700000000E+05    0.4967754205E+00    0.4431707302E-02    0.3649249030E+00    0.1755686531E+00    0.3094274326E+00
    0.2900000000E+05    0.4971694132E+00    0.4281695793E-02    0.3650128729E+00    0.1757294599E+00    0.3097020978E+00
    0.3100000000E+05    0.4975114672E+00    0.4146460120E-02    0.3650865033E+00    0.1758705601E+00    0.3099516926E+00
    0.3300000000E+05    0.4978110940E+00    0.4023701772E-02    0.3651484619E+00    0.1759954739E+00    0.3101800484E+00
    0.3500000000E+05    0.4980756240E+00    0.3911595790E-02    0.3652008105E+00    0.1761069246E+00    0.3103902128E+00
    0.3700000000E+05    0.4983107968E+00    0.3808671971E-02    0.3652451660E+00    0.1762070522E+00    0.3105846448E+00
    0.3900000000E+05    0.4985211697E+00    0.3713730621E-02    0.3652828139E+00    0.1762975621E+00    0.3107653544E+00
    0.4100000000E+05    0.4987104069E+00    0.3625781590E-02    0.3653147880E+00    0.1763798308E+00    0.3109340032E+00
    0.4300000000E+05    0.4988814875E+00    0.3543999318E-02    0.3653419288E+00    0.1764549813E+00    0.3110919789E+00
    0.4500000000E+05    0.4990368584E+00    0.3467689159E-02    0.3653649259E+00    0.1765239395E+00    0.3112404514E+00
    0.4700000000E+05    0.4991785476E+00    0.3396261774E-02    0.3653843500E+00    0.1765874755E+00    0.3113804146E+00
    0.4900000000E+05    0.4993082502E+00    0.3329213399E-02    0.3654006773E+00    0.1766462355E+00    0.3115127200E+00
    0.1000000000E+05    0.4868869764E+00    0.7223620742E-02    0.3623880136E+00    0.1717891134E+00    0.3045642555E+00
    0.3000000000E+05    0.4973462784E+00    0.4212387429E-02    0.3650512973E+00    0.1758022315E+00    0.3098297684E+00
    0.5000000000E+05    0.4993690617E+00    0.3297193458E-02    0.3654078072E+00    0.1766739985E+00    0.3115762343E+00
    0.7000000000E+05    0.5002075643E+00    0.2807384139E-02    0.3654578784E+00    0.1770753991E+00    0.3125792407E+00
    0.9000000000E+05    0.5006580987E+00    0.2489865449E-02    0.3654219101E+00    0.1773137201E+00    0.3132697924E+00
    0.1100000000E+06    0.5009351998E+00    0.2262346232E-02    0.3653557524E+00    0.1774751060E+00    0.3137912486E+00
    0.1300000000E+06    0.5011204373E+00    0.2088866764E-02    0.3652786820E+00    0.1775935618E+00    0.3142077434E+00
    0.1500000000E+06    0.5012514554E+00    0.1950857519E-02    0.3651985025E+00    0.1776853599E+00    0.3145531751E+00
    0.1700000000E+06    0.5013479658E+00    0.1837623354E-02    0.3651186515E+00    0.1777593272E+00    0.3148475131E+00
    0.1900000000E+06    0.5014212568E+00    0.1742508232E-02    0.3650406896E+00    0.1778206971E+00    0.3151034580E+00
    0.2100000000E+06    0.5014782405E+00    0.1661122305E-02    0.3649653034E+00    0.1778727850E+00    0.3153295624E+00
    0.2300000000E+06    0.5015233759E+00    0.1590436495E-02    0.3648927506E+00    0.1779178026E+00    0.3155318463E+00
    0.2500000000E+06    0.5015596619E+00    0.1528283565E-02    0.3648230731E+00    0.1779572874E+00    0.3157146996E+00
    0.2700000000E+06    0.5015891858E+00    0.1473066132E-02    0.3647562036E+00    0.1779923450E+00    0.3158814176E+00
    0.2900000000E+06    0.5016134421E+00    0.1423577228E-02    0.3646920220E+00    0.1780237932E+00    0.3160345342E+00
    0.3100000000E+06    0.5016335274E+00    0.1378885464E-02    0.3646303847E+00    0.1780522514E+00    0.3161760376E+00
    0.3300000000E+06    0.5016502630E+00    0.1338258985E-02    0.3645711412E+00    0.1780781984E+00    0.3163075156E+00
    0.3500000000E+06    0.5016642754E+00    0.1301113603E-02    0.3645141427E+00    0.1781020109E+00    0.3164302555E+00
    0.3700000000E+06    0.5016760498E+00    0.1266976533E-02    0.3644592463E+00    0.1781239902E+00    0.3165453148E+00
    0.3900000000E+06    0.5016859675E+00    0.1235460454E-02    0.3644063175E+00    0.1781443802E+00    0.3166535722E+00
    0.4100000000E+06    0.5016943317E+00    0.1206244596E-02    0.3643552311E+00    0.1781633811E+00    0.3167557660E+00
    0.4300000000E+06    0.5017013864E+00    0.1179060708E-02    0.3643058709E+00    0.1781811587E+00    0.3168525217E+00
    0.4500000000E+06    0.5017073296E+00    0.1153682479E-02    0.3642581298E+00    0.1781978519E+00    0.3169443741E+00
    0.4700000000E+06    0.5017123238E+00    0.1129917462E-02    0.3642119092E+00    0.1782135780E+00    0.3170317836E+00
    0.4900000000E+06    0.5017165032E+00    0.1107600815E-02    0.3641671183E+00    0.1782284369E+00    0.3171151496E+00
    0.1000000000E+06    0.5008116815E+00    0.2367693397E-02    0.3653909872E+00    0.1774012853E+00    0.3135466294E+00
    0.3000000000E+06    0.5016239494E+00    0.1400681421E-02    0.3646608947E+00    0.1780383634E+00    0.3161066302E+00
    0.5000000000E+06    0.5017183231E+00    0.1096940438E-02    0.3641452325E+00    0.1782355684E+00    0.3171554269E+00
    0.7000000000E+06    0.5017312209E+00    0.9337028772E-03    0.3637655226E+00    0.1783482680E+00    0.3178139721E+00
    0.9000000000E+06    0.5017232677E+00    0.8277909346E-03    0.3634652875E+00    0.1784263129E+00    0.3182924261E+00
    0.1100000000E+07    0.5017086256E+00    0.7518937042E-03    0.3632168058E+00    0.1784857429E+00    0.3186673961E+00
    0.1300000000E+07    0.5016918670E+00    0.6940336548E-03    0.3630046885E+00    0.1785336276E+00    0.3189752973E+00
    0.1500000000E+07    0.5016747247E+00    0.6480157588E-03    0.3628195348E+00    0.1785736781E+00    0.3192362587E+00
    0.1700000000E+07    0.5016579061E+00    0.6102693442E-03    0.3626551836E+00    0.1786080749E+00    0.3194625617E+00
    0.1900000000E+07    0.5016416995E+00    0.5785715117E-03    0.3625073773E+00    0.1786382043E+00    0.3196622438E+00
    0.2100000000E+07    0.5016262089E+00    0.5514560387E-03    0.3623730499E+00    0.1786650012E+00    0.3198408479E+00
    0.2300000000E+07    0.5016114534E+00    0.5279112190E-03    0.3622499193E+00    0.1786891249E+00    0.3200023562E+00
    0.2500000000E+07    0.5015974130E+00    0.5072132602E-03    0.3621362404E+00    0.1787110576E+00    0.3201497242E+00
    0.2700000000E+07    0.5015840505E+00    0.4888287488E-03    0.3620306487E+00    0.1787311623E+00    0.3202852052E+00
    0.2900000000E+07    0.5015713221E+00    0.4723547009E-03    0.3619320566E+00    0.1787497190E+00    0.3204105559E+00
    0.3100000000E+07    0.5015591829E+00    0.4574801917E-03    0.3618395833E+00    0.1787669481E+00    0.3205271720E+00
    0.3300000000E+07    0.5015475894E+00    0.4439609446E-03    0.3617525051E+00    0.1787830262E+00    0.3206361804E+00
    0.3500000000E+07    0.5015365008E+00    0.4316020037E-03    0.3616702202E+00    0.1787980970E+00    0.3207385041E+00
    0.3700000000E+07    0.5015258795E+00    0.4202456151E-03    0.3615922228E+00    0.1788122790E+00    0.3208349084E+00
    0.3900000000E+07    0.5015156910E+00    0.4097625616E-03    0.3615180833E+00    0.1788256708E+00    0.3209260349E+00
    0.4100000000E+07    0.5015059038E+00    0.4000458451E-03    0.3614474340E+00    0.1788383557E+00    0.3210124264E+00
    0.4300000000E+07    0.5014964895E+00    0.3910059985E-03    0.3613799577E+00    0.1788504044E+00    0.3210945467E+00
    0.4500000000E+07    0.5014874222E+00    0.3825675545E-03    0.3613153787E+00    0.1788618775E+00    0.3211727948E+00
    0.4700000000E+07    0.5014786783E+00    0.3746663460E-03    0.3612534559E+00    0.1788728275E+00    0.3212475163E+00
    0.4900000000E+07    0.5014702365E+00    0.3672474175E-03    0.3611939772E+00    0.1788832998E+00    0.3213190129E+00
    0.1000000000E+07    0.5017163931E+00    0.7870350551E-03    0.3633357277E+00    0.1784577991E+00    0.3184900313E+00
    0.3000000000E+07    0.5015651816E+00    0.4647340993E-03    0.3618851035E+00    0.1787584875E+00    0.3204698799E+00
    0.5000000000E+07    0.5014661228E+00    0.3637037438E-03    0.3611650949E+00    0.1788883695E+00    0.3213536358E+00
    0.7000000000E+07    0.5013958131E+00    0.3094619157E-03    0.3606798263E+00    0.1789721958E+00    0.3219268482E+00
    0.9000000000E+07    0.5013414753E+00    0.2742900752E-03    0.3603126713E+00    0.1790341930E+00    0.3223511890E+00
    0.1100000000E+08    0.5012972216E+00    0.2490962563E-03    0.3600169831E+00    0.1790834090E+00    0.3226879867E+00
    0.1300000000E+08    0.5012599007E+00    0.2298957988E-03    0.3597692929E+00    0.1791242226E+00    0.3229671272E+00
    0.1500000000E+08    0.5012276363E+00    0.2146287924E-03    0.3595561001E+00    0.1791590885E+00    0.3232054246E+00
    0.1700000000E+08    0.5011992218E+00    0.2021084164E-03    0.3593689154E+00    0.1791895218E+00    0.3234132770E+00
    0.1900000000E+08    0.5011738364E+00    0.1915960559E-03    0.3592020485E+00    0.1792165235E+00    0.3235975625E+00
    0.2100000000E+08    0.5011508963E+00    0.1826046487E-03    0.3590514978E+00    0.1792407899E+00    0.3237630667E+00
    0.2300000000E+08    0.5011299715E+00    0.1747981921E-03    0.3589143408E+00    0.1792628244E+00    0.3239132534E+00
    0.2500000000E+08    0.5011107365E+00    0.1679363495E-03    0.3587883774E+00    0.1792830035E+00    0.3240507098E+00
    0.2700000000E+08    0.5010929384E+00    0.1618420297E-03    0.3586719101E+00    0.1793016156E+00    0.3241774195E+00
