  Pressure (Pa) 22mC5-400 (mol/kg) 2mC6-400 (mol/kg) 3mC6-400 (mol/kg) 23mC5-400 (mol/kg) C7-400 (mol/kg)
    0.1000000000E+01    0.1585145110E-02    0.5510119298E-02    0.5222308547E-03    0.3711125258E-03    0.8474609354E-02
    0.3000000000E+01    0.4678760294E-02    0.1587493790E-01    0.1507180008E-02    0.1095397565E-02    0.2446235308E-01
    0.5000000000E+01    0.7675312204E-02    0.2544638912E-01    0.2420365960E-02    0.1796972114E-02    0.3929053322E-01
    0.7000000000E+01    0.1058055957E-01    0.3430889183E-01    0.3269707157E-02    0.2477183411E-02    0.5308691586E-01
    0.9000000000E+01    0.1339979857E-01    0.4253512845E-01    0.4061986338E-02    0.3137270491E-02    0.6596095559E-01
    0.1100000000E+02    0.1613790878E-01    0.5018804432E-01    0.4803047764E-02    0.3778374935E-02    0.7800697401E-01
    0.1300000000E+02    0.1879939378E-01    0.5732244808E-01    0.5497954676E-02    0.4401550364E-02    0.8930669755E-01
    0.1500000000E+02    0.2138841702E-01    0.6398630337E-01    0.6151116041E-02    0.5007770836E-02    0.9993130046E-01
    0.1700000000E+02    0.2390883369E-01    0.7022177961E-01    0.6766389351E-02    0.5597938295E-02    0.1099430619E+00
    0.1900000000E+02    0.2636421907E-01    0.7606611301E-01    0.7347164606E-02    0.6172889199E-02    0.1193967198E+00
    0.2100000000E+02    0.2875789373E-01    0.8155231694E-01    0.7896433371E-02    0.6733400427E-02    0.1283405845E+00
    0.2300000000E+02    0.3109294610E-01    0.8670977166E-01    0.8416845925E-02    0.7280194546E-02    0.1368174596E+00
    0.2500000000E+02    0.3337225264E-01    0.9156471690E-01    0.8910758828E-02    0.7813944541E-02    0.1448654098E+00
    0.2700000000E+02    0.3559849597E-01    0.9614066558E-01    0.9380274731E-02    0.8335278043E-02    0.1525184021E+00
    0.2900000000E+02    0.3777418112E-01    0.1004587531E+00    0.9827275867E-02    0.8844781139E-02    0.1598068465E+00
    0.3100000000E+02    0.3990165016E-01    0.1045380337E+00    0.1025345237E-01    0.9343001796E-02    0.1667580523E+00
    0.3300000000E+02    0.4198309546E-01    0.1083957333E+00    0.1066032630E-01    0.9830452954E-02    0.1733966163E+00
    0.3500000000E+02    0.4402057159E-01    0.1120474656E+00    0.1104927221E-01    0.1030761532E-01    0.1797447535E+00
    0.3700000000E+02    0.4601600616E-01    0.1155074181E+00    0.1142153467E-01    0.1077493990E-01    0.1858225806E+00
    0.3900000000E+02    0.4797120960E-01    0.1187885131E+00    0.1177824338E-01    0.1123285028E-01    0.1916483601E+00
    0.4100000000E+02    0.4988788409E-01    0.1219025465E+00    0.1212042625E-01    0.1168174471E-01    0.1972387104E+00
    0.4300000000E+02    0.5176763162E-01    0.1248603088E+00    0.1244902068E-01    0.1212199804E-01    0.2026087884E+00
    0.4500000000E+02    0.5361196140E-01    0.1276716908E+00    0.1276488339E-01    0.1255396337E-01    0.2077724479E+00
    0.4700000000E+02    0.5542229659E-01    0.1303457761E+00    0.1306879897E-01    0.1297797369E-01    0.2127423780E+00
    0.4900000000E+02    0.5719998039E-01    0.1328909224E+00    0.1336148740E-01    0.1339434327E-01    0.2175302240E+00
    0.1000000000E+02    0.1477870493E-01    0.4642965169E-01    0.4438586129E-02    0.3460127733E-02    0.7208209042E-01
    0.3000000000E+02    0.3884380227E-01    0.1025271275E+00    0.1004286838E-01    0.9095268926E-02    0.1633230075E+00
    0.5000000000E+02    0.5807697733E-01    0.1341175742E+00    0.1350383038E-01    0.1359975622E-01    0.2198592455E+00
    0.7000000000E+02    0.7417659781E-01    0.1534643237E+00    0.1589668812E-01    0.1737095950E-01    0.2590714068E+00
    0.9000000000E+02    0.8810077849E-01    0.1658677148E+00    0.1767366540E-01    0.2063306224E-01    0.2882780648E+00
    0.1100000000E+03    0.1004348241E+00    0.1739976193E+00    0.1905974160E-01    0.2352302250E-01    0.3111242087E+00
    0.1300000000E+03    0.1115586774E+00    0.1793420928E+00    0.2018023110E-01    0.2612974823E-01    0.3296422827E+00
    0.1500000000E+03    0.1217310747E+00    0.1827927578E+00    0.2111087007E-01    0.2851378665E-01    0.3450619128E+00
    0.1700000000E+03    0.1311351807E+00    0.1849138297E+00    0.2190035146E-01    0.3071800158E-01    0.3581744644E+00
    0.1900000000E+03    0.1399048876E+00    0.1860779241E+00    0.2258153817E-01    0.3277372692E-01    0.3695145618E+00
    0.2100000000E+03    0.1481407464E+00    0.1865397256E+00    0.2317749397E-01    0.3470449452E-01    0.3794577805E+00
    0.2300000000E+03    0.1559200297E+00    0.1864782971E+00    0.2370493494E-01    0.3652838864E-01    0.3882765888E+00
    0.2500000000E+03    0.1633033153E+00    0.1860225365E+00    0.2417630737E-01    0.3825958660E-01    0.3961740499E+00
    0.2700000000E+03    0.1703389265E+00    0.1852670976E+00    0.2460109300E-01    0.3990939797E-01    0.4033050021E+00
    0.2900000000E+03    0.1770660087E+00    0.1842826799E+00    0.2498665859E-01    0.4148698429E-01    0.4097898552E+00
    0.3100000000E+03    0.1835167083E+00    0.1831228684E+00    0.2533882631E-01    0.4299986914E-01    0.4157238577E+00
    0.3300000000E+03    0.1897177502E+00    0.1818287922E+00    0.2566226702E-01    0.4445430727E-01    0.4211834899E+00
    0.3500000000E+03    0.1956915990E+00    0.1804323674E+00    0.2596077779E-01    0.4585555639E-01    0.4262309784E+00
    0.3700000000E+03    0.2014573296E+00    0.1789585960E+00    0.2623748191E-01    0.4720808079E-01    0.4309175512E+00
    0.3900000000E+03    0.2070312875E+00    0.1774272247E+00    0.2649497560E-01    0.4851570605E-01    0.4352858267E+00
    0.4100000000E+03    0.2124275984E+00    0.1758539596E+00    0.2673543748E-01    0.4978173812E-01    0.4393715982E+00
    0.4300000000E+03    0.2176585645E+00    0.1742513677E+00    0.2696071154E-01    0.5100905624E-01    0.4432051849E+00
    0.4500000000E+03    0.2227349773E+00    0.1726295544E+00    0.2717237064E-01    0.5220018605E-01    0.4468124693E+00
    0.4700000000E+03    0.2276663665E+00    0.1709966787E+00    0.2737176602E-01    0.5335735784E-01    0.4502157040E+00
    0.4900000000E+03    0.2324611996E+00    0.1693593483E+00    0.2756006606E-01    0.5448255336E-01    0.4534341451E+00
    0.1000000000E+03    0.9443925186E-01    0.1703552685E+00    0.1840618342E-01    0.2211816814E-01    0.3003440729E+00
    0.3000000000E+03    0.1803241243E+00    0.1837218794E+00    0.2516660197E-01    0.4225109731E-01    0.4128205532E+00
    0.5000000000E+03    0.2348098040E+00    0.1685407303E+00    0.2765037816E-01    0.5503372084E-01    0.4549793923E+00
    0.7000000000E+03    0.2760981504E+00    0.1527984233E+00    0.2906325771E-01    0.6472596201E-01    0.4793067419E+00
    0.9000000000E+03    0.3091309134E+00    0.1390341029E+00    0.3001075517E-01    0.7248436053E-01    0.4958110773E+00
    0.1100000000E+04    0.3362332462E+00    0.1273404014E+00    0.3070476442E-01    0.7885310127E-01    0.5080204637E+00
    0.1300000000E+04    0.3588120779E+00    0.1174359484E+00    0.3124206378E-01    0.8416151508E-01    0.5175563472E+00
    0.1500000000E+04    0.3778331100E+00    0.1090123325E+00    0.3167422973E-01    0.8863570222E-01    0.5252876313E+00
    0.1700000000E+04    0.3940039228E+00    0.1018017931E+00    0.3203169739E-01    0.9244137125E-01    0.5317296130E+00
    0.1900000000E+04    0.4078619232E+00    0.9558526443E-01    0.3233378057E-01    0.9570441052E-01    0.5372107865E+00
    0.2100000000E+04    0.4198242043E+00    0.9018675872E-01    0.3259342387E-01    0.9852254953E-01    0.5419522432E+00
    0.2300000000E+04    0.4302192424E+00    0.8546547611E-01    0.3281968102E-01    0.1009727727E+00    0.5461092230E+00
    0.2500000000E+04    0.4393085863E+00    0.8130857822E-01    0.3301910501E-01    0.1031163934E+00    0.5497944978E+00
    0.2700000000E+04    0.4473023931E+00    0.7762524205E-01    0.3319657416E-01    0.1050026885E+00    0.5530923076E+00
    0.2900000000E+04    0.4543708778E+00    0.7434195474E-01    0.3335580658E-01    0.1066715782E+00    0.5560670663E+00
    0.3100000000E+04    0.4606529124E+00    0.7139884618E-01    0.3349969338E-01    0.1081556390E+00    0.5587690144E+00
    0.3300000000E+04    0.4662625707E+00    0.6874684498E-01    0.3363052159E-01    0.1094816357E+00    0.5612380119E+00
    0.3500000000E+04    0.4712941608E+00    0.6634547254E-01    0.3375012767E-01    0.1106717002E+00    0.5635061556E+00
    0.3700000000E+04    0.4758261276E+00    0.6416112743E-01    0.3386000576E-01    0.1117442454E+00    0.5655996302E+00
    0.3900000000E+04    0.4799241022E+00    0.6216574548E-01    0.3396138573E-01    0.1127146794E+00    0.5675400449E+00
    0.4100000000E+04    0.4836433010E+00    0.6033574805E-01    0.3405529047E-01    0.1135959681E+00    0.5693454171E+00
    0.4300000000E+04    0.4870304260E+00    0.5865121189E-01    0.3414257865E-01    0.1143990801E+00    0.5710309086E+00
    0.4500000000E+04    0.4901251776E+00    0.5709521031E-01    0.3422397719E-01    0.1151333414E+00    0.5726093849E+00
    0.4700000000E+04    0.4929614682E+00    0.5565328712E-01    0.3430010615E-01    0.1158067200E+00    0.5740918458E+00
    0.4900000000E+04    0.4955684001E+00    0.5431303435E-01    0.3437149815E-01    0.1164260550E+00    0.5754877605E+00
    0.1000000000E+04    0.3233218218E+00    0.1329437207E+00    0.3038188339E-01    0.7581866628E-01    0.5023261403E+00
    0.3000000000E+04    0.4576025558E+00    0.7283116960E-01    0.3342951315E-01    0.1074349185E+00    0.5574494424E+00
    0.5000000000E+04    0.4967938338E+00    0.5367763163E-01    0.3440556414E-01    0.1167173311E+00    0.5761558701E+00
    0.7000000000E+04    0.5138262841E+00    0.4435504585E-01    0.3492296382E-01    0.1207789935E+00    0.5864907660E+00
    0.9000000000E+04    0.5230113170E+00    0.3871772038E-01    0.3525217299E-01    0.1229856731E+00    0.5933002648E+00
    0.1100000000E+05    0.5286570706E+00    0.3486260105E-01    0.3548318125E-01    0.1243527930E+00    0.5982296987E+00
    0.1300000000E+05    0.5324416405E+00    0.3201511883E-01    0.3565558250E-01    0.1252767802E+00    0.6020152460E+00
    0.1500000000E+05    0.5351388831E+00    0.2979961562E-01    0.3578983339E-01    0.1259408816E+00    0.6050429566E+00
    0.1700000000E+05    0.5371505235E+00    0.2801055804E-01    0.3589768556E-01    0.1264404592E+00    0.6075376279E+00
    0.1900000000E+05    0.5387041668E+00    0.2652521693E-01    0.3598642134E-01    0.1268296799E+00    0.6096403259E+00
    0.2100000000E+05    0.5399377264E+00    0.2526530475E-01    0.3606081836E-01    0.1271414508E+00    0.6114446979E+00
    0.2300000000E+05    0.5409393324E+00    0.2417824510E-01    0.3612415402E-01    0.1273968570E+00    0.6130157064E+00
    0.2500000000E+05    0.5417677827E+00    0.2322724540E-01    0.3617875861E-01    0.1276100041E+00    0.6144000362E+00
    0.2700000000E+05    0.5424637292E+00    0.2238567888E-01    0.3622633859E-01    0.1277906717E+00    0.6156322259E+00
    0.2900000000E+05    0.5430561326E+00    0.2163373046E-01    0.3626817486E-01    0.1279458465E+00    0.6167384570E+00
    0.3100000000E+05    0.5435661577E+00    0.2095630312E-01    0.3630524928E-01    0.1280806489E+00    0.6177389897E+00
    0.3300000000E+05    0.5440096158E+00    0.2034166111E-01    0.3633832818E-01    0.1281989153E+00    0.6186497836E+00
    0.3500000000E+05    0.5443985471E+00    0.1978052191E-01    0.3636801915E-01    0.1283035757E+00    0.6194836060E+00
    0.3700000000E+05    0.5447422757E+00    0.1926543158E-01    0.3639481065E-01    0.1283969055E+00    0.6202508103E+00
    0.3900000000E+05    0.5450481304E+00    0.1879032441E-01    0.3641910013E-01    0.1284806987E+00    0.6209598934E+00
    0.4100000000E+05    0.5453219486E+00    0.1835020592E-01    0.3644121459E-01    0.1285563884E+00    0.6216179036E+00
    0.4300000000E+05    0.5455684355E+00    0.1794092020E-01    0.3646142569E-01    0.1286251331E+00    0.6222307442E+00
    0.4500000000E+05    0.5457914243E+00    0.1755897641E-01    0.3647996108E-01    0.1286878796E+00    0.6228034023E+00
    0.4700000000E+05    0.5459940687E+00    0.1720141728E-01    0.3649701312E-01    0.1287454092E+00    0.6233401240E+00
    0.4900000000E+05    0.5461789858E+00    0.1686571816E-01    0.3651274550E-01    0.1287983720E+00    0.6238445509E+00
    0.1000000000E+05    0.5261400151E+00    0.3662962686E-01    0.3537682989E-01    0.1237419304E+00    0.5959421827E+00
    0.3000000000E+05    0.5433203505E+00    0.2128650158E-01    0.3628725512E-01    0.1280155295E+00    0.6172508523E+00
    0.5000000000E+05    0.5462654954E+00    0.1670537576E-01    0.3652016143E-01    0.1288233150E+00    0.6240856531E+00
    0.7000000000E+05    0.5474470165E+00    0.1424972307E-01    0.3662461400E-01    0.1291781567E+00    0.6277897681E+00
    0.9000000000E+05    0.5480752619E+00    0.1265371298E-01    0.3668128470E-01    0.1293838025E+00    0.6302065569E+00
    0.1100000000E+06    0.5484613769E+00    0.1150744014E-01    0.3671497299E-01    0.1295210301E+00    0.6319460179E+00
    0.1300000000E+06    0.5487206989E+00    0.1063173951E-01    0.3673592624E-01    0.1296207700E+00    0.6332769600E+00
    0.1500000000E+06    0.5489056361E+00    0.9933970483E-02    0.3674915639E-01    0.1296975261E+00    0.6343389030E+00
    0.1700000000E+06    0.5490433581E+00    0.9360694253E-02    0.3675740132E-01    0.1297590531E+00    0.6352124856E+00
    0.1900000000E+06    0.5491493231E+00    0.8878602533E-02    0.3676227886E-01    0.1298098979E+00    0.6359480251E+00
    0.2100000000E+06    0.5492329576E+00    0.8465695779E-02    0.3676480285E-01    0.1298529167E+00    0.6365787772E+00
    0.2300000000E+06    0.5493003273E+00    0.8106773658E-02    0.3676563828E-01    0.1298900018E+00    0.6371277295E+00
    0.2500000000E+06    0.5493555071E+00    0.7790947414E-02    0.3676523748E-01    0.1299224610E+00    0.6376113539E+00
    0.2700000000E+06    0.5494013323E+00    0.7510182454E-02    0.3676391738E-01    0.1299512306E+00    0.6380418078E+00
    0.2900000000E+06    0.5494398344E+00    0.7258401745E-02    0.3676190559E-01    0.1299770000E+00    0.6384282883E+00
    0.3100000000E+06    0.5494725055E+00    0.7030911427E-02    0.3675936893E-01    0.1300002900E+00    0.6387779005E+00
    0.3300000000E+06    0.5495004652E+00    0.6824020058E-02    0.3675643186E-01    0.1300215016E+00    0.6390962334E+00
    0.3500000000E+06    0.5495245693E+00    0.6634778736E-02    0.3675318858E-01    0.1300409499E+00    0.6393877522E+00
    0.3700000000E+06    0.5495454824E+00    0.6460799167E-02    0.3674971137E-01    0.1300588858E+00    0.6396560744E+00
    0.3900000000E+06    0.5495637282E+00    0.6300123479E-02    0.3674605623E-01    0.1300755126E+00    0.6399041660E+00
    0.4100000000E+06    0.5495797245E+00    0.6151129202E-02    0.3674226701E-01    0.1300909964E+00    0.6401344852E+00
    0.4300000000E+06    0.5495938088E+00    0.6012458725E-02    0.3673837831E-01    0.1301054748E+00    0.6403490898E+00
    0.4500000000E+06    0.5496062559E+00    0.5882966094E-02    0.3673441760E-01    0.1301190628E+00    0.6405497169E+00
    0.4700000000E+06    0.5496172923E+00    0.5761676327E-02    0.3673040686E-01    0.1301318574E+00    0.6407378450E+00
    0.4900000000E+06    0.5496271056E+00    0.5647753905E-02    0.3672636370E-01    0.1301439412E+00    0.6409147412E+00
    0.1000000000E+06    0.5482891428E+00    0.1203849259E-01    0.3670018093E-01    0.1294584569E+00    0.6311397770E+00
    0.3000000000E+06    0.5494568216E+00    0.7141870988E-02    0.3676069426E-01    0.1299889275E+00    0.6386073234E+00
    0.5000000000E+06    0.5496316038E+00    0.5593326300E-02    0.3672433453E-01    0.1301497390E+00    0.6409993250E+00
    0.7000000000E+06    0.5496846985E+00    0.4759271050E-02    0.3668432953E-01    0.1302412240E+00    0.6423021429E+00
    0.9000000000E+06    0.5497023838E+00    0.4217561668E-02    0.3664753991E-01    0.1303044480E+00    0.6431568070E+00
    0.1100000000E+07    0.5497061782E+00    0.3829157911E-02    0.3661445170E-01    0.1303525340E+00    0.6437751775E+00
    0.1300000000E+07    0.5497036529E+00    0.3532971414E-02    0.3658464314E-01    0.1303912467E+00    0.6442506709E+00
    0.1500000000E+07    0.5496980245E+00    0.3297368265E-02    0.3655760978E-01    0.1304236062E+00    0.6446318342E+00
    0.1700000000E+07    0.5496908317E+00    0.3104100061E-02    0.3653291242E-01    0.1304513844E+00    0.6449467703E+00
    0.1900000000E+07    0.5496828710E+00    0.2941799346E-02    0.3651019288E-01    0.1304757070E+00    0.6452130445E+00
    0.2100000000E+07    0.5496745779E+00    0.2802964651E-02    0.3648916297E-01    0.1304973323E+00    0.6454422861E+00
    0.2300000000E+07    0.5496661984E+00    0.2682418033E-02    0.3646959026E-01    0.1305167950E+00    0.6456425480E+00
    0.2500000000E+07    0.5496578746E+00    0.2576454052E-02    0.3645128573E-01    0.1305344857E+00    0.6458196106E+00
    0.2700000000E+07    0.5496496884E+00    0.2482341304E-02    0.3643409420E-01    0.1305506985E+00    0.6459777477E+00
    0.2900000000E+07    0.5496416862E+00    0.2398015899E-02    0.3641788694E-01    0.1305656601E+00    0.6461201977E+00
    0.3100000000E+07    0.5496338926E+00    0.2321885208E-02    0.3640255617E-01    0.1305795489E+00    0.6462494668E+00
    0.3300000000E+07    0.5496263193E+00    0.2252697847E-02    0.3638801081E-01    0.1305925079E+00    0.6463675294E+00
    0.3500000000E+07    0.5496189694E+00    0.2189455008E-02    0.3637417325E-01    0.1306046533E+00    0.6464759658E+00
    0.3700000000E+07    0.5496118410E+00    0.2131348422E-02    0.3636097681E-01    0.1306160808E+00    0.6465760578E+00
    0.3900000000E+07    0.5496049292E+00    0.2077715995E-02    0.3634836384E-01    0.1306268703E+00    0.6466688583E+00
    0.4100000000E+07    0.5495982271E+00    0.2028009461E-02    0.3633628416E-01    0.1306370892E+00    0.6467552412E+00
    0.4300000000E+07    0.5495917268E+00    0.1981770370E-02    0.3632469379E-01    0.1306467945E+00    0.6468359392E+00
    0.4500000000E+07    0.5495854200E+00    0.1938612003E-02    0.3631355400E-01    0.1306560352E+00    0.6469115714E+00
    0.4700000000E+07    0.5495792981E+00    0.1898205545E-02    0.3630283052E-01    0.1306648538E+00    0.6469826658E+00
    0.4900000000E+07    0.5495733527E+00    0.1860269381E-02    0.3629249286E-01    0.1306732870E+00    0.6470496754E+00
    0.1000000000E+07    0.5497053877E+00    0.4009012329E-02    0.3663055383E-01    0.1303299298E+00    0.6434881719E+00
    0.3000000000E+07    0.5496377623E+00    0.2359011226E-02    0.3641011803E-01    0.1305727290E+00    0.6461863459E+00
    0.5000000000E+07    0.5495704436E+00    0.1842150464E-02    0.3628746008E-01    0.1306773693E+00    0.6470817729E+00
    0.7000000000E+07    0.5495197200E+00    0.1564942762E-02    0.3620174831E-01    0.1307448459E+00    0.6475813429E+00
    0.9000000000E+07    0.5494795145E+00    0.1385358612E-02    0.3613563908E-01    0.1307947251E+00    0.6479153623E+00
    0.1100000000E+08    0.5494463003E+00    0.1256823868E-02    0.3608174028E-01    0.1308343070E+00    0.6481609282E+00
    0.1300000000E+08    0.5494180295E+00    0.1158934994E-02    0.3603619894E-01    0.1308671223E+00    0.6483523965E+00
    0.1500000000E+08    0.5493934289E+00    0.1081148538E-02    0.3599674628E-01    0.1308951495E+00    0.6485077866E+00
    0.1700000000E+08    0.5493716578E+00    0.1017392323E-02    0.3596193138E-01    0.1309196092E+00    0.6486376153E+00
    0.1900000000E+08    0.5493521335E+00    0.9638888009E-03    0.3593076912E-01    0.1309413077E+00    0.6487485054E+00
    0.2100000000E+08    0.5493344359E+00    0.9181478638E-03    0.3590255952E-01    0.1309608056E+00    0.6488448719E+00
    0.2300000000E+08    0.5493182525E+00    0.8784522897E-03    0.3587678708E-01    0.1309785084E+00    0.6489297915E+00
    0.2500000000E+08    0.5493033444E+00    0.8435741832E-03    0.3585306101E-01    0.1309947189E+00    0.6490054859E+00
    0.2700000000E+08    0.5492895253E+00    0.8126090538E-03    0.3583107793E-01    0.1310096693E+00    0.6490736070E+00
