  Pressure (Pa) 22mC5-400 (mol/kg) 2mC6-400 (mol/kg) 3mC6-400 (mol/kg) 23mC5-400 (mol/kg) C7-400 (mol/kg)
    0.1000000000E+01    0.1589444609E-02    0.3126557455E-02    0.1033792184E-02    0.9302964595E-04    0.1677697553E-01
    0.3000000000E+01    0.4716102243E-02    0.8894390207E-02    0.2927113619E-02    0.2760338555E-03    0.4751606442E-01
    0.5000000000E+01    0.7775480131E-02    0.1410069561E-01    0.4619466845E-02    0.4551027812E-03    0.7500816988E-01
    0.7000000000E+01    0.1077027608E-01    0.1882945906E-01    0.6141728654E-02    0.6303942006E-03    0.9975138434E-01
    0.9000000000E+01    0.1370304092E-01    0.2314812419E-01    0.7518733636E-02    0.8020572974E-03    0.1221464052E+00
    0.1100000000E+02    0.1657618851E-01    0.2711150310E-01    0.8770684957E-02    0.9702332428E-03    0.1425192646E+00
    0.1300000000E+02    0.1939200478E-01    0.3076462804E-01    0.9914187356E-02    0.1135055729E-02    0.1611379745E+00
    0.1500000000E+02    0.2215265620E-01    0.3414486382E-01    0.1096301536E-01    0.1296651463E-02    0.1782249067E+00
    0.1700000000E+02    0.2486019755E-01    0.3728349493E-01    0.1192869266E-01    0.1455140617E-02    0.1939661308E+00
    0.1900000000E+02    0.2751657903E-01    0.4020693347E-01    0.1282093465E-01    0.1610637250E-02    0.2085185476E+00
    0.2100000000E+02    0.3012365293E-01    0.4293764930E-01    0.1364799051E-01    0.1763249694E-02    0.2220154034E+00
    0.2300000000E+02    0.3268317969E-01    0.4549489428E-01    0.1441691029E-01    0.1913080911E-02    0.2345705966E+00
    0.2500000000E+02    0.3519683362E-01    0.4789527169E-01    0.1513375573E-01    0.2060228824E-02    0.2462820770E+00
    0.2700000000E+02    0.3766620812E-01    0.5015318823E-01    0.1580376801E-01    0.2204786625E-02    0.2572345503E+00
    0.2900000000E+02    0.4009282056E-01    0.5228121578E-01    0.1643150240E-01    0.2346843061E-02    0.2675016513E+00
    0.3100000000E+02    0.4247811677E-01    0.5429038346E-01    0.1702093729E-01    0.2486482694E-02    0.2771477007E+00
    0.3300000000E+02    0.4482347530E-01    0.5619041496E-01    0.1757556295E-01    0.2623786152E-02    0.2862291382E+00
    0.3500000000E+02    0.4713021128E-01    0.5798992298E-01    0.1809845442E-01    0.2758830352E-02    0.2947956982E+00
    0.3700000000E+02    0.4939958006E-01    0.5969656941E-01    0.1859233168E-01    0.2891688719E-02    0.3028913805E+00
    0.3900000000E+02    0.5163278066E-01    0.6131719828E-01    0.1905960965E-01    0.3022431379E-02    0.3105552575E+00
    0.4100000000E+02    0.5383095882E-01    0.6285794656E-01    0.1950243995E-01    0.3151125346E-02    0.3178221474E+00
    0.4300000000E+02    0.5599521006E-01    0.6432433717E-01    0.1992274596E-01    0.3277834694E-02    0.3247231813E+00
    0.4500000000E+02    0.5812658238E-01    0.6572135744E-01    0.2032225245E-01    0.3402620720E-02    0.3312862802E+00
    0.4700000000E+02    0.6022607884E-01    0.6705352552E-01    0.2070251065E-01    0.3525542091E-02    0.3375365608E+00
    0.4900000000E+02    0.6229465997E-01    0.6832494704E-01    0.2106491966E-01    0.3646654990E-02    0.3434966805E+00
    0.1000000000E+02    0.1514692111E-01    0.2517120845E-01    0.8159228949E-02    0.8865726389E-03    0.1325676570E+00
    0.3000000000E+02    0.4129054550E-01    0.5330002125E-01    0.1673077863E-01    0.2416959849E-02    0.2723986101E+00
    0.5000000000E+02    0.6331764638E-01    0.6893906009E-01    0.2123983088E-01    0.3706550170E-02    0.3463744116E+00
    0.7000000000E+02    0.8235882101E-01    0.7878688758E-01    0.2405200221E-01    0.4821470175E-02    0.3927631129E+00
    0.9000000000E+02    0.9915111695E-01    0.8535137394E-01    0.2598801124E-01    0.5804830156E-02    0.4248673773E+00
    0.1100000000E+03    0.1141968393E+00    0.8984056042E-01    0.2740982074E-01    0.6686011237E-02    0.4485652766E+00
    0.1300000000E+03    0.1278509987E+00    0.9292775982E-01    0.2850268514E-01    0.7485779579E-02    0.4668708633E+00
    0.1500000000E+03    0.1403722435E+00    0.9502477758E-01    0.2937162580E-01    0.8219265086E-02    0.4814959625E+00
    0.1700000000E+03    0.1519539335E+00    0.9640000938E-01    0.3008080803E-01    0.8897778835E-02    0.4934883558E+00
    0.1900000000E+03    0.1627438566E+00    0.9723663457E-01    0.3067174684E-01    0.9529966259E-02    0.5035271749E+00
    0.2100000000E+03    0.1728571650E+00    0.9766412458E-01    0.3117254722E-01    0.1012256376E-01    0.5120729961E+00
    0.2300000000E+03    0.1823851110E+00    0.9777654508E-01    0.3160294778E-01    0.1068090969E-01    0.5194498557E+00
    0.2500000000E+03    0.1914010983E+00    0.9764377894E-01    0.3197723916E-01    0.1120929831E-01    0.5258927600E+00
    0.2700000000E+03    0.1999649674E+00    0.9731870965E-01    0.3230603573E-01    0.1171123045E-01    0.5315765581E+00
    0.2900000000E+03    0.2081260916E+00    0.9684198245E-01    0.3259739521E-01    0.1218959462E-01    0.5366342079E+00
    0.3100000000E+03    0.2159256532E+00    0.9624525233E-01    0.3285755076E-01    0.1264680015E-01    0.5411687324E+00
    0.3300000000E+03    0.2233983436E+00    0.9555345460E-01    0.3309140392E-01    0.1308487663E-01    0.5452612799E+00
    0.3500000000E+03    0.2305736521E+00    0.9478642587E-01    0.3330286523E-01    0.1350554933E-01    0.5489766969E+00
    0.3700000000E+03    0.2374768550E+00    0.9396008232E-01    0.3349509471E-01    0.1391029706E-01    0.5523674701E+00
    0.3900000000E+03    0.2441297842E+00    0.9308729020E-01    0.3367067532E-01    0.1430039710E-01    0.5554765697E+00
    0.4100000000E+03    0.2505514310E+00    0.9217851800E-01    0.3383174006E-01    0.1467696055E-01    0.5583395370E+00
    0.4300000000E+03    0.2567584248E+00    0.9124233136E-01    0.3398006680E-01    0.1504096034E-01    0.5609860423E+00
    0.4500000000E+03    0.2627654165E+00    0.9028577294E-01    0.3411714987E-01    0.1539325363E-01    0.5634410631E+00
    0.4700000000E+03    0.2685853885E+00    0.8931465704E-01    0.3424425498E-01    0.1573459996E-01    0.5657257882E+00
    0.4900000000E+03    0.2742299061E+00    0.8833380027E-01    0.3436246173E-01    0.1606567600E-01    0.5678583184E+00
    0.1000000000E+03    0.1068673819E+00    0.8780511211E-01    0.2674902770E-01    0.6256735512E-02    0.4375368133E+00
    0.3000000000E+03    0.2120687642E+00    0.9655692337E-01    0.3273104050E-01    0.1242070745E-01    0.5389613513E+00
    0.5000000000E+03    0.2769896479E+00    0.8784099707E-01    0.3441852305E-01    0.1622755447E-01    0.5688724604E+00
    0.7000000000E+03    0.3250070685E+00    0.7814711977E-01    0.3524109890E-01    0.1904493284E-01    0.5840026962E+00
    0.9000000000E+03    0.3628509092E+00    0.6947696792E-01    0.3573372328E-01    0.2126659169E-01    0.5933712746E+00
    0.1100000000E+04    0.3936204539E+00    0.6205713091E-01    0.3606338687E-01    0.2307387615E-01    0.5998380351E+00
    0.1300000000E+04    0.4191202954E+00    0.5577255684E-01    0.3629997922E-01    0.2457239179E-01    0.6046170843E+00
    0.1500000000E+04    0.4405438977E+00    0.5044941750E-01    0.3647816504E-01    0.2583199450E-01    0.6083187298E+00
    0.1700000000E+04    0.4587393992E+00    0.4592304249E-01    0.3661718372E-01    0.2690233865E-01    0.6112860391E+00
    0.1900000000E+04    0.4743359366E+00    0.4205315653E-01    0.3672860785E-01    0.2782026574E-01    0.6137278935E+00
    0.2100000000E+04    0.4878132228E+00    0.3872454464E-01    0.3681983329E-01    0.2861387365E-01    0.6157793510E+00
    0.2300000000E+04    0.4995441316E+00    0.3584382037E-01    0.3689581603E-01    0.2930500738E-01    0.6175319333E+00
    0.2500000000E+04    0.5098227339E+00    0.3333555800E-01    0.3696000607E-01    0.2991089903E-01    0.6190500429E+00
    0.2700000000E+04    0.5188836933E+00    0.3113877403E-01    0.3701488155E-01    0.3044530245E-01    0.6203804247E+00
    0.2900000000E+04    0.5269161501E+00    0.2920399448E-01    0.3706226985E-01    0.3091930566E-01    0.6215578978E+00
    0.3100000000E+04    0.5340739055E+00    0.2749089737E-01    0.3710354886E-01    0.3134192682E-01    0.6226089752E+00
    0.3300000000E+04    0.5404830273E+00    0.2596644741E-01    0.3713977768E-01    0.3172055941E-01    0.6235542313E+00
    0.3500000000E+04    0.5462476126E+00    0.2460342978E-01    0.3717178408E-01    0.3206130963E-01    0.6244098968E+00
    0.3700000000E+04    0.5514542047E+00    0.2337929882E-01    0.3720022460E-01    0.3236925497E-01    0.6251889619E+00
    0.3900000000E+04    0.5561752132E+00    0.2227527303E-01    0.3722562672E-01    0.3264864454E-01    0.6259019576E+00
    0.4100000000E+04    0.5604715862E+00    0.2127562115E-01    0.3724841920E-01    0.3290305553E-01    0.6265575187E+00
    0.4300000000E+04    0.5643949145E+00    0.2036709693E-01    0.3726895417E-01    0.3313551653E-01    0.6271627980E+00
    0.4500000000E+04    0.5679891014E+00    0.1953848945E-01    0.3728752354E-01    0.3334860534E-01    0.6277237757E+00
    0.4700000000E+04    0.5712916969E+00    0.1878026356E-01    0.3730437136E-01    0.3354452713E-01    0.6282454936E+00
    0.4900000000E+04    0.5743349703E+00    0.1808427103E-01    0.3731970327E-01    0.3372517731E-01    0.6287322349E+00
    0.1000000000E+04    0.3789880885E+00    0.6561505762E-01    0.3591334763E-01    0.2221431347E-01    0.5968708472E+00
    0.3000000000E+04    0.5305959114E+00    0.2832195220E-01    0.3708360054E-01    0.3113654322E-01    0.6220978325E+00
    0.5000000000E+04    0.5757682188E+00    0.1775738683E-01    0.3732685633E-01    0.3381029591E-01    0.6289636553E+00
    0.7000000000E+04    0.5959047455E+00    0.1322295958E-01    0.3742143999E-01    0.3500981106E-01    0.6324188366E+00
    0.9000000000E+04    0.6069823182E+00    0.1076356682E-01    0.3746574884E-01    0.3567421753E-01    0.6345716766E+00
    0.1100000000E+05    0.6138993532E+00    0.9226735690E-02    0.3748764082E-01    0.3609205476E-01    0.6360717639E+00
    0.1300000000E+05    0.6185958963E+00    0.8172784935E-02    0.3749793272E-01    0.3637784666E-01    0.6371918708E+00
    0.1500000000E+05    0.6219792079E+00    0.7401504637E-02    0.3750164310E-01    0.3658526905E-01    0.6380685600E+00
    0.1700000000E+05    0.6245258580E+00    0.6809665262E-02    0.3750138583E-01    0.3674258137E-01    0.6387785446E+00
    0.1900000000E+05    0.6265085979E+00    0.6338919464E-02    0.3749863750E-01    0.3686599488E-01    0.6393685884E+00
    0.2100000000E+05    0.6280941527E+00    0.5953876932E-02    0.3749428379E-01    0.3696544269E-01    0.6398689983E+00
    0.2300000000E+05    0.6293898890E+00    0.5631839608E-02    0.3748888080E-01    0.3704733699E-01    0.6403003743E+00
    0.2500000000E+05    0.6304679327E+00    0.5357576823E-02    0.3748279033E-01    0.3711599588E-01    0.6406772634E+00
    0.2700000000E+05    0.6313784587E+00    0.5120480395E-02    0.3747625447E-01    0.3717443077E-01    0.6410102646E+00
    0.2900000000E+05    0.6321574124E+00    0.4912927209E-02    0.3746943882E-01    0.3722480445E-01    0.6413073046E+00
    0.3100000000E+05    0.6328311972E+00    0.4729291952E-02    0.3746245862E-01    0.3726870961E-01    0.6415744445E+00
    0.3300000000E+05    0.6334196305E+00    0.4565327873E-02    0.3745539516E-01    0.3730734472E-01    0.6418164076E+00
    0.3500000000E+05    0.6339378688E+00    0.4417764952E-02    0.3744830626E-01    0.3734162870E-01    0.6420369359E+00
    0.3700000000E+05    0.6343976963E+00    0.4284041350E-02    0.3744123332E-01    0.3737227790E-01    0.6422390374E+00
    0.3900000000E+05    0.6348084104E+00    0.4162119218E-02    0.3743420602E-01    0.3739985891E-01    0.6424251607E+00
    0.4100000000E+05    0.6351774426E+00    0.4050355445E-02    0.3742724557E-01    0.3742482583E-01    0.6425973222E+00
    0.4300000000E+05    0.6355108024E+00    0.3947409100E-02    0.3742036701E-01    0.3744754681E-01    0.6427571993E+00
    0.4500000000E+05    0.6358134014E+00    0.3852173927E-02    0.3741358083E-01    0.3746832350E-01    0.6429062001E+00
    0.4700000000E+05    0.6360892917E+00    0.3763728299E-02    0.3740689416E-01    0.3748740547E-01    0.6430455165E+00
    0.4900000000E+05    0.6363418462E+00    0.3681297562E-02    0.3740031161E-01    0.3750500094E-01    0.6431761652E+00
    0.1000000000E+05    0.6108036081E+00    0.9915761426E-02    0.3747861786E-01    0.3590467726E-01    0.6353815913E+00
    0.3000000000E+05    0.6325060844E+00    0.4818412056E-02    0.3746596356E-01    0.3724748303E-01    0.6414442904E+00
    0.5000000000E+05    0.6364602749E+00    0.3642128677E-02    0.3739706030E-01    0.3751329709E-01    0.6432385170E+00
    0.7000000000E+05    0.6380994150E+00    0.3057390816E-02    0.3733759708E-01    0.3763201146E-01    0.6441896260E+00
    0.9000000000E+05    0.6389940690E+00    0.2690796452E-02    0.3728741888E-01    0.3770144015E-01    0.6448048435E+00
    0.1100000000E+06    0.6395569935E+00    0.2433007747E-02    0.3724435305E-01    0.3774804127E-01    0.6452462339E+00
    0.1300000000E+06    0.6399435761E+00    0.2238790287E-02    0.3720671532E-01    0.3778204999E-01    0.6455838100E+00
    0.1500000000E+06    0.6402253078E+00    0.2085557563E-02    0.3717331266E-01    0.3780830016E-01    0.6458534472E+00
    0.1700000000E+06    0.6404396531E+00    0.1960592533E-02    0.3714329328E-01    0.3782938988E-01    0.6460756980E+00
    0.1900000000E+06    0.6406081357E+00    0.1856108588E-02    0.3711603428E-01    0.3784684898E-01    0.6462633055E+00
    0.2100000000E+06    0.6407439993E+00    0.1767032548E-02    0.3709106857E-01    0.3786164165E-01    0.6464246530E+00
    0.2300000000E+06    0.6408558394E+00    0.1689896855E-02    0.3706803771E-01    0.3787440844E-01    0.6465655156E+00
    0.2500000000E+06    0.6409494772E+00    0.1622239238E-02    0.3704666099E-01    0.3788559318E-01    0.6466900209E+00
    0.2700000000E+06    0.6410289951E+00    0.1562256012E-02    0.3702671461E-01    0.3789551417E-01    0.6468012098E+00
    0.2900000000E+06    0.6410973408E+00    0.1508591292E-02    0.3700801736E-01    0.3790440629E-01    0.6469013795E+00
    0.3100000000E+06    0.6411566959E+00    0.1460203279E-02    0.3699042044E-01    0.3791244711E-01    0.6469923032E+00
    0.3300000000E+06    0.6412087091E+00    0.1416276374E-02    0.3697380024E-01    0.3791977372E-01    0.6470753749E+00
    0.3500000000E+06    0.6412546500E+00    0.1376161621E-02    0.3695805292E-01    0.3792649380E-01    0.6471517079E+00
    0.3700000000E+06    0.6412955117E+00    0.1339335272E-02    0.3694309039E-01    0.3793269335E-01    0.6472222040E+00
    0.3900000000E+06    0.6413320824E+00    0.1305369309E-02    0.3692883735E-01    0.3793844195E-01    0.6472876028E+00
    0.4100000000E+06    0.6413649956E+00    0.1273910027E-02    0.3691522886E-01    0.3794379661E-01    0.6473485174E+00
    0.4300000000E+06    0.6413947661E+00    0.1244662206E-02    0.3690220853E-01    0.3794880456E-01    0.6474054611E+00
    0.4500000000E+06    0.6414218167E+00    0.1217377219E-02    0.3688972710E-01    0.3795350532E-01    0.6474588676E+00
    0.4700000000E+06    0.6414464978E+00    0.1191843976E-02    0.3687774129E-01    0.3795793225E-01    0.6475091059E+00
    0.4900000000E+06    0.6414691022E+00    0.1167881925E-02    0.3686621284E-01    0.3796211372E-01    0.6475564930E+00
    0.1000000000E+06    0.6393043190E+00    0.2551909214E-02    0.3726511553E-01    0.3772676477E-01    0.6450417290E+00
    0.3000000000E+06    0.6411280288E+00    0.1483793167E-02    0.3699908960E-01    0.3790852375E-01    0.6469479024E+00
    0.5000000000E+06    0.6414797043E+00    0.1156440656E-02    0.3686060936E-01    0.3796412016E-01    0.6475792041E+00
    0.7000000000E+06    0.6416261980E+00    0.9816451654E-03    0.3676599526E-01    0.3799578852E-01    0.6479340310E+00
    0.9000000000E+06    0.6417051919E+00    0.8686232108E-03    0.3669392426E-01    0.3801767521E-01    0.6481731513E+00
    0.1100000000E+07    0.6417538770E+00    0.7878159643E-03    0.3663564587E-01    0.3803431692E-01    0.6483502587E+00
    0.1300000000E+07    0.6417864448E+00    0.7263174468E-03    0.3658669582E-01    0.3804770974E-01    0.6484892965E+00
    0.1500000000E+07    0.6418094678E+00    0.6774716993E-03    0.3654448296E-01    0.3805890028E-01    0.6486028452E+00
    0.1700000000E+07    0.6418263987E+00    0.6374504315E-03    0.3650736752E-01    0.3806850291E-01    0.6486982644E+00
    0.1900000000E+07    0.6418392203E+00    0.6038742483E-03    0.3647424526E-01    0.3807690796E-01    0.6487802001E+00
    0.2100000000E+07    0.6418491504E+00    0.5751757789E-03    0.3644433665E-01    0.3808437845E-01    0.6488517577E+00
    0.2300000000E+07    0.6418569761E+00    0.5502747232E-03    0.3641707075E-01    0.3809109976E-01    0.6489151069E+00
    0.2500000000E+07    0.6418632281E+00    0.5283989513E-03    0.3639201671E-01    0.3809720737E-01    0.6489718185E+00
    0.2700000000E+07    0.6418682765E+00    0.5089799007E-03    0.3636884136E-01    0.3810280324E-01    0.6490230634E+00
    0.2900000000E+07    0.6418723866E+00    0.4915883507E-03    0.3634728170E-01    0.3810796596E-01    0.6490697360E+00
    0.3100000000E+07    0.6418757536E+00    0.4758933534E-03    0.3632712645E-01    0.3811275739E-01    0.6491125332E+00
    0.3300000000E+07    0.6418785237E+00    0.4616350579E-03    0.3630820333E-01    0.3811722706E-01    0.6491520085E+00
    0.3500000000E+07    0.6418808085E+00    0.4486061933E-03    0.3629036997E-01    0.3812141526E-01    0.6491886077E+00
    0.3700000000E+07    0.6418826948E+00    0.4366391256E-03    0.3627350738E-01    0.3812535518E-01    0.6492226948E+00
    0.3900000000E+07    0.6418842506E+00    0.4255966098E-03    0.3625751510E-01    0.3812907446E-01    0.6492545709E+00
    0.4100000000E+07    0.6418855302E+00    0.4153650501E-03    0.3624230751E-01    0.3813259641E-01    0.6492844872E+00
    0.4300000000E+07    0.6418865772E+00    0.4058495021E-03    0.3622781103E-01    0.3813594083E-01    0.6493126557E+00
    0.4500000000E+07    0.6418874271E+00    0.3969699091E-03    0.3621396203E-01    0.3813912470E-01    0.6493392567E+00
    0.4700000000E+07    0.6418881090E+00    0.3886582265E-03    0.3620070503E-01    0.3814216266E-01    0.6493644446E+00
    0.4900000000E+07    0.6418886469E+00    0.3808561983E-03    0.3618799141E-01    0.3814506745E-01    0.6493883528E+00
    0.1000000000E+07    0.6417321677E+00    0.8252114701E-03    0.3666340067E-01    0.3802649474E-01    0.6482675768E+00
    0.3000000000E+07    0.6418741529E+00    0.4835464399E-03    0.3633704008E-01    0.3811040474E-01    0.6490915815E+00
    0.5000000000E+07    0.6418888682E+00    0.3771303401E-03    0.3618182477E-01    0.3814647345E-01    0.6493998638E+00
    0.7000000000E+07    0.6418891889E+00    0.3201683217E-03    0.3607884931E-01    0.3816970051E-01    0.6495844189E+00
    0.9000000000E+07    0.6418859630E+00    0.2833073454E-03    0.3600165362E-01    0.3818685516E-01    0.6497142881E+00
    0.1100000000E+08    0.6418817049E+00    0.2569441393E-03    0.3593987773E-01    0.3820045986E-01    0.6498136871E+00
    0.1300000000E+08    0.6418772091E+00    0.2368774083E-03    0.3588837562E-01    0.3821173348E-01    0.6498938034E+00
    0.1500000000E+08    0.6418727645E+00    0.2209382171E-03    0.3584421337E-01    0.3822135852E-01    0.6499606827E+00
    0.1700000000E+08    0.6418684801E+00    0.2078783278E-03    0.3580555849E-01    0.3822975583E-01    0.6500179453E+00
    0.1900000000E+08    0.6418643933E+00    0.1969216402E-03    0.3577118932E-01    0.3823720325E-01    0.6500679230E+00
    0.2100000000E+08    0.6418605110E+00    0.1875567958E-03    0.3574025047E-01    0.3824389388E-01    0.6501122020E+00
    0.2300000000E+08    0.6418568272E+00    0.1794312890E-03    0.3571211955E-01    0.3824996734E-01    0.6501519077E+00
    0.2500000000E+08    0.6418533304E+00    0.1722931448E-03    0.3568632957E-01    0.3825552789E-01    0.6501878667E+00
    0.2700000000E+08    0.6418500073E+00    0.1659568066E-03    0.3566252116E-01    0.3826065540E-01    0.6502207030E+00
