  Pressure (Pa) 22mC5-400 (mol/kg) 2mC6-400 (mol/kg) 3mC6-400 (mol/kg) 23mC5-400 (mol/kg) C7-400 (mol/kg)
    0.1000000000E+01    0.1590382554E-02    0.1590695159E-02    0.3167641147E-02    0.7446764618E-03    0.1713369391E-02
    0.3000000000E+01    0.4724262840E-02    0.4674360119E-02    0.9333511835E-02    0.2212093005E-02    0.5048887111E-02
    0.5000000000E+01    0.7797400933E-02    0.7633486702E-02    0.1528369174E-01    0.3651089463E-02    0.8268256389E-02
    0.7000000000E+01    0.1081183652E-01    0.1047457494E-01    0.2102964628E-01    0.5062620000E-02    0.1137764220E-01
    0.9000000000E+01    0.1376951668E-01    0.1320368728E-01    0.2658203658E-01    0.6447595457E-02    0.1438277739E-01
    0.1100000000E+02    0.1667230103E-01    0.1582648498E-01    0.3195078892E-01    0.7806885780E-02    0.1728899995E-01
    0.1300000000E+02    0.1952196663E-01    0.1834826096E-01    0.3714515715E-01    0.9141322279E-02    0.2010128654E-01
    0.1500000000E+02    0.2232021245E-01    0.2077396933E-01    0.4217377874E-01    0.1045169975E-01    0.2282428260E-01
    0.1700000000E+02    0.2506866364E-01    0.2310825223E-01    0.4704472546E-01    0.1173877845E-01    0.2546232959E-01
    0.1900000000E+02    0.2776887548E-01    0.2535546407E-01    0.5176554900E-01    0.1300328597E-01    0.2801948944E-01
    0.2100000000E+02    0.3042233709E-01    0.2751969351E-01    0.5634332233E-01    0.1424591893E-01    0.3049956682E-01
    0.2300000000E+02    0.3303047490E-01    0.2960478348E-01    0.6078467714E-01    0.1546734464E-01    0.3290612921E-01
    0.2500000000E+02    0.3559465595E-01    0.3161434940E-01    0.6509583780E-01    0.1666820264E-01    0.3524252520E-01
    0.2700000000E+02    0.3811619091E-01    0.3355179576E-01    0.6928265227E-01    0.1784910607E-01    0.3751190101E-01
    0.2900000000E+02    0.4059633695E-01    0.3542033129E-01    0.7335062021E-01    0.1901064308E-01    0.3971721565E-01
    0.3100000000E+02    0.4303630051E-01    0.3722298283E-01    0.7730491858E-01    0.2015337807E-01    0.4186125468E-01
    0.3300000000E+02    0.4543723974E-01    0.3896260800E-01    0.8115042507E-01    0.2127785285E-01    0.4394664277E-01
    0.3500000000E+02    0.4780026699E-01    0.4064190685E-01    0.8489173949E-01    0.2238458780E-01    0.4597585519E-01
    0.3700000000E+02    0.5012645098E-01    0.4226343257E-01    0.8853320331E-01    0.2347408293E-01    0.4795122832E-01
    0.3900000000E+02    0.5241681896E-01    0.4382960127E-01    0.9207891764E-01    0.2454681880E-01    0.4987496933E-01
    0.4100000000E+02    0.5467235871E-01    0.4534270103E-01    0.9553275966E-01    0.2560325753E-01    0.5174916498E-01
    0.4300000000E+02    0.5689402041E-01    0.4680490029E-01    0.9889839781E-01    0.2664384366E-01    0.5357578977E-01
    0.4500000000E+02    0.5908271841E-01    0.4821825543E-01    0.1021793056E+00    0.2766900495E-01    0.5535671343E-01
    0.4700000000E+02    0.6123933293E-01    0.4958471797E-01    0.1053787746E+00    0.2867915320E-01    0.5709370780E-01
    0.4900000000E+02    0.6336471162E-01    0.5090614107E-01    0.1084999261E+00    0.2967468499E-01    0.5878845316E-01
    0.1000000000E+02    0.1522765788E-01    0.1452803638E-01    0.2928877405E-01    0.7130398424E-02    0.1584793361E-01
    0.3000000000E+02    0.4182126805E-01    0.3632971013E-01    0.7534166648E-01    0.1958432645E-01    0.4079672694E-01
    0.5000000000E+02    0.6441594390E-01    0.5155051656E-01    0.1100320643E+00    0.3016708965E-01    0.5962048397E-01
    0.7000000000E+02    0.8398431442E-01    0.6245790783E-01    0.1372082026E+00    0.3933371829E-01    0.7439033656E-01
    0.9000000000E+02    0.1011967070E+00    0.7041065602E-01    0.1591453314E+00    0.4739782775E-01    0.8633151085E-01
    0.1100000000E+03    0.1165305851E+00    0.7627020684E-01    0.1772767770E+00    0.5458280933E-01    0.9621627498E-01
    0.1300000000E+03    0.1303357237E+00    0.8060710804E-01    0.1925515656E+00    0.6105231776E-01    0.1045562321E+00
    0.1500000000E+03    0.1428746460E+00    0.8381267802E-01    0.2056237964E+00    0.6692918766E-01    0.1117041811E+00
    0.1700000000E+03    0.1543486065E+00    0.8616308954E-01    0.2169594550E+00    0.7230758855E-01    0.1179115901E+00
    0.1900000000E+03    0.1649147994E+00    0.8785794620E-01    0.2268998490E+00    0.7726107543E-01    0.1233627397E+00
    0.2100000000E+03    0.1746980613E+00    0.8904444089E-01    0.2357009340E+00    0.8184806375E-01    0.1281958975E+00
    0.2300000000E+03    0.1837990173E+00    0.8983299745E-01    0.2435585975E+00    0.8611564073E-01    0.1325169361E+00
    0.2500000000E+03    0.1922998713E+00    0.9030769053E-01    0.2506254303E+00    0.9010227413E-01    0.1364083686E+00
    0.2700000000E+03    0.2002685972E+00    0.9053336028E-01    0.2570221556E+00    0.9383977348E-01    0.1399355086E+00
    0.2900000000E+03    0.2077620253E+00    0.9056057591E-01    0.2628456058E+00    0.9735473403E-01    0.1431507705E+00
    0.3100000000E+03    0.2148281490E+00    0.9042916534E-01    0.2681744076E+00    0.1006696161E+00    0.1460967350E+00
    0.3300000000E+03    0.2215078731E+00    0.9017076767E-01    0.2730731098E+00    0.1038035629E+00    0.1488083762E+00
    0.3500000000E+03    0.2278363556E+00    0.8981070747E-01    0.2775952313E+00    0.1067730288E+00    0.1513147060E+00
    0.3700000000E+03    0.2338440497E+00    0.8936938974E-01    0.2817855461E+00    0.1095922662E+00    0.1536400078E+00
    0.3900000000E+03    0.2395575213E+00    0.8886335108E-01    0.2856818194E+00    0.1122737089E+00    0.1558047736E+00
    0.4100000000E+03    0.2450000978E+00    0.8830606077E-01    0.2893161438E+00    0.1148282749E+00    0.1578264256E+00
    0.4300000000E+03    0.2501923862E+00    0.8770853737E-01    0.2927159785E+00    0.1172656095E+00    0.1597198781E+00
    0.4500000000E+03    0.2551526927E+00    0.8707982793E-01    0.2959049678E+00    0.1195942811E+00    0.1614979794E+00
    0.4700000000E+03    0.2598973628E+00    0.8642738358E-01    0.2989035896E+00    0.1218219405E+00    0.1631718622E+00
    0.4900000000E+03    0.2644410608E+00    0.8575735611E-01    0.3017296755E+00    0.1239554521E+00    0.1647512256E+00
    0.1000000000E+03    0.1090741697E+00    0.7356122178E-01    0.1686188597E+00    0.5108884439E-01    0.9149434407E-01
    0.3000000000E+03    0.2113457949E+00    0.9051255424E-01    0.2655675136E+00    0.9903591881E-01    0.1446550724E+00
    0.5000000000E+03    0.2666417258E+00    0.8541737496E-01    0.3030829714E+00    0.1249888594E+00    0.1655081581E+00
    0.7000000000E+03    0.3027242983E+00    0.7854252612E-01    0.3240192177E+00    0.1419408879E+00    0.1772795437E+00
    0.9000000000E+03    0.3282601098E+00    0.7239284457E-01    0.3377356677E+00    0.1539493549E+00    0.1850696478E+00
    0.1100000000E+04    0.3472346243E+00    0.6722764673E-01    0.3475758284E+00    0.1628807511E+00    0.1907092832E+00
    0.1300000000E+04    0.3618303306E+00    0.6292233259E-01    0.3550603890E+00    0.1697575655E+00    0.1950348146E+00
    0.1500000000E+04    0.3733624169E+00    0.5930862986E-01    0.3609906992E+00    0.1751961849E+00    0.1984887898E+00
    0.1700000000E+04    0.3826737572E+00    0.5624165748E-01    0.3658334487E+00    0.1795917782E+00    0.2013299374E+00
    0.1900000000E+04    0.3903291189E+00    0.5360790974E-01    0.3698808942E+00    0.1832092206E+00    0.2037208752E+00
    0.2100000000E+04    0.3967203036E+00    0.5132062654E-01    0.3733264449E+00    0.1862323299E+00    0.2057695953E+00
    0.2300000000E+04    0.4021269669E+00    0.4931362501E-01    0.3763037776E+00    0.1887923536E+00    0.2075509868E+00
    0.2500000000E+04    0.4067535745E+00    0.4753608074E-01    0.3789085846E+00    0.1909852839E+00    0.2091188299E+00
    0.2700000000E+04    0.4107527504E+00    0.4594856648E-01    0.3812113790E+00    0.1928827980E+00    0.2105128764E+00
    0.2900000000E+04    0.4142405052E+00    0.4452014809E-01    0.3832653988E+00    0.1945393968E+00    0.2117632283E+00
    0.3100000000E+04    0.4173064450E+00    0.4322627477E-01    0.3851116793E+00    0.1959971905E+00    0.2128931546E+00
    0.3300000000E+04    0.4200207778E+00    0.4204724333E-01    0.3867824191E+00    0.1972891843E+00    0.2139209646E+00
    0.3500000000E+04    0.4224392235E+00    0.4096707245E-01    0.3883032791E+00    0.1984415811E+00    0.2148612896E+00
    0.3700000000E+04    0.4246065191E+00    0.3997266985E-01    0.3896949903E+00    0.1994754264E+00    0.2157259810E+00
    0.3900000000E+04    0.4265589634E+00    0.3905320972E-01    0.3909745052E+00    0.2004078015E+00    0.2165247552E+00
    0.4100000000E+04    0.4283262926E+00    0.3819966253E-01    0.3921558367E+00    0.2012527046E+00    0.2172656639E+00
    0.4300000000E+04    0.4299330811E+00    0.3740443609E-01    0.3932506804E+00    0.2020217077E+00    0.2179554437E+00
    0.4500000000E+04    0.4313998025E+00    0.3666109884E-01    0.3942688835E+00    0.2027244552E+00    0.2185997803E+00
    0.4700000000E+04    0.4327436407E+00    0.3596416441E-01    0.3952188033E+00    0.2033690446E+00    0.2192035102E+00
    0.4900000000E+04    0.4339791179E+00    0.3530892239E-01    0.3961075835E+00    0.2039623215E+00    0.2197707773E+00
    0.1000000000E+04    0.3384038967E+00    0.6969229971E-01    0.3430211300E+00    0.1587230339E+00    0.1880928171E+00
    0.3000000000E+04    0.4158214251E+00    0.4385772349E-01    0.3842123180E+00    0.1952908989E+00    0.2123420013E+00
    0.5000000000E+04    0.4345601546E+00    0.3499564259E-01    0.3965310013E+00    0.2042415725E+00    0.2200418735E+00
    0.7000000000E+04    0.4426992135E+00    0.3017138333E-01    0.4029127507E+00    0.2081742039E+00    0.2242051822E+00
    0.9000000000E+04    0.4471983947E+00    0.2700500127E-01    0.4069349092E+00    0.2103736698E+00    0.2269236543E+00
    0.1100000000E+05    0.4500380785E+00    0.2471159174E-01    0.4097481448E+00    0.2117783299E+00    0.2288846462E+00
    0.1300000000E+05    0.4519872909E+00    0.2294648657E-01    0.4118482328E+00    0.2127539916E+00    0.2303896632E+00
    0.1500000000E+05    0.4534050396E+00    0.2153082407E-01    0.4134876561E+00    0.2134720954E+00    0.2315947015E+00
    0.1700000000E+05    0.4544808484E+00    0.2036102604E-01    0.4148099484E+00    0.2140235021E+00    0.2325897253E+00
    0.1900000000E+05    0.4553240036E+00    0.1937226373E-01    0.4159033617E+00    0.2144608125E+00    0.2334307873E+00
    0.2100000000E+05    0.4560018643E+00    0.1852153736E-01    0.4168254503E+00    0.2148165757E+00    0.2341548974E+00
    0.2300000000E+05    0.4565581678E+00    0.1777901237E-01    0.4176155151E+00    0.2151120103E+00    0.2347876236E+00
    0.2500000000E+05    0.4570225286E+00    0.1712323006E-01    0.4183014013E+00    0.2153615407E+00    0.2353472821E+00
    0.2700000000E+05    0.4574157014E+00    0.1653829498E-01    0.4189034454E+00    0.2155753161E+00    0.2358473912E+00
    0.2900000000E+05    0.4577526567E+00    0.1601213999E-01    0.4194368815E+00    0.2157606867E+00    0.2362981794E+00
    0.3100000000E+05    0.4580444603E+00    0.1553541186E-01    0.4199133696E+00    0.2159231069E+00    0.2367075516E+00
    0.3300000000E+05    0.4582994659E+00    0.1510073047E-01    0.4203420014E+00    0.2160667110E+00    0.2370817285E+00
    0.3500000000E+05    0.4585240957E+00    0.1470218172E-01    0.4207299806E+00    0.2161946901E+00    0.2374256836E+00
    0.3700000000E+05    0.4587233674E+00    0.1433496166E-01    0.4210830965E+00    0.2163095474E+00    0.2377434485E+00
    0.3900000000E+05    0.4589012570E+00    0.1399512107E-01    0.4214060600E+00    0.2164132741E+00    0.2380383316E+00
    0.4100000000E+05    0.4590609551E+00    0.1367937864E-01    0.4217027477E+00    0.2165074748E+00    0.2383130772E+00
    0.4300000000E+05    0.4592050513E+00    0.1338498177E-01    0.4219763812E+00    0.2165934570E+00    0.2385699844E+00
    0.4500000000E+05    0.4593356692E+00    0.1310960150E-01    0.4222296622E+00    0.2166722969E+00    0.2388109961E+00
    0.4700000000E+05    0.4594545659E+00    0.1285125185E-01    0.4224648753E+00    0.2167448889E+00    0.2390377675E+00
    0.4900000000E+05    0.4595632082E+00    0.1260822729E-01    0.4226839661E+00    0.2168119824E+00    0.2392517188E+00
    0.1000000000E+05    0.4487632282E+00    0.2577633727E-01    0.4084533700E+00    0.2111456769E+00    0.2279750594E+00
    0.3000000000E+05    0.4579036275E+00    0.1576809823E-01    0.4196816248E+00    0.2158444814E+00    0.2365076202E+00
    0.5000000000E+05    0.4596140771E+00    0.1249199329E-01    0.4227879966E+00    0.2168436688E+00    0.2393542769E+00
    0.7000000000E+05    0.4603099687E+00    0.1070034169E-01    0.4243253758E+00    0.2173007859E+00    0.2409581433E+00
    0.9000000000E+05    0.4606777544E+00    0.9525812289E-02    0.4252581083E+00    0.2175712962E+00    0.2420408289E+00
    0.1100000000E+06    0.4609002943E+00    0.8678191269E-02    0.4258881428E+00    0.2177541101E+00    0.2428438498E+00
    0.1300000000E+06    0.4610465611E+00    0.8028643281E-02    0.4263431044E+00    0.2178881101E+00    0.2434750249E+00
    0.1500000000E+06    0.4611481741E+00    0.7509945827E-02    0.4266869770E+00    0.2179918516E+00    0.2439910503E+00
    0.1700000000E+06    0.4612215919E+00    0.7083092343E-02    0.4269556391E+00    0.2180753803E+00    0.2444251141E+00
    0.1900000000E+06    0.4612761874E+00    0.6723668799E-02    0.4271708767E+00    0.2181446432E+00    0.2447981800E+00
    0.2100000000E+06    0.4613176689E+00    0.6415500326E-02    0.4273467335E+00    0.2182034033E+00    0.2451242667E+00
    0.2300000000E+06    0.4613496996E+00    0.6147384429E-02    0.4274926934E+00    0.2182541686E+00    0.2454131740E+00
    0.2500000000E+06    0.4613747304E+00    0.5911280956E-02    0.4276154054E+00    0.2182986811E+00    0.2456720001E+00
    0.2700000000E+06    0.4613944581E+00    0.5701248033E-02    0.4277196757E+00    0.2183381927E+00    0.2459060381E+00
    0.2900000000E+06    0.4614100915E+00    0.5512785649E-02    0.4278090688E+00    0.2183736288E+00    0.2461193324E+00
    0.3100000000E+06    0.4614225128E+00    0.5342414207E-02    0.4278862866E+00    0.2184056899E+00    0.2463150373E+00
    0.3300000000E+06    0.4614323791E+00    0.5187394614E-02    0.4279534155E+00    0.2184349173E+00    0.2464956570E+00
    0.3500000000E+06    0.4614401890E+00    0.5045536935E-02    0.4280120932E+00    0.2184617369E+00    0.2466632101E+00
    0.3700000000E+06    0.4614463265E+00    0.4915066268E-02    0.4280636234E+00    0.2184864889E+00    0.2468193459E+00
    0.3900000000E+06    0.4614510918E+00    0.4794526631E-02    0.4281090574E+00    0.2185094489E+00    0.2469654279E+00
    0.4100000000E+06    0.4614547219E+00    0.4682710764E-02    0.4281492524E+00    0.2185308428E+00    0.2471025955E+00
    0.4300000000E+06    0.4614574068E+00    0.4578607944E-02    0.4281849140E+00    0.2185508578E+00    0.2472318096E+00
    0.4500000000E+06    0.4614592995E+00    0.4481364613E-02    0.4282166291E+00    0.2185696507E+00    0.2473538878E+00
    0.4700000000E+06    0.4614605248E+00    0.4390254235E-02    0.4282448891E+00    0.2185873539E+00    0.2474695310E+00
    0.4900000000E+06    0.4614611852E+00    0.4304653944E-02    0.4282701091E+00    0.2186040800E+00    0.2475793443E+00
    0.1000000000E+06    0.4608015495E+00    0.9071271109E-02    0.4256008072E+00    0.2176705243E+00    0.2424688344E+00
    0.3000000000E+06    0.4614166582E+00    0.5425524528E-02    0.4278490571E+00    0.2183900442E+00    0.2462192140E+00
    0.5000000000E+06    0.4614613306E+00    0.4263749197E-02    0.4282816913E+00    0.2186121073E+00    0.2476322317E+00
    0.7000000000E+06    0.4614490185E+00    0.3636215934E-02    0.4284167616E+00    0.2187389451E+00    0.2484816660E+00
    0.9000000000E+06    0.4614249564E+00    0.3227874554E-02    0.4284533922E+00    0.2188267677E+00    0.2490812000E+00
    0.1100000000E+07    0.4613987450E+00    0.2934676983E-02    0.4284481429E+00    0.2188936416E+00    0.2495411504E+00
    0.1300000000E+07    0.4613730725E+00    0.2710831973E-02    0.4284227265E+00    0.2189475249E+00    0.2499125909E+00
    0.1500000000E+07    0.4613487344E+00    0.2532597431E-02    0.4283869978E+00    0.2189925942E+00    0.2502231699E+00
    0.1700000000E+07    0.4613259113E+00    0.2386263659E-02    0.4283459303E+00    0.2190313029E+00    0.2504894687E+00
    0.1900000000E+07    0.4613045698E+00    0.2263283230E-02    0.4283022194E+00    0.2190652109E+00    0.2507221811E+00
    0.2100000000E+07    0.4612846037E+00    0.2158011460E-02    0.4282573982E+00    0.2190953697E+00    0.2509285895E+00
    0.2300000000E+07    0.4612658885E+00    0.2066549502E-02    0.4282123668E+00    0.2191225213E+00    0.2511138675E+00
    0.2500000000E+07    0.4612483019E+00    0.1986105610E-02    0.4281676629E+00    0.2191472078E+00    0.2512818176E+00
    0.2700000000E+07    0.4612317314E+00    0.1914620781E-02    0.4281236084E+00    0.2191698377E+00    0.2514353129E+00
    0.2900000000E+07    0.4612160764E+00    0.1850538422E-02    0.4280803931E+00    0.2191907259E+00    0.2515765754E+00
    0.3100000000E+07    0.4612012480E+00    0.1792656814E-02    0.4280381237E+00    0.2192101204E+00    0.2517073575E+00
    0.3300000000E+07    0.4611871684E+00    0.1740031317E-02    0.4279968544E+00    0.2192282200E+00    0.2518290646E+00
    0.3500000000E+07    0.4611737690E+00    0.1691907648E-02    0.4279566056E+00    0.2192451861E+00    0.2519428407E+00
    0.3700000000E+07    0.4611609898E+00    0.1647675182E-02    0.4279173757E+00    0.2192611521E+00    0.2520496290E+00
    0.3900000000E+07    0.4611487777E+00    0.1606833547E-02    0.4278791494E+00    0.2192762290E+00    0.2521502156E+00
    0.4100000000E+07    0.4611370861E+00    0.1568968251E-02    0.4278419026E+00    0.2192905104E+00    0.2522452628E+00
    0.4300000000E+07    0.4611258734E+00    0.1533732592E-02    0.4278056057E+00    0.2193040759E+00    0.2523353334E+00
    0.4500000000E+07    0.4611151029E+00    0.1500834022E-02    0.4277702263E+00    0.2193169937E+00    0.2524209094E+00
    0.4700000000E+07    0.4611047417E+00    0.1470023723E-02    0.4277357306E+00    0.2193293227E+00    0.2525024070E+00
    0.4900000000E+07    0.4610947603E+00    0.1441088534E-02    0.4277020843E+00    0.2193411142E+00    0.2525801876E+00
    0.1000000000E+07    0.4614118801E+00    0.3070491264E-02    0.4284542297E+00    0.2188621977E+00    0.2493246492E+00
    0.3000000000E+07    0.4612085640E+00    0.1820886689E-02    0.4280591358E+00    0.2192005965E+00    0.2516431817E+00
    0.5000000000E+07    0.4610899037E+00    0.1427265660E-02    0.4276855690E+00    0.2193468226E+00    0.2526177845E+00
    0.7000000000E+07    0.4610075229E+00    0.1215527859E-02    0.4273921654E+00    0.2194412189E+00    0.2532339783E+00
    0.9000000000E+07    0.4609444778E+00    0.1078070348E-02    0.4271525407E+00    0.2195110444E+00    0.2536831002E+00
    0.1100000000E+08    0.4608934207E+00    0.9795271486E-03    0.4269501429E+00    0.2195664810E+00    0.2540357247E+00
    0.1300000000E+08    0.4608505201E+00    0.9043789612E-03    0.4267748727E+00    0.2196124573E+00    0.2543256132E+00
    0.1500000000E+08    0.4608135283E+00    0.8445955254E-03    0.4266202230E+00    0.2196517363E+00    0.2545715026E+00
    0.1700000000E+08    0.4607810138E+00    0.7955468777E-03    0.4264817765E+00    0.2196860238E+00    0.2547848570E+00
    0.1900000000E+08    0.4607520094E+00    0.7543498940E-03    0.4263564016E+00    0.2197164467E+00    0.2549731937E+00
    0.2100000000E+08    0.4607258307E+00    0.7191024379E-03    0.4262417987E+00    0.2197437889E+00    0.2551417052E+00
    0.2300000000E+08    0.4607019757E+00    0.6884917607E-03    0.4261362294E+00    0.2197686175E+00    0.2552941262E+00
    0.2500000000E+08    0.4606800654E+00    0.6615785351E-03    0.4260383472E+00    0.2197913562E+00    0.2554332314E+00
    0.2700000000E+08    0.4606598064E+00    0.6376703974E-03    0.4259470879E+00    0.2198123297E+00    0.2555611378E+00
