  Pressure (Pa) 22mC5-400 (mol/kg) 2mC6-400 (mol/kg) 3mC6-400 (mol/kg) 23mC5-400 (mol/kg) C7-400 (mol/kg)
    0.1000000000E+01    0.1587011218E-02    0.4737640682E-02    0.4190459093E-02    0.9288728659E-04    0.3400030524E-02
    0.3000000000E+01    0.4694915287E-02    0.1372997034E-01    0.1216274942E-01    0.2747943579E-03    0.9870007388E-02
    0.5000000000E+01    0.7718512781E-02    0.2212948239E-01    0.1963508900E-01    0.4517700056E-03    0.1593608066E-01
    0.7000000000E+01    0.1066213778E-01    0.2999080522E-01    0.2665526344E-01    0.6240677158E-03    0.2163680121E-01
    0.9000000000E+01    0.1352982194E-01    0.3736195735E-01    0.3326509153E-01    0.7919232880E-03    0.2700590968E-01
    0.1100000000E+02    0.1632532067E-01    0.4428533200E-01    0.3950133151E-01    0.9555563663E-03    0.3207306678E-01
    0.1300000000E+02    0.1905213661E-01    0.5079850913E-01    0.4539642683E-01    0.1115171813E-02    0.3686445427E-01
    0.1500000000E+02    0.2171354079E-01    0.5693492943E-01    0.5097912365E-01    0.1270960943E-02    0.4140327255E-01
    0.1700000000E+02    0.2431259163E-01    0.6272445692E-01    0.5627498509E-01    0.1423102641E-02    0.4571015514E-01
    0.1900000000E+02    0.2685215217E-01    0.6819385129E-01    0.6130682175E-01    0.1571764361E-02    0.4980351574E-01
    0.2100000000E+02    0.2933490553E-01    0.7336716656E-01    0.6609505422E-01    0.1717103037E-02    0.5369984034E-01
    0.2300000000E+02    0.3176336905E-01    0.7826608918E-01    0.7065801955E-01    0.1859265908E-02    0.5741393433E-01
    0.2500000000E+02    0.3413990704E-01    0.8291022609E-01    0.7501223169E-01    0.1998391260E-02    0.6095913247E-01
    0.2700000000E+02    0.3646674234E-01    0.8731735136E-01    0.7917260376E-01    0.2134609108E-02    0.6434747803E-01
    0.2900000000E+02    0.3874596689E-01    0.9150361805E-01    0.8315263847E-01    0.2268041811E-02    0.6758987638E-01
    0.3100000000E+02    0.4097955137E-01    0.9548374112E-01    0.8696459196E-01    0.2398804636E-02    0.7069622708E-01
    0.3300000000E+02    0.4316935395E-01    0.9927115581E-01    0.9061961523E-01    0.2527006268E-02    0.7367553791E-01
    0.3500000000E+02    0.4531712833E-01    0.1028781554E+00    0.9412787674E-01    0.2652749284E-02    0.7653602376E-01
    0.3700000000E+02    0.4742453106E-01    0.1063160110E+00    0.9749866898E-01    0.2776130579E-02    0.7928519256E-01
    0.3900000000E+02    0.4949312830E-01    0.1095950773E+00    0.1007405014E+00    0.2897241759E-02    0.8192992025E-01
    0.4100000000E+02    0.5152440193E-01    0.1127248841E+00    0.1038611818E+00    0.3016169504E-02    0.8447651638E-01
    0.4300000000E+02    0.5351975532E-01    0.1157142179E+00    0.1068678876E+00    0.3132995900E-02    0.8693078171E-01
    0.4500000000E+02    0.5548051844E-01    0.1185711937E+00    0.1097672287E+00    0.3247798742E-02    0.8929805883E-01
    0.4700000000E+02    0.5740795275E-01    0.1213033181E+00    0.1125653030E+00    0.3360651815E-02    0.9158327690E-01
    0.4900000000E+02    0.5930325555E-01    0.1239175461E+00    0.1152677454E+00    0.3471625154E-02    0.9379099121E-01
    0.1000000000E+02    0.1493636991E-01    0.4087716380E-01    0.3642778899E-01    0.8742545036E-03    0.2957552053E-01
    0.3000000000E+02    0.3986834546E-01    0.9351857955E-01    0.8507890405E-01    0.2333750017E-02    0.6915947503E-01
    0.5000000000E+02    0.6023921528E-01    0.1251824840E+00    0.1165847496E+00    0.3526427843E-02    0.9486711447E-01
    0.7000000000E+02    0.7751972747E-01    0.1456351896E+00    0.1389847706E+00    0.4538315122E-02    0.1131944802E+00
    0.9000000000E+02    0.9258786685E-01    0.1594228643E+00    0.1559228429E+00    0.5420769450E-02    0.1270888006E+00
    0.1100000000E+03    0.1060029269E+00    0.1689550052E+00    0.1693009679E+00    0.6206507963E-02    0.1380898981E+00
    0.1300000000E+03    0.1181397744E+00    0.1756270694E+00    0.1802144217E+00    0.6917460137E-02    0.1470852967E+00
    0.1500000000E+03    0.1292601613E+00    0.1803013149E+00    0.1893414034E+00    0.7568938783E-02    0.1546250446E+00
    0.1700000000E+03    0.1395531157E+00    0.1835376111E+00    0.1971260041E+00    0.8172002582E-02    0.1610696320E+00
    0.1900000000E+03    0.1491590512E+00    0.1857140356E+00    0.2038722289E+00    0.8734866338E-02    0.1666660460E+00
    0.2100000000E+03    0.1581848004E+00    0.1870941748E+00    0.2097958500E+00    0.9263780349E-02    0.1715897362E+00
    0.2300000000E+03    0.1667133407E+00    0.1878667153E+00    0.2150546804E+00    0.9763599352E-02    0.1759691303E+00
    0.2500000000E+03    0.1748102897E+00    0.1881697664E+00    0.2197670999E+00    0.1023816247E-01    0.1799006433E+00
    0.2700000000E+03    0.1825283627E+00    0.1881063538E+00    0.2240238487E+00    0.1069055398E-01    0.1834582384E+00
    0.2900000000E+03    0.1899105063E+00    0.1877545990E+00    0.2278957917E+00    0.1112328665E-01    0.1866997236E+00
    0.3100000000E+03    0.1969921490E+00    0.1871745866E+00    0.2314391814E+00    0.1153843339E-01    0.1896710222E+00
    0.3300000000E+03    0.2038028476E+00    0.1864131062E+00    0.2346993151E+00    0.1193772356E-01    0.1924091422E+00
    0.3500000000E+03    0.2103675124E+00    0.1855069948E+00    0.2377131350E+00    0.1232261468E-01    0.1949442884E+00
    0.3700000000E+03    0.2167073332E+00    0.1844855342E+00    0.2405111130E+00    0.1269434655E-01    0.1973013934E+00
    0.3900000000E+03    0.2228404876E+00    0.1833722002E+00    0.2431186408E+00    0.1305398278E-01    0.1995012484E+00
    0.4100000000E+03    0.2287826916E+00    0.1821859561E+00    0.2455570717E+00    0.1340244290E-01    0.2015613507E+00
    0.4300000000E+03    0.2345476305E+00    0.1809422229E+00    0.2478445137E+00    0.1374052767E-01    0.2034965484E+00
    0.4500000000E+03    0.2401473011E+00    0.1796536152E+00    0.2499964388E+00    0.1406893900E-01    0.2053195375E+00
    0.4700000000E+03    0.2455922847E+00    0.1783305057E+00    0.2520261591E+00    0.1438829603E-01    0.2070412488E+00
    0.4900000000E+03    0.2508919685E+00    0.1769814621E+00    0.2539452012E+00    0.1469914799E-01    0.2086711535E+00
    0.1000000000E+03    0.9947531820E-01    0.1646172836E+00    0.1629755657E+00    0.5824165473E-02    0.1328851144E+00
    0.3000000000E+03    0.1934869214E+00    0.1874899337E+00    0.2297055025E+00    0.1133294306E-01    0.1882166524E+00
    0.5000000000E+03    0.2534899749E+00    0.1762994847E+00    0.2548664063E+00    0.1485153974E-01    0.2094542998E+00
    0.7000000000E+03    0.2994560733E+00    0.1624975397E+00    0.2693519372E+00    0.1754847568E-01    0.2218385696E+00
    0.9000000000E+03    0.3367815106E+00    0.1497052781E+00    0.2791571416E+00    0.1973948351E-01    0.2303082334E+00
    0.1100000000E+04    0.3679105392E+00    0.1384507349E+00    0.2863970285E+00    0.2156757280E-01    0.2366169844E+00
    0.1300000000E+04    0.3942740019E+00    0.1286706843E+00    0.2920424543E+00    0.2311646590E-01    0.2415743121E+00
    0.1500000000E+04    0.4168372565E+00    0.1201807527E+00    0.2966129478E+00    0.2444265687E-01    0.2456155391E+00
    0.1700000000E+04    0.4363058020E+00    0.1127887552E+00    0.3004162186E+00    0.2558744066E-01    0.2489996559E+00
    0.1900000000E+04    0.4532194737E+00    0.1063233684E+00    0.3036482148E+00    0.2658242233E-01    0.2518922633E+00
    0.2100000000E+04    0.4680028958E+00    0.1006392833E+00    0.3064406991E+00    0.2745246739E-01    0.2544051391E+00
    0.2300000000E+04    0.4809960238E+00    0.9561551038E-01    0.3088861201E+00    0.2821748761E-01    0.2566169862E+00
    0.2500000000E+04    0.4924743827E+00    0.9115194508E-01    0.3110515935E+00    0.2889362444E-01    0.2585851291E+00
    0.2700000000E+04    0.5026633516E+00    0.8716583252E-01    0.3129872279E+00    0.2949408426E-01    0.2603524987E+00
    0.2900000000E+04    0.5117486811E+00    0.8358863261E-01    0.3147313218E+00    0.3002975357E-01    0.2619520028E+00
    0.3100000000E+04    0.5198844569E+00    0.8036339129E-01    0.3163137348E+00    0.3050966479E-01    0.2634093691E+00
    0.3300000000E+04    0.5271992457E+00    0.7744258996E-01    0.3177581491E+00    0.3094135584E-01    0.2647450561E+00
    0.3500000000E+04    0.5338009024E+00    0.7478640579E-01    0.3190836285E+00    0.3133115148E-01    0.2659755738E+00
    0.3700000000E+04    0.5397803674E+00    0.7236131063E-01    0.3203057212E+00    0.3168438553E-01    0.2671144197E+00
    0.3900000000E+04    0.5452146906E+00    0.7013894363E-01    0.3214372551E+00    0.3200557793E-01    0.2681727553E+00
    0.4100000000E+04    0.5501694548E+00    0.6809520299E-01    0.3224889232E+00    0.3229857657E-01    0.2691599051E+00
    0.4300000000E+04    0.5547007298E+00    0.6620951243E-01    0.3234697218E+00    0.3256667180E-01    0.2700837310E+00
    0.4500000000E+04    0.5588566566E+00    0.6446422687E-01    0.3243872830E+00    0.3281268915E-01    0.2709509159E+00
    0.4700000000E+04    0.5626787376E+00    0.6284414904E-01    0.3252481304E+00    0.3303906492E-01    0.2717671840E+00
    0.4900000000E+04    0.5662028926E+00    0.6133613486E-01    0.3260578789E+00    0.3324790808E-01    0.2725374715E+00
    0.1000000000E+04    0.3530164893E+00    0.1438844116E+00    0.2830219768E+00    0.2069280281E-01    0.2336696354E+00
    0.3000000000E+04    0.5159266916E+00    0.8193518597E-01    0.3155411345E+00    0.3027617642E-01    0.2626970688E+00
    0.5000000000E+04    0.5678631631E+00    0.6062052469E-01    0.3264451367E+00    0.3334633716E-01    0.2729067334E+00
    0.7000000000E+04    0.5911778565E+00    0.5008721686E-01    0.3324061672E+00    0.3473224443E-01    0.2786721074E+00
    0.9000000000E+04    0.6039236752E+00    0.4370918885E-01    0.3362951950E+00    0.3549453963E-01    0.2825341089E+00
    0.1100000000E+05    0.6118093525E+00    0.3935558272E-01    0.3390844204E+00    0.3596923745E-01    0.2853679610E+00
    0.1300000000E+05    0.6171133325E+00    0.3614731313E-01    0.3412076244E+00    0.3629069889E-01    0.2875696269E+00
    0.1500000000E+05    0.6209005426E+00    0.3365621939E-01    0.3428916148E+00    0.3652184593E-01    0.2893486560E+00
    0.1700000000E+05    0.6237282382E+00    0.3164795694E-01    0.3442680673E+00    0.3669567115E-01    0.2908280330E+00
    0.1900000000E+05    0.6259137129E+00    0.2998277264E-01    0.3454193643E+00    0.3683099943E-01    0.2920854727E+00
    0.2100000000E+05    0.6276498360E+00    0.2857169213E-01    0.3464000320E+00    0.3693929831E-01    0.2931728903E+00
    0.2300000000E+05    0.6290601094E+00    0.2735508853E-01    0.3472477835E+00    0.3702792716E-01    0.2941265049E+00
    0.2500000000E+05    0.6302270407E+00    0.2629132218E-01    0.3479896418E+00    0.3710181363E-01    0.2949724827E+00
    0.2700000000E+05    0.6312077233E+00    0.2535031705E-01    0.3486455420E+00    0.3716437541E-01    0.2957302772E+00
    0.2900000000E+05    0.6320428526E+00    0.2450973077E-01    0.3492305526E+00    0.3721805428E-01    0.2964147021E+00
    0.3100000000E+05    0.6327621787E+00    0.2375256775E-01    0.3497563020E+00    0.3726463953E-01    0.2970372707E+00
    0.3300000000E+05    0.6333879305E+00    0.2306563488E-01    0.3502319252E+00    0.3730547128E-01    0.2976070894E+00
    0.3500000000E+05    0.6339370360E+00    0.2243850991E-01    0.3506647102E+00    0.3734157257E-01    0.2981314713E+00
    0.3700000000E+05    0.6344226042E+00    0.2186283279E-01    0.3510605515E+00    0.3737373759E-01    0.2986163686E+00
    0.3900000000E+05    0.6348549385E+00    0.2133180692E-01    0.3514242739E+00    0.3740259206E-01    0.2990666838E+00
    0.4100000000E+05    0.6352422445E+00    0.2083984071E-01    0.3517598696E+00    0.3742863559E-01    0.2994864971E+00
    0.4300000000E+05    0.6355911358E+00    0.2038228476E-01    0.3520706737E+00    0.3745227182E-01    0.2998792372E+00
    0.4500000000E+05    0.6359069998E+00    0.1995523621E-01    0.3523594966E+00    0.3747383041E-01    0.3002478095E+00
    0.4700000000E+05    0.6361942678E+00    0.1955539057E-01    0.3526287255E+00    0.3749358319E-01    0.3005946956E+00
    0.4900000000E+05    0.6364566175E+00    0.1917992812E-01    0.3528804025E+00    0.3751175634E-01    0.3009220295E+00
    0.1000000000E+05    0.6082893672E+00    0.4134985101E-01    0.3377931938E+00    0.3575695394E-01    0.2840485453E+00
    0.3000000000E+05    0.6324154560E+00    0.2412162102E-01    0.3495002143E+00    0.3724214114E-01    0.2967331012E+00
    0.5000000000E+05    0.6365794294E+00    0.1900056986E-01    0.3530002183E+00    0.3752031105E-01    0.3010789515E+00
    0.7000000000E+05    0.6382640528E+00    0.1625116468E-01    0.3547967701E+00    0.3764171244E-01    0.3035320686E+00
    0.9000000000E+05    0.6391695898E+00    0.1446075752E-01    0.3559146884E+00    0.3771178873E-01    0.3051834006E+00
    0.1100000000E+06    0.6397330461E+00    0.1317259116E-01    0.3566852295E+00    0.3775842615E-01    0.3064030350E+00
    0.1300000000E+06    0.6401165858E+00    0.1218696665E-01    0.3572514201E+00    0.3779225949E-01    0.3073572341E+00
    0.1500000000E+06    0.6403940373E+00    0.1140054511E-01    0.3576861333E+00    0.3781826056E-01    0.3081337001E+00
    0.1700000000E+06    0.6406037724E+00    0.1075366138E-01    0.3580307700E+00    0.3783908116E-01    0.3087838428E+00
    0.1900000000E+06    0.6407676879E+00    0.1020909126E-01    0.3583107494E+00    0.3785627326E-01    0.3093401487E+00
    0.2100000000E+06    0.6408991808E+00    0.9742226376E-02    0.3585426152E+00    0.3787081016E-01    0.3098243362E+00
    0.2300000000E+06    0.6410069025E+00    0.9336049103E-02    0.3587376362E+00    0.3788333579E-01    0.3102515769E+00
    0.2500000000E+06    0.6410966870E+00    0.8978358931E-02    0.3589037737E+00    0.3789429480E-01    0.3106328495E+00
    0.2700000000E+06    0.6411726096E+00    0.8660146447E-02    0.3590468236E+00    0.3790400509E-01    0.3109763311E+00
    0.2900000000E+06    0.6412376021E+00    0.8374592409E-02    0.3591711132E+00    0.3791270065E-01    0.3112882615E+00
    0.3100000000E+06    0.6412938275E+00    0.8116426121E-02    0.3592799422E+00    0.3792055798E-01    0.3115735003E+00
    0.3300000000E+06    0.6413429154E+00    0.7881499862E-02    0.3593758740E+00    0.3792771303E-01    0.3118358999E+00
    0.3500000000E+06    0.6413861171E+00    0.7666498243E-02    0.3594609316E+00    0.3793427245E-01    0.3120785610E+00
    0.3700000000E+06    0.6414244089E+00    0.7468734642E-02    0.3595367341E+00    0.3794032125E-01    0.3123040132E+00
    0.3900000000E+06    0.6414585637E+00    0.7286005438E-02    0.3596045936E+00    0.3794592811E-01    0.3125143443E+00
    0.4100000000E+06    0.6414892010E+00    0.7116483589E-02    0.3596655850E+00    0.3795114923E-01    0.3127112966E+00
    0.4300000000E+06    0.6415168234E+00    0.6958639564E-02    0.3597205978E+00    0.3795603114E-01    0.3128963369E+00
    0.4500000000E+06    0.6415418427E+00    0.6811181700E-02    0.3597703747E+00    0.3796061270E-01    0.3130707115E+00
    0.4700000000E+06    0.6415645992E+00    0.6673010563E-02    0.3598155407E+00    0.3796492668E-01    0.3132354868E+00
    0.4900000000E+06    0.6415853772E+00    0.6543183590E-02    0.3598566256E+00    0.3796900096E-01    0.3133915824E+00
    0.1000000000E+06    0.6394808069E+00    0.1376964428E-01    0.3563320544E+00    0.3773717297E-01    0.3058341440E+00
    0.3000000000E+06    0.6412666985E+00    0.8242367426E-02    0.3592272854E+00    0.3791672480E-01    0.3114339564E+00
    0.5000000000E+06    0.6415951003E+00    0.6481140566E-02    0.3598757817E+00    0.3797095580E-01    0.3134666287E+00
    0.7000000000E+06    0.6417276343E+00    0.5528948065E-02    0.3601261008E+00    0.3800180468E-01    0.3146597781E+00
    0.9000000000E+06    0.6417970941E+00    0.4908941944E-02    0.3602361576E+00    0.3802313160E-01    0.3154873426E+00
    0.1100000000E+07    0.6418387261E+00    0.4463552717E-02    0.3602823836E+00    0.3803935920E-01    0.3161136048E+00
    0.1300000000E+07    0.6418657939E+00    0.4123393081E-02    0.3602953026E+00    0.3805242913E-01    0.3166137195E+00
    0.1500000000E+07    0.6418843656E+00    0.3852468196E-02    0.3602893428E+00    0.3806335838E-01    0.3170279593E+00
    0.1700000000E+07    0.6418975931E+00    0.3629984100E-02    0.3602721125E+00    0.3807274366E-01    0.3173802631E+00
    0.1900000000E+07    0.6419072677E+00    0.3442971877E-02    0.3602479428E+00    0.3808096405E-01    0.3176859491E+00
    0.2100000000E+07    0.6419144779E+00    0.3282864238E-02    0.3602194416E+00    0.3808827497E-01    0.3179553758E+00
    0.2300000000E+07    0.6419199206E+00    0.3143742063E-02    0.3601882469E+00    0.3809485649E-01    0.3181958554E+00
    0.2500000000E+07    0.6419240609E+00    0.3021366011E-02    0.3601554210E+00    0.3810084027E-01    0.3184127308E+00
    0.2700000000E+07    0.6419272198E+00    0.2912608781E-02    0.3601216704E+00    0.3810632536E-01    0.3186100177E+00
    0.2900000000E+07    0.6419296256E+00    0.2815105732E-02    0.3600874732E+00    0.3811138817E-01    0.3187908062E+00
    0.3100000000E+07    0.6419314444E+00    0.2727031008E-02    0.3600531575E+00    0.3811608887E-01    0.3189575224E+00
    0.3300000000E+07    0.6419327993E+00    0.2646949148E-02    0.3600189499E+00    0.3812047564E-01    0.3191121035E+00
    0.3500000000E+07    0.6419337837E+00    0.2573713801E-02    0.3599850076E+00    0.3812458766E-01    0.3192561202E+00
    0.3700000000E+07    0.6419344691E+00    0.2506396836E-02    0.3599514389E+00    0.3812845725E-01    0.3193908624E+00
    0.3900000000E+07    0.6419349113E+00    0.2444237619E-02    0.3599183178E+00    0.3813211133E-01    0.3195174015E+00
    0.4100000000E+07    0.6419351542E+00    0.2386606002E-02    0.3598856936E+00    0.3813557259E-01    0.3196366370E+00
    0.4300000000E+07    0.6419352327E+00    0.2332974852E-02    0.3598535978E+00    0.3813886034E-01    0.3197493308E+00
    0.4500000000E+07    0.6419351750E+00    0.2282899333E-02    0.3598220492E+00    0.3814199110E-01    0.3198561337E+00
    0.4700000000E+07    0.6419350038E+00    0.2236001072E-02    0.3597910569E+00    0.3814497916E-01    0.3199576057E+00
    0.4900000000E+07    0.6419347379E+00    0.2191955899E-02    0.3597606233E+00    0.3814783695E-01    0.3200542321E+00
    0.1000000000E+07    0.6418203052E+00    0.4669887293E-02    0.3602647828E+00    0.3803173010E-01    0.3158197710E+00
    0.3000000000E+07    0.6419305999E+00    0.2769987328E-02    0.3600703140E+00    0.3811378054E-01    0.3188757925E+00
    0.5000000000E+07    0.6419345743E+00    0.2170914331E-02    0.3597456154E+00    0.3814922045E-01    0.3201008625E+00
    0.7000000000E+07    0.6419289174E+00    0.1848574713E-02    0.3594727760E+00    0.3817209839E-01    0.3208582146E+00
    0.9000000000E+07    0.6419217198E+00    0.1639296157E-02    0.3592434095E+00    0.3818902162E-01    0.3214023193E+00
    0.1100000000E+08    0.6419145631E+00    0.1489259978E-02    0.3590464305E+00    0.3820245782E-01    0.3218250921E+00
    0.1300000000E+08    0.6419078245E+00    0.1374843705E-02    0.3588739681E+00    0.3821360134E-01    0.3221698661E+00
    0.1500000000E+08    0.6419015734E+00    0.1283822360E-02    0.3587205892E+00    0.3822312183E-01    0.3224604231E+00
    0.1700000000E+08    0.6418957910E+00    0.1209146764E-02    0.3585824540E+00    0.3823143260E-01    0.3227111827E+00
    0.1900000000E+08    0.6418904338E+00    0.1146427033E-02    0.3584567667E+00    0.3823880679E-01    0.3229315299E+00
    0.2100000000E+08    0.6418854553E+00    0.1092766814E-02    0.3583414343E+00    0.3824543435E-01    0.3231279052E+00
    0.2300000000E+08    0.6418808120E+00    0.1046167144E-02    0.3582348514E+00    0.3825145273E-01    0.3233049152E+00
    0.2500000000E+08    0.6418764655E+00    0.1005197652E-02    0.3581357599E+00    0.3825696458E-01    0.3234659657E+00
    0.2700000000E+08    0.6418723826E+00    0.9688040178E-03    0.3580431564E+00    0.3826204863E-01    0.3236136435E+00
