  Pressure (Pa) 22mC5-400 (mol/kg) 2mC6-400 (mol/kg) 3mC6-400 (mol/kg) 23mC5-400 (mol/kg) C7-400 (mol/kg)
    0.1000000000E+01    0.1589449578E-02    0.3148357198E-02    0.3649178080E-02    0.9302993675E-04    0.8459784362E-02
    0.3000000000E+01    0.4716145807E-02    0.9070428044E-02    0.1049638922E-01    0.2760364045E-03    0.2433829086E-01
    0.5000000000E+01    0.7775598038E-02    0.1454175777E-01    0.1680299760E-01    0.4551096800E-03    0.3896909679E-01
    0.7000000000E+01    0.1077050134E-01    0.1961292019E-01    0.2263209255E-01    0.6304073805E-03    0.5249759107E-01
    0.9000000000E+01    0.1370340404E-01    0.2432693745E-01    0.2803725747E-01    0.8020785424E-03    0.6504727288E-01
    0.1100000000E+02    0.1657671765E-01    0.2872065793E-01    0.3306429825E-01    0.9702642013E-03    0.7672372998E-01
    0.1300000000E+02    0.1939272599E-01    0.3282584188E-01    0.3775260767E-01    0.1135097925E-02    0.8761777926E-01
    0.1500000000E+02    0.2215359356E-01    0.3667002468E-01    0.4213625203E-01    0.1296706304E-02    0.9780796838E-01
    0.1700000000E+02    0.2486137331E-01    0.4027720928E-01    0.4624484408E-01    0.1455209405E-02    0.1073625853E+00
    0.1900000000E+02    0.2751801377E-01    0.4366842586E-01    0.5010424941E-01    0.1610721189E-02    0.1163412848E+00
    0.2100000000E+02    0.3012536568E-01    0.4686218762E-01    0.5373716261E-01    0.1763349897E-02    0.1247964153E+00
    0.2300000000E+02    0.3268518805E-01    0.4987486459E-01    0.5716358002E-01    0.1913198407E-02    0.1327741073E+00
    0.2500000000E+02    0.3519915386E-01    0.5272099210E-01    0.6040119038E-01    0.2060364565E-02    0.1403151731E+00
    0.2700000000E+02    0.3766885528E-01    0.5541352702E-01    0.6346569940E-01    0.2204941491E-02    0.1474558545E+00
    0.2900000000E+02    0.4009580853E-01    0.5796406170E-01    0.6637110097E-01    0.2347017865E-02    0.1542284473E+00
    0.3100000000E+02    0.4248145842E-01    0.6038300370E-01    0.6912990502E-01    0.2486678188E-02    0.1606618265E+00
    0.3300000000E+02    0.4482718249E-01    0.6267972746E-01    0.7175332985E-01    0.2624003030E-02    0.1667818891E+00
    0.3500000000E+02    0.4713429498E-01    0.6486270293E-01    0.7425146531E-01    0.2759069256E-02    0.1726119299E+00
    0.3700000000E+02    0.4940405040E-01    0.6693960524E-01    0.7663341170E-01    0.2891950240E-02    0.1781729623E+00
    0.3900000000E+02    0.5163764696E-01    0.6891740849E-01    0.7890739874E-01    0.3022716064E-02    0.1834839915E+00
    0.4100000000E+02    0.5383622971E-01    0.7080246641E-01    0.8108088768E-01    0.3151433699E-02    0.1885622505E+00
    0.4300000000E+02    0.5600089348E-01    0.7260058194E-01    0.8316065936E-01    0.3278167179E-02    0.1934234028E+00
    0.4500000000E+02    0.5813268563E-01    0.7431706745E-01    0.8515289039E-01    0.3402977765E-02    0.1980817178E+00
    0.4700000000E+02    0.6023260864E-01    0.7595679714E-01    0.8706321931E-01    0.3525924090E-02    0.2025502237E+00
    0.4900000000E+02    0.6230162250E-01    0.7752425274E-01    0.8889680427E-01    0.3647062302E-02    0.2068408403E+00
    0.1000000000E+02    0.1514736385E-01    0.2656174158E-01    0.3059544494E-01    0.8865985427E-03    0.7098866430E-01
    0.3000000000E+02    0.4129370877E-01    0.5918937328E-01    0.6776809830E-01    0.2417144908E-02    0.1574858550E+00
    0.5000000000E+02    0.6332482743E-01    0.7828218091E-01    0.8978631083E-01    0.3706970266E-02    0.2089228907E+00
    0.7000000000E+02    0.8237059132E-01    0.9049540352E-01    0.1045091000E+00    0.4822158741E-02    0.2434479715E+00
    0.9000000000E+02    0.9916769464E-01    0.9868072253E-01    0.1151331555E+00    0.5805799957E-02    0.2684529688E+00
    0.1100000000E+03    0.1142182666E+00    0.1042958889E+00    0.1232110642E+00    0.6687264756E-02    0.2875327410E+00
    0.1300000000E+03    0.1278772310E+00    0.1081742971E+00    0.1295912905E+00    0.7487314204E-02    0.3026543608E+00
    0.1500000000E+03    0.1404031946E+00    0.1108303601E+00    0.1347784234E+00    0.8221075791E-02    0.3149891516E+00
    0.1700000000E+03    0.1519895001E+00    0.1125997680E+00    0.1390923028E+00    0.8899859590E-02    0.3252805024E+00
    0.1900000000E+03    0.1627839310E+00    0.1137110259E+00    0.1427460254E+00    0.9532310772E-02    0.3340243176E+00
    0.2100000000E+03    0.1729016416E+00    0.1143249193E+00    0.1458873733E+00    0.1012516586E-01    0.3415649264E+00
    0.2300000000E+03    0.1824338895E+00    0.1145576486E+00    0.1486222627E+00    0.1068376352E-01    0.3481494090E+00
    0.2500000000E+03    0.1914540850E+00    0.1144950628E+00    0.1510287220E+00    0.1121239839E-01    0.3539600075E+00
    0.2700000000E+03    0.2000220756E+00    0.1142017697E+00    0.1531655934E+00    0.1171457172E-01    0.3591343144E+00
    0.2900000000E+03    0.2081872415E+00    0.1137271588E+00    0.1550781495E+00    0.1219317242E-01    0.3637783158E+00
    0.3100000000E+03    0.2159907713E+00    0.1131094979E+00    0.1568018351E+00    0.1265061019E-01    0.3679750855E+00
    0.3300000000E+03    0.2234673621E+00    0.1123787837E+00    0.1583648271E+00    0.1308891495E-01    0.3717907388E+00
    0.3500000000E+03    0.2306465085E+00    0.1115587683E+00    0.1597898293E+00    0.1350981229E-01    0.3752786087E+00
    0.3700000000E+03    0.2375534913E+00    0.1106684258E+00    0.1610953562E+00    0.1391478127E-01    0.3784822358E+00
    0.3900000000E+03    0.2442101464E+00    0.1097230300E+00    0.1622966693E+00    0.1430509941E-01    0.3814375499E+00
    0.4100000000E+03    0.2506354684E+00    0.1087349593E+00    0.1634064708E+00    0.1468187800E-01    0.3841744886E+00
    0.4300000000E+03    0.2568460897E+00    0.1077143036E+00    0.1644354260E+00    0.1504609014E-01    0.3867182156E+00
    0.4500000000E+03    0.2628566639E+00    0.1066693291E+00    0.1653925613E+00    0.1539859316E-01    0.3890900509E+00
    0.4700000000E+03    0.2686801754E+00    0.1056068367E+00    0.1662855723E+00    0.1574014673E-01    0.3913081900E+00
    0.4900000000E+03    0.2743281914E+00    0.1045324420E+00    0.1671210633E+00    0.1607142759E-01    0.3933882651E+00
    0.1000000000E+03    0.1068863860E+00    0.1017476183E+00    0.1194265256E+00    0.6257847265E-02    0.2785855290E+00
    0.3000000000E+03    0.2121319070E+00    0.1134341680E+00    0.1559616938E+00    0.1242440188E-01    0.3659281308E+00
    0.5000000000E+03    0.2770896674E+00    0.1039922670E+00    0.1675190520E+00    0.1623340760E-01    0.3943808240E+00
    0.7000000000E+03    0.3251398760E+00    0.9334283601E-01    0.1735063524E+00    0.1905270615E-01    0.4094699521E+00
    0.9000000000E+03    0.3630131509E+00    0.8380374896E-01    0.1772568678E+00    0.2127608948E-01    0.4191158506E+00
    0.1100000000E+04    0.3938088642E+00    0.7563095086E-01    0.1798611823E+00    0.2308490771E-01    0.4259372203E+00
    0.1300000000E+04    0.4193316761E+00    0.6869609056E-01    0.1817912324E+00    0.2458477020E-01    0.4310779502E+00
    0.1500000000E+04    0.4407752128E+00    0.6280747825E-01    0.1832874116E+00    0.2584554219E-01    0.4351257705E+00
    0.1700000000E+04    0.4589878531E+00    0.5778489581E-01    0.1844861715E+00    0.2691689206E-01    0.4384169929E+00
    0.1900000000E+04    0.4745990156E+00    0.5347562097E-01    0.1854712120E+00    0.2783567772E-01    0.4411594860E+00
    0.2100000000E+04    0.4880887043E+00    0.4975465841E-01    0.1862969673E+00    0.2863001405E-01    0.4434894142E+00
    0.2300000000E+04    0.4998300738E+00    0.4652092909E-01    0.1870004970E+00    0.2932176247E-01    0.4455001148E+00
    0.2500000000E+04    0.5101174537E+00    0.4369290937E-01    0.1876079779E+00    0.2992817019E-01    0.4472579476E+00
    0.2700000000E+04    0.5191857396E+00    0.4120473279E-01    0.1881384690E+00    0.3046300464E-01    0.4488115298E+00
    0.2900000000E+04    0.5272242762E+00    0.3900297368E-01    0.1886062033E+00    0.3093736580E-01    0.4501973858E+00
    0.3100000000E+04    0.5343870422E+00    0.3704407871E-01    0.1890220417E+00    0.3136028220E-01    0.4514435478E+00
    0.3300000000E+04    0.5408002585E+00    0.3529234435E-01    0.1893944272E+00    0.3173915632E-01    0.4525719283E+00
    0.3500000000E+04    0.5465681538E+00    0.3371833223E-01    0.1897300304E+00    0.3208010203E-01    0.4535999328E+00
    0.3700000000E+04    0.5517773838E+00    0.3229762803E-01    0.1900341963E+00    0.3238820343E-01    0.4545415816E+00
    0.3900000000E+04    0.5565004543E+00    0.3100986745E-01    0.1903112625E+00    0.3266771524E-01    0.4554083095E+00
    0.4100000000E+04    0.5607983955E+00    0.2983796888E-01    0.1905647882E+00    0.3292221948E-01    0.4562095460E+00
    0.4300000000E+04    0.5647228682E+00    0.2876752632E-01    0.1907977237E+00    0.3315474885E-01    0.4569531453E+00
    0.4500000000E+04    0.5683178356E+00    0.2778632656E-01    0.1910125367E+00    0.3336788464E-01    0.4576457075E+00
    0.4700000000E+04    0.5716208989E+00    0.2688396335E-01    0.1912113082E+00    0.3356383503E-01    0.4582928245E+00
    0.4900000000E+04    0.5746643714E+00    0.2605152728E-01    0.1913958065E+00    0.3374449802E-01    0.4588992693E+00
    0.1000000000E+04    0.3791638204E+00    0.7955141342E-01    0.1786649287E+00    0.2222460187E-01    0.4227892398E+00
    0.3000000000E+04    0.5309066663E+00    0.3799556316E-01    0.1888200338E+00    0.3115475823E-01    0.4508364374E+00
    0.5000000000E+04    0.5760976306E+00    0.2565909439E-01    0.1914831846E+00    0.3382961780E-01    0.4591885442E+00
    0.7000000000E+04    0.5962269856E+00    0.2009139436E-01    0.1927550687E+00    0.3502872155E-01    0.4635866640E+00
    0.9000000000E+04    0.6072920158E+00    0.1693255828E-01    0.1935048964E+00    0.3569239893E-01    0.4664134165E+00
    0.1100000000E+05    0.6141961046E+00    0.1488085096E-01    0.1939988084E+00    0.3610948163E-01    0.4684304441E+00
    0.1300000000E+05    0.6188805784E+00    0.1342689775E-01    0.1943473122E+00    0.3639456925E-01    0.4699659486E+00
    0.1500000000E+05    0.6222529624E+00    0.1233294043E-01    0.1946049831E+00    0.3660135352E-01    0.4711875735E+00
    0.1700000000E+05    0.6247897926E+00    0.1147346419E-01    0.1948020229E+00    0.3675809211E-01    0.4721910516E+00
    0.1900000000E+05    0.6267637044E+00    0.1077593492E-01    0.1949565546E+00    0.3688098963E-01    0.4730355603E+00
    0.2100000000E+05    0.6283412954E+00    0.1019543736E-01    0.1950801347E+00    0.3697997184E-01    0.4737599190E+00
    0.2300000000E+05    0.6296298148E+00    0.9702605166E-02    0.1951804897E+00    0.3706144408E-01    0.4743907985E+00
    0.2500000000E+05    0.6307012867E+00    0.9277378785E-02    0.1952629855E+00    0.3712971857E-01    0.4749472147E+00
    0.2700000000E+05    0.6316057998E+00    0.8905554295E-02    0.1953314665E+00    0.3718780168E-01    0.4754431444E+00
    0.2900000000E+05    0.6323792270E+00    0.8576767653E-02    0.1953887599E+00    0.3723785198E-01    0.4758891248E+00
    0.3100000000E+05    0.6330479107E+00    0.8283262137E-02    0.1954369913E+00    0.3728145861E-01    0.4762932725E+00
    0.3300000000E+05    0.6336316173E+00    0.8019104827E-02    0.1954777894E+00    0.3731981706E-01    0.4766619564E+00
    0.3500000000E+05    0.6341454598E+00    0.7779671636E-02    0.1955124228E+00    0.3735384372E-01    0.4770002549E+00
    0.3700000000E+05    0.6346011858E+00    0.7561298940E-02    0.1955418943E+00    0.3738425278E-01    0.4773122746E+00
    0.3900000000E+05    0.6350080610E+00    0.7361041862E-02    0.1955670063E+00    0.3741160903E-01    0.4776013779E+00
    0.4100000000E+05    0.6353734901E+00    0.7176502779E-02    0.1955884087E+00    0.3743636495E-01    0.4778703483E+00
    0.4300000000E+05    0.6357034591E+00    0.7005707226E-02    0.1956066331E+00    0.3745888735E-01    0.4781215131E+00
    0.4500000000E+05    0.6360028594E+00    0.6847012481E-02    0.1956221180E+00    0.3747947671E-01    0.4783568359E+00
    0.4700000000E+05    0.6362757255E+00    0.6699039157E-02    0.1956352286E+00    0.3749838153E-01    0.4785779862E+00
    0.4900000000E+05    0.6365254148E+00    0.6560619260E-02    0.1956462712E+00    0.3751580917E-01    0.4787863947E+00
    0.1000000000E+05    0.6111067640E+00    0.1580966882E-01    0.1937750106E+00    0.3592247755E-01    0.4674971631E+00
    0.3000000000E+05    0.6327252986E+00    0.8426011268E-02    0.1954138968E+00    0.3726037838E-01    0.4760959949E+00
    0.5000000000E+05    0.6366424661E+00    0.6494674629E-02    0.1956510994E+00    0.3752402463E-01    0.4788862131E+00
    0.7000000000E+05    0.6382598202E+00    0.5497507992E-02    0.1956847504E+00    0.3764146236E-01    0.4804401449E+00
    0.9000000000E+05    0.6391396391E+00    0.4860936180E-02    0.1956585641E+00    0.3771002129E-01    0.4814813876E+00
    0.1100000000E+06    0.6396915876E+00    0.4408554407E-02    0.1956105403E+00    0.3775597866E-01    0.4822494876E+00
    0.1300000000E+06    0.6400696036E+00    0.4065369509E-02    0.1955542191E+00    0.3778948481E-01    0.4828506342E+00
    0.1500000000E+06    0.6403443952E+00    0.3793280565E-02    0.1954952413E+00    0.3781532772E-01    0.4833403767E+00
    0.1700000000E+06    0.6405529611E+00    0.3570575863E-02    0.1954361679E+00    0.3783607823E-01    0.4837510982E+00
    0.1900000000E+06    0.6407165280E+00    0.3383843628E-02    0.1953782060E+00    0.3785324878E-01    0.4841031836E+00
    0.2100000000E+06    0.6408481399E+00    0.3224286646E-02    0.1953219174E+00    0.3786779183E-01    0.4844102252E+00
    0.2300000000E+06    0.6409562522E+00    0.3085859881E-02    0.1952675398E+00    0.3788033972E-01    0.4846817002E+00
    0.2500000000E+06    0.6410465844E+00    0.2964252312E-02    0.1952151428E+00    0.3789133034E-01    0.4849244576E+00
    0.2700000000E+06    0.6411231432E+00    0.2856294743E-02    0.1951647078E+00    0.3790107753E-01    0.4851435947E+00
    0.2900000000E+06    0.6411888185E+00    0.2759597656E-02    0.1951161707E+00    0.3790981280E-01    0.4853429988E+00
    0.3100000000E+06    0.6412457465E+00    0.2672320381E-02    0.1950694451E+00    0.3791771106E-01    0.4855256967E+00
    0.3300000000E+06    0.6412955406E+00    0.2593018725E-02    0.1950244355E+00    0.3792490730E-01    0.4856940874E+00
    0.3500000000E+06    0.6413394415E+00    0.2520541361E-02    0.1949810445E+00    0.3793150753E-01    0.4858501022E+00
    0.3700000000E+06    0.6413784189E+00    0.2453957532E-02    0.1949391766E+00    0.3793759637E-01    0.4859953168E+00
    0.3900000000E+06    0.6414132416E+00    0.2392505452E-02    0.1948987407E+00    0.3794324226E-01    0.4861310323E+00
    0.4100000000E+06    0.6414445272E+00    0.2335554757E-02    0.1948596507E+00    0.3794850127E-01    0.4862583345E+00
    0.4300000000E+06    0.6414727769E+00    0.2282578674E-02    0.1948218261E+00    0.3795341986E-01    0.4863781384E+00
    0.4500000000E+06    0.6414984019E+00    0.2233133085E-02    0.1947851923E+00    0.3795803685E-01    0.4864912214E+00
    0.4700000000E+06    0.6415217430E+00    0.2186840541E-02    0.1947496799E+00    0.3796238502E-01    0.4865982494E+00
    0.4900000000E+06    0.6415430846E+00    0.2143377909E-02    0.1947152246E+00    0.3796649227E-01    0.4866997966E+00
    0.1000000000E+06    0.6394440314E+00    0.4617670384E-02    0.1956361537E+00    0.3773500237E-01    0.4818912320E+00
    0.3000000000E+06    0.6412182649E+00    0.2714879697E-02    0.1950925873E+00    0.3791385733E-01    0.4854362735E+00
    0.5000000000E+06    0.6415530819E+00    0.2122619259E-02    0.1946983747E+00    0.3796846316E-01    0.4867486734E+00
    0.7000000000E+06    0.6416901781E+00    0.1804974981E-02    0.1944046613E+00    0.3799957910E-01    0.4875310280E+00
    0.9000000000E+06    0.6417629247E+00    0.1599095487E-02    0.1941708234E+00    0.3802109848E-01    0.4880801664E+00
    0.1100000000E+07    0.6418070501E+00    0.1451662689E-02    0.1939763992E+00    0.3803747207E-01    0.4884997283E+00
    0.1300000000E+07    0.6418360902E+00    0.1339326015E-02    0.1938098707E+00    0.3805065744E-01    0.4888374562E+00
    0.1500000000E+07    0.6418562725E+00    0.1250018568E-02    0.1936641365E+00    0.3806168093E-01    0.4891190954E+00
    0.1700000000E+07    0.6418708481E+00    0.1176789539E-02    0.1935345111E+00    0.3807114506E-01    0.4893600373E+00
    0.1900000000E+07    0.6418816734E+00    0.1115313773E-02    0.1934177401E+00    0.3807943272E-01    0.4895701819E+00
    0.2100000000E+07    0.6418898812E+00    0.1062739484E-02    0.1933114695E+00    0.3808680194E-01    0.4897562555E+00
    0.2300000000E+07    0.6418962001E+00    0.1017099536E-02    0.1932139416E+00    0.3809343465E-01    0.4899230273E+00
    0.2500000000E+07    0.6419011183E+00    0.9769869893E-03    0.1931238083E+00    0.3809946385E-01    0.4900739960E+00
    0.2700000000E+07    0.6419049743E+00    0.9413652219E-03    0.1930400126E+00    0.3810498962E-01    0.4902118011E+00
    0.2900000000E+07    0.6419080097E+00    0.9094512514E-03    0.1929617107E+00    0.3811008916E-01    0.4903384806E+00
    0.3100000000E+07    0.6419104009E+00    0.8806410810E-03    0.1928882173E+00    0.3811482324E-01    0.4904556400E+00
    0.3300000000E+07    0.6419122795E+00    0.8544602678E-03    0.1928189689E+00    0.3811924053E-01    0.4905645652E+00
    0.3500000000E+07    0.6419137455E+00    0.8305302237E-03    0.1927534959E+00    0.3812338060E-01    0.4906663017E+00
    0.3700000000E+07    0.6419148759E+00    0.8085446505E-03    0.1926914030E+00    0.3812727610E-01    0.4907617104E+00
    0.3900000000E+07    0.6419157309E+00    0.7882526936E-03    0.1926323545E+00    0.3813095421E-01    0.4908515085E+00
    0.4100000000E+07    0.6419163583E+00    0.7694466608E-03    0.1925760622E+00    0.3813443784E-01    0.4909362992E+00
    0.4300000000E+07    0.6419167961E+00    0.7519529119E-03    0.1925222775E+00    0.3813774648E-01    0.4910165949E+00
    0.4500000000E+07    0.6419170752E+00    0.7356249948E-03    0.1924707841E+00    0.3814089682E-01    0.4910928341E+00
    0.4700000000E+07    0.6419172207E+00    0.7203384013E-03    0.1924213926E+00    0.3814390327E-01    0.4911653950E+00
    0.4900000000E+07    0.6419172532E+00    0.7059865090E-03    0.1923739364E+00    0.3814677840E-01    0.4912346060E+00
    0.1000000000E+07    0.6417874611E+00    0.1519915240E-02    0.1940695427E+00    0.3802977458E-01    0.4883024252E+00
    0.3000000000E+07    0.6419092767E+00    0.8946904252E-03    0.1929244006E+00    0.3811249860E-01    0.4903981635E+00
    0.5000000000E+07    0.6419172325E+00    0.6991318509E-03    0.1923508872E+00    0.3814817019E-01    0.4912680463E+00
    0.7000000000E+07    0.6419137964E+00    0.5942590835E-03    0.1919631958E+00    0.3817117678E-01    0.4918148186E+00
    0.9000000000E+07    0.6419080749E+00    0.5263119986E-03    0.1916694199E+00    0.3818818515E-01    0.4922118330E+00
    0.1100000000E+08    0.6419019953E+00    0.4776720384E-03    0.1914326119E+00    0.3820168321E-01    0.4925226808E+00
    0.1300000000E+08    0.6418960896E+00    0.4406225415E-03    0.1912341266E+00    0.3821287439E-01    0.4927776692E+00
    0.1500000000E+08    0.6418905092E+00    0.4111763227E-03    0.1910632167E+00    0.3822243309E-01    0.4929935707E+00
    0.1700000000E+08    0.6418852825E+00    0.3870371403E-03    0.1909131141E+00    0.3823077542E-01    0.4931806238E+00
    0.1900000000E+08    0.6418803964E+00    0.3667764641E-03    0.1907792773E+00    0.3823817627E-01    0.4933455296E+00
    0.2100000000E+08    0.6418758242E+00    0.3494525927E-03    0.1906585094E+00    0.3824482673E-01    0.4934929092E+00
    0.2300000000E+08    0.6418715363E+00    0.3344160799E-03    0.1905484739E+00    0.3825086507E-01    0.4936260814E+00
    0.2500000000E+08    0.6418675044E+00    0.3212025135E-03    0.1904474114E+00    0.3825639453E-01    0.4937475092E+00
    0.2700000000E+08    0.6418637026E+00    0.3094697775E-03    0.1903539628E+00    0.3826149427E-01    0.4938590695E+00
