  Pressure (Pa) 22mC5-400 (mol/kg) 2mC6-400 (mol/kg) 3mC6-400 (mol/kg) 23mC5-400 (mol/kg) C7-400 (mol/kg)
    0.1000000000E+01    0.1581942110E-02    0.7862267115E-02    0.5220418582E-03    0.1851814730E-03    0.6777225058E-02
    0.3000000000E+01    0.4651304557E-02    0.2260060976E-01    0.1505677739E-02    0.5444860952E-03    0.1955029593E-01
    0.5000000000E+01    0.7602583657E-02    0.3615091521E-01    0.2416671363E-02    0.8899757602E-03    0.3138422158E-01
    0.7000000000E+01    0.1044446238E-01    0.4864553733E-01    0.3263282329E-02    0.1222666198E-02    0.4238564128E-01
    0.9000000000E+01    0.1318476057E-01    0.6019779737E-01    0.4052546577E-02    0.1543472176E-02    0.5264540685E-01
    0.1100000000E+02    0.1583054091E-01    0.7090531382E-01    0.4790495946E-02    0.1853219898E-02    0.6224141405E-01
    0.1300000000E+02    0.1838819959E-01    0.8085265184E-01    0.5482331996E-02    0.2152657607E-02    0.7124084441E-01
    0.1500000000E+02    0.2086354418E-01    0.9011344988E-01    0.6132564866E-02    0.2442464690E-02    0.7970195625E-01
    0.1700000000E+02    0.2326186073E-01    0.9875214087E-01    0.6745125098E-02    0.2723259534E-02    0.8767552708E-01
    0.1900000000E+02    0.2558797191E-01    0.1068253558E+00    0.7323454389E-02    0.2995606318E-02    0.9520602439E-01
    0.2100000000E+02    0.2784628739E-01    0.1143830762E+00    0.7870579771E-02    0.3260020915E-02    0.1023325626E+00
    0.2300000000E+02    0.3004084784E-01    0.1214695876E+00    0.8389174638E-02    0.3516976029E-02    0.1090896906E+00
    0.2500000000E+02    0.3217536334E-01    0.1281242715E+00    0.8881609279E-02    0.3766905694E-02    0.1155080435E+00
    0.2700000000E+02    0.3425324704E-01    0.1343822687E+00    0.9349992958E-02    0.4010209210E-02    0.1216148860E+00
    0.2900000000E+02    0.3627764477E-01    0.1402750372E+00    0.9796209151E-02    0.4247254607E-02    0.1274345669E+00
    0.3100000000E+02    0.3825146119E-01    0.1458308237E+00    0.1022194521E-01    0.4478381701E-02    0.1329889020E+00
    0.3300000000E+02    0.4017738282E-01    0.1510750637E+00    0.1062871744E-01    0.4703904793E-02    0.1382974979E+00
    0.3500000000E+02    0.4205789857E-01    0.1560307238E+00    0.1101789245E-01    0.4924115063E-02    0.1433780273E+00
    0.3700000000E+02    0.4389531785E-01    0.1607185943E+00    0.1139070529E-01    0.5139282696E-02    0.1482464638E+00
    0.3900000000E+02    0.4569178682E-01    0.1651575411E+00    0.1174827513E-01    0.5349658779E-02    0.1529172830E+00
    0.4100000000E+02    0.4744930282E-01    0.1693647236E+00    0.1209161858E-01    0.5555476987E-02    0.1574036364E+00
    0.4300000000E+02    0.4916972730E-01    0.1733557830E+00    0.1242166136E-01    0.5756955103E-02    0.1617175004E+00
    0.4500000000E+02    0.5085479742E-01    0.1771450068E+00    0.1273924831E-01    0.5954296365E-02    0.1658698063E+00
    0.4700000000E+02    0.5250613648E-01    0.1807454716E+00    0.1304515213E-01    0.6147690695E-02    0.1698705529E+00
    0.4900000000E+02    0.5412526328E-01    0.1841691687E+00    0.1334008100E-01    0.6337315787E-02    0.1737289053E+00
    0.1000000000E+02    0.1451905106E-01    0.6565158443E-01    0.4427592840E-02    0.1699679840E-02    0.5752195319E-01
    0.3000000000E+02    0.3727070287E-01    0.1430934019E+00    0.1001153869E-01    0.4363537730E-02    0.1302436289E+00
    0.5000000000E+02    0.5492319523E-01    0.1858182072E+00    0.1348363515E-01    0.6430767300E-02    0.1756073411E+00
    0.7000000000E+02    0.6949265320E-01    0.2117678381E+00    0.1591131174E-01    0.8137241936E-02    0.2074192921E+00
    0.9000000000E+02    0.8201933444E-01    0.2284312257E+00    0.1773741716E-01    0.9604672330E-02    0.2314137070E+00
    0.1100000000E+03    0.9310069901E-01    0.2394775743E+00    0.1918085750E-01    0.1090296521E-01    0.2504280609E+00
    0.1300000000E+03    0.1031076999E+00    0.2469070869E+00    0.2036324716E-01    0.1207552639E-01    0.2660403058E+00
    0.1500000000E+03    0.1122847292E+00    0.2518971650E+00    0.2135806056E-01    0.1315095369E-01    0.2792046956E+00
    0.1700000000E+03    0.1208004928E+00    0.2551823499E+00    0.2221258825E-01    0.1414898905E-01    0.2905359930E+00
    0.1900000000E+03    0.1287759256E+00    0.2572422767E+00    0.2295881261E-01    0.1508378465E-01    0.3004503371E+00
    0.2100000000E+03    0.1363004566E+00    0.2584018558E+00    0.2361924112E-01    0.1596580601E-01    0.3092408426E+00
    0.2300000000E+03    0.1434419646E+00    0.2588879410E+00    0.2421023938E-01    0.1680299688E-01    0.3171208225E+00
    0.2500000000E+03    0.1502531272E+00    0.2588629776E+00    0.2474403652E-01    0.1760152212E-01    0.3242498076E+00
    0.2700000000E+03    0.1567756142E+00    0.2584458080E+00    0.2522998462E-01    0.1836625844E-01    0.3307498975E+00
    0.2900000000E+03    0.1630429408E+00    0.2577249855E+00    0.2567537911E-01    0.1910112822E-01    0.3367164163E+00
    0.3100000000E+03    0.1690824602E+00    0.2567675474E+00    0.2608600985E-01    0.1980933270E-01    0.3422250755E+00
    0.3300000000E+03    0.1749167875E+00    0.2556249476E+00    0.2646654168E-01    0.2049351864E-01    0.3473369213E+00
    0.3500000000E+03    0.1805648381E+00    0.2543371572E+00    0.2682078326E-01    0.2115589980E-01    0.3521018332E+00
    0.3700000000E+03    0.1860425978E+00    0.2529355580E+00    0.2715188118E-01    0.2179834708E-01    0.3565610497E+00
    0.3900000000E+03    0.1913637043E+00    0.2514450178E+00    0.2746246259E-01    0.2242245655E-01    0.3607490266E+00
    0.4100000000E+03    0.1965398918E+00    0.2498854051E+00    0.2775474189E-01    0.2302960152E-01    0.3646948264E+00
    0.4300000000E+03    0.2015813359E+00    0.2482727087E+00    0.2803060159E-01    0.2362097289E-01    0.3684231726E+00
    0.4500000000E+03    0.2064969242E+00    0.2466198769E+00    0.2829165457E-01    0.2419761078E-01    0.3719552623E+00
    0.4700000000E+03    0.2112944706E+00    0.2449374538E+00    0.2853929252E-01    0.2476042968E-01    0.3753093970E+00
    0.4900000000E+03    0.2159808875E+00    0.2432340664E+00    0.2877472409E-01    0.2531023856E-01    0.3785014817E+00
    0.1000000000E+03    0.8771369596E-01    0.2345056698E+00    0.1849786173E-01    0.1027180340E-01    0.2414252400E+00
    0.3000000000E+03    0.1660896656E+00    0.2572723175E+00    0.2588472561E-01    0.1945838681E-01    0.3395238659E+00
    0.5000000000E+03    0.2182843708E+00    0.2423767775E+00    0.2888819773E-01    0.2558049226E-01    0.3800411692E+00
    0.7000000000E+03    0.2597153308E+00    0.2253073274E+00    0.3071496864E-01    0.3044245594E-01    0.4049392609E+00
    0.9000000000E+03    0.2943269942E+00    0.2096154635E+00    0.3200221204E-01    0.3450587348E-01    0.4226230651E+00
    0.1100000000E+04    0.3238879529E+00    0.1957378356E+00    0.3298262800E-01    0.3797768999E-01    0.4361800285E+00
    0.1300000000E+04    0.3494392873E+00    0.1835619354E+00    0.3376643127E-01    0.4097972135E-01    0.4470794638E+00
    0.1500000000E+04    0.3716962749E+00    0.1728749300E+00    0.3441423697E-01    0.4359566947E-01    0.4561327770E+00
    0.1700000000E+04    0.3911957579E+00    0.1634650342E+00    0.3496281641E-01    0.4588836666E-01    0.4638339872E+00
    0.1900000000E+04    0.4083613222E+00    0.1551450433E+00    0.3543608468E-01    0.4790740032E-01    0.4705054435E+00
    0.2100000000E+04    0.4235368452E+00    0.1477554786E+00    0.3585042769E-01    0.4969303589E-01    0.4763686682E+00
    0.2300000000E+04    0.4370061911E+00    0.1411622044E+00    0.3621753716E-01    0.5127851929E-01    0.4815821558E+00
    0.2500000000E+04    0.4490061126E+00    0.1352528183E+00    0.3654603086E-01    0.5269158493E-01    0.4862630262E+00
    0.2700000000E+04    0.4597354370E+00    0.1299331122E+00    0.3684243229E-01    0.5395552938E-01    0.4905001456E+00
    0.2900000000E+04    0.4693619922E+00    0.1251239675E+00    0.3711179069E-01    0.5509002100E-01    0.4943624492E+00
    0.3100000000E+04    0.4780280261E+00    0.1207587416E+00    0.3735808869E-01    0.5611173362E-01    0.4979044225E+00
    0.3300000000E+04    0.4858545450E+00    0.1167811071E+00    0.3758451900E-01    0.5703485378E-01    0.5011698296E+00
    0.3500000000E+04    0.4929448341E+00    0.1131432787E+00    0.3779367742E-01    0.5787149269E-01    0.5041943179E+00
    0.3700000000E+04    0.4993873413E+00    0.1098045619E+00    0.3798770066E-01    0.5863202352E-01    0.5070072824E+00
    0.3900000000E+04    0.5052580506E+00    0.1067301667E+00    0.3816836694E-01    0.5932535921E-01    0.5096332268E+00
    0.4100000000E+04    0.5106224454E+00    0.1038902350E+00    0.3833717061E-01    0.5995918225E-01    0.5120927760E+00
    0.4300000000E+04    0.5155371353E+00    0.1012590433E+00    0.3849537849E-01    0.6054013516E-01    0.5144034415E+00
    0.4500000000E+04    0.5200512110E+00    0.9881434605E-01    0.3864407302E-01    0.6107397909E-01    0.5165802083E+00
    0.4700000000E+04    0.5242073722E+00    0.9653683432E-01    0.3878418576E-01    0.6156572601E-01    0.5186359909E+00
    0.4900000000E+04    0.5280428717E+00    0.9440968748E-01    0.3891652364E-01    0.6201974918E-01    0.5205819915E+00
    0.1000000000E+04    0.3096633885E+00    0.2024522681E+00    0.3252224113E-01    0.3630690680E-01    0.4298037941E+00
    0.3000000000E+04    0.4738070583E+00    0.1228896045E+00    0.3723760677E-01    0.5561403497E-01    0.4961705255E+00
    0.5000000000E+04    0.5298507226E+00    0.9339783193E-01    0.3898000032E-01    0.6223382949E-01    0.5215169273E+00
    0.7000000000E+04    0.5552442790E+00    0.7831486852E-01    0.3997263384E-01    0.6524799877E-01    0.5362813944E+00
    0.9000000000E+04    0.5690499149E+00    0.6899696688E-01    0.4063633367E-01    0.6689573510E-01    0.5463343804E+00
    0.1100000000E+05    0.5775121621E+00    0.6254648189E-01    0.4112032335E-01    0.6791177250E-01    0.5537822292E+00
    0.1300000000E+05    0.5831479042E+00    0.5774124142E-01    0.4149322465E-01    0.6859274376E-01    0.5596028215E+00
    0.1500000000E+05    0.5871340006E+00    0.5397740951E-01    0.4179171700E-01    0.6907759218E-01    0.5643231888E+00
    0.1700000000E+05    0.5900841541E+00    0.5092096375E-01    0.4203746202E-01    0.6943890529E-01    0.5682568999E+00
    0.1900000000E+05    0.5923460202E+00    0.4837098912E-01    0.4224419995E-01    0.6971788127E-01    0.5716042156E+00
    0.2100000000E+05    0.5941297122E+00    0.4619863230E-01    0.4242112924E-01    0.6993946829E-01    0.5745000535E+00
    0.2300000000E+05    0.5955689791E+00    0.4431698355E-01    0.4257467347E-01    0.7011957963E-01    0.5770391922E+00
    0.2500000000E+05    0.5967526518E+00    0.4266499973E-01    0.4270947361E-01    0.7026880648E-01    0.5792904945E+00
    0.2700000000E+05    0.5977418510E+00    0.4119835886E-01    0.4282897798E-01    0.7039445185E-01    0.5813054005E+00
    0.2900000000E+05    0.5985799060E+00    0.3988397821E-01    0.4293580965E-01    0.7050170437E-01    0.5831232397E+00
    0.3100000000E+05    0.5992983282E+00    0.3869658150E-01    0.4303200416E-01    0.7059434597E-01    0.5847746824E+00
    0.3300000000E+05    0.5999205466E+00    0.3761646799E-01    0.4311916861E-01    0.7067519498E-01    0.5862840572E+00
    0.3500000000E+05    0.6004643202E+00    0.3662801603E-01    0.4319859095E-01    0.7074639261E-01    0.5876709506E+00
    0.3700000000E+05    0.6009433403E+00    0.3571865118E-01    0.4327131708E-01    0.7080959357E-01    0.5889513378E+00
    0.3900000000E+05    0.6013683231E+00    0.3487811735E-01    0.4333820630E-01    0.7086609604E-01    0.5901384002E+00
    0.4100000000E+05    0.6017477691E+00    0.3409795107E-01    0.4339997199E-01    0.7091693229E-01    0.5912431260E+00
    0.4300000000E+05    0.6020885033E+00    0.3337109502E-01    0.4345721196E-01    0.7096293317E-01    0.5922747605E+00
    0.4500000000E+05    0.6023960657E+00    0.3269160914E-01    0.4351043142E-01    0.7100477473E-01    0.5932411475E+00
    0.4700000000E+05    0.6026749978E+00    0.3205445145E-01    0.4356006060E-01    0.7104301253E-01    0.5941489924E+00
    0.4900000000E+05    0.6029290560E+00    0.3145530946E-01    0.4360646844E-01    0.7107810729E-01    0.5950040670E+00
    0.1000000000E+05    0.5737451154E+00    0.6551090924E-01    0.4089543626E-01    0.6745870216E-01    0.5503078071E+00
    0.3000000000E+05    0.5989524506E+00    0.3927574852E-01    0.4298512754E-01    0.7054965674E-01    0.5839681130E+00
    0.5000000000E+05    0.6030477573E+00    0.3116881324E-01    0.4362856559E-01    0.7109459893E-01    0.5954134044E+00
    0.7000000000E+05    0.6046596073E+00    0.2675412551E-01    0.4395985076E-01    0.7132657580E-01    0.6017537644E+00
    0.9000000000E+05    0.6055111272E+00    0.2385658282E-01    0.4416530276E-01    0.7145865062E-01    0.6059425287E+00
    0.1100000000E+06    0.6060342360E+00    0.2176116032E-01    0.4430603966E-01    0.7154578730E-01    0.6089822972E+00
    0.1300000000E+06    0.6063866422E+00    0.2015203811E-01    0.4440864899E-01    0.7160862385E-01    0.6113219357E+00
    0.1500000000E+06    0.6066393104E+00    0.1886462175E-01    0.4448673346E-01    0.7165670468E-01    0.6131970362E+00
    0.1700000000E+06    0.6068287911E+00    0.1780337219E-01    0.4454803843E-01    0.7169507965E-01    0.6147449215E+00
    0.1900000000E+06    0.6069757888E+00    0.1690843559E-01    0.4459732428E-01    0.7172668583E-01    0.6160518549E+00
    0.2100000000E+06    0.6070928924E+00    0.1614011010E-01    0.4463768986E-01    0.7175335603E-01    0.6171751621E+00
    0.2300000000E+06    0.6071881886E+00    0.1547086377E-01    0.4467124515E-01    0.7177629795E-01    0.6181546502E+00
    0.2500000000E+06    0.6072671047E+00    0.1488091147E-01    0.4469947959E-01    0.7179634268E-01    0.6190189548E+00
    0.2700000000E+06    0.6073334159E+00    0.1435561346E-01    0.4472347628E-01    0.7181408273E-01    0.6197892817E+00
    0.2900000000E+06    0.6073898282E+00    0.1388386938E-01    0.4474404264E-01    0.7182995316E-01    0.6204817205E+00
    0.3100000000E+06    0.6074383301E+00    0.1345708639E-01    0.4476179342E-01    0.7184428145E-01    0.6211087331E+00
    0.3300000000E+06    0.6074804157E+00    0.1306849322E-01    0.4477720522E-01    0.7185731938E-01    0.6216801447E+00
    0.3500000000E+06    0.6075172282E+00    0.1271267076E-01    0.4479065349E-01    0.7186926415E-01    0.6222038218E+00
    0.3700000000E+06    0.6075496570E+00    0.1238522286E-01    0.4480243804E-01    0.7188027268E-01    0.6226861484E+00
    0.3900000000E+06    0.6075784044E+00    0.1208254009E-01    0.4481280131E-01    0.7189047164E-01    0.6231323681E+00
    0.4100000000E+06    0.6076040319E+00    0.1180162719E-01    0.4482194143E-01    0.7189996456E-01    0.6235468337E+00
    0.4300000000E+06    0.6076269935E+00    0.1153997452E-01    0.4483002199E-01    0.7190883702E-01    0.6239331936E+00
    0.4500000000E+06    0.6076476606E+00    0.1129546117E-01    0.4483717919E-01    0.7191716047E-01    0.6242945318E+00
    0.4700000000E+06    0.6076663394E+00    0.1106628059E-01    0.4484352739E-01    0.7192499512E-01    0.6246334763E+00
    0.4900000000E+06    0.6076832848E+00    0.1085088300E-01    0.4484916327E-01    0.7193239210E-01    0.6249522821E+00
    0.1000000000E+06    0.6058007836E+00    0.2273345995E-01    0.4424165802E-01    0.7150615358E-01    0.6075707989E+00
    0.3000000000E+06    0.6074149649E+00    0.1366531732E-01    0.4475323745E-01    0.7183729285E-01    0.6208027383E+00
    0.5000000000E+06    0.6076911756E+00    0.1074792740E-01    0.4485174031E-01    0.7193594039E-01    0.6251047521E+00
    0.7000000000E+06    0.6077953975E+00    0.9166391505E-02    0.4488062783E-01    0.7199187346E-01    0.6274551518E+00
    0.9000000000E+06    0.6078459768E+00    0.8135325672E-02    0.4488645996E-01    0.7203048253E-01    0.6289979302E+00
    0.1100000000E+07    0.6078736170E+00    0.7394162229E-02    0.4488256907E-01    0.7205983257E-01    0.6301137420E+00
    0.1300000000E+07    0.6078896365E+00    0.6827902464E-02    0.4487407839E-01    0.7208345609E-01    0.6309710338E+00
    0.1500000000E+07    0.6078991088E+00    0.6376805412E-02    0.4486330606E-01    0.7210320073E-01    0.6316575336E+00
    0.1700000000E+07    0.6079046155E+00    0.6006324983E-02    0.4485141447E-01    0.7212014947E-01    0.6322240944E+00
    0.1900000000E+07    0.6079075922E+00    0.5694899715E-02    0.4483902732E-01    0.7213498983E-01    0.6327025289E+00
    0.2100000000E+07    0.6079088921E+00    0.5428278339E-02    0.4482649449E-01    0.7214818476E-01    0.6331139111E+00
    0.2300000000E+07    0.6079090486E+00    0.5196610582E-02    0.4481401741E-01    0.7216006051E-01    0.6334728380E+00
    0.2500000000E+07    0.6079084088E+00    0.4992839258E-02    0.4480171308E-01    0.7217085548E-01    0.6337897896E+00
    0.2700000000E+07    0.6079072063E+00    0.4811757041E-02    0.4478964870E-01    0.7218074903E-01    0.6340725140E+00
    0.2900000000E+07    0.6079056024E+00    0.4649425706E-02    0.4477786126E-01    0.7218987945E-01    0.6343268826E+00
    0.3100000000E+07    0.6079037108E+00    0.4502803862E-02    0.4476636916E-01    0.7219835558E-01    0.6345574382E+00
    0.3300000000E+07    0.6079016134E+00    0.4369500092E-02    0.4475517910E-01    0.7220626458E-01    0.6347677592E+00
    0.3500000000E+07    0.6078993701E+00    0.4247604419E-02    0.4474429052E-01    0.7221367735E-01    0.6349607087E+00
    0.3700000000E+07    0.6078970250E+00    0.4135570325E-02    0.4473369833E-01    0.7222065229E-01    0.6351386092E+00
    0.3900000000E+07    0.6078946113E+00    0.4032130299E-02    0.4472339465E-01    0.7222723810E-01    0.6353033671E+00
    0.4100000000E+07    0.6078921537E+00    0.3936234218E-02    0.4471336999E-01    0.7223347580E-01    0.6354565646E+00
    0.4300000000E+07    0.6078896713E+00    0.3847003594E-02    0.4470361401E-01    0.7223940025E-01    0.6355995275E+00
    0.4500000000E+07    0.6078871783E+00    0.3763697072E-02    0.4469411601E-01    0.7224504134E-01    0.6357333762E+00
    0.4700000000E+07    0.6078846860E+00    0.3685684050E-02    0.4468486523E-01    0.7225042490E-01    0.6358590653E+00
    0.4900000000E+07    0.6078822026E+00    0.3612424252E-02    0.4467585111E-01    0.7225557335E-01    0.6359774140E+00
    0.1000000000E+07    0.6078617350E+00    0.7737562856E-02    0.4488531139E-01    0.7204603695E-01    0.6295959504E+00
    0.3000000000E+07    0.6079046868E+00    0.4574313520E-02    0.4477207766E-01    0.7219419342E-01    0.6344448941E+00
    0.5000000000E+07    0.6078809664E+00    0.3577428665E-02    0.4467142957E-01    0.7225806565E-01    0.6360340605E+00
    0.7000000000E+07    0.6078576391E+00    0.3041571080E-02    0.4459315569E-01    0.7229926709E-01    0.6369117645E+00
    0.9000000000E+07    0.6078374294E+00    0.2693974235E-02    0.4452953610E-01    0.7232973074E-01    0.6374937238E+00
    0.1100000000E+08    0.6078199630E+00    0.2444967622E-02    0.4447596781E-01    0.7235390966E-01    0.6379185165E+00
    0.1300000000E+08    0.6078046820E+00    0.2255206949E-02    0.4442968624E-01    0.7237395800E-01    0.6382476513E+00
    0.1500000000E+08    0.6077911359E+00    0.2104338974E-02    0.4438892438E-01    0.7239108305E-01    0.6385132703E+00
    0.1700000000E+08    0.6077789862E+00    0.1980632125E-02    0.4435248868E-01    0.7240602977E-01    0.6387340693E+00
    0.1900000000E+08    0.6077679793E+00    0.1876783266E-02    0.4431953601E-01    0.7241929033E-01    0.6389217841E+00
    0.2100000000E+08    0.6077579223E+00    0.1787975646E-02    0.4428944889E-01    0.7243120690E-01    0.6390842150E+00
    0.2300000000E+08    0.6077486665E+00    0.1710886021E-02    0.4426176148E-01    0.7244202705E-01    0.6392267827E+00
    0.2500000000E+08    0.6077400948E+00    0.1643137176E-02    0.4423611363E-01    0.7245193569E-01    0.6393533913E+00
    0.2700000000E+08    0.6077321137E+00    0.1582977409E-02    0.4421222107E-01    0.7246107455E-01    0.6394669359E+00
