  Pressure (Pa) 22mC5-400 (mol/kg) 2mC6-400 (mol/kg) 3mC6-400 (mol/kg) 23mC5-400 (mol/kg) C7-400 (mol/kg)
    0.1000000000E+01    0.1591897900E-02    0.1569209621E-02    0.3113021143E-02    0.9317316958E-04    0.1347175333E-01
    0.3000000000E+01    0.4737633283E-02    0.4495349599E-02    0.8874884867E-02    0.2772934820E-03    0.3841597950E-01
    0.5000000000E+01    0.7833820637E-02    0.7171773036E-02    0.1409171198E-01    0.4585158849E-03    0.6101217602E-01
    0.7000000000E+01    0.1088185057E-01    0.9631977239E-02    0.1883797779E-01    0.6369216977E-03    0.8158067759E-01
    0.9000000000E+01    0.1388306069E-01    0.1190352385E-01    0.2317515059E-01    0.8125891421E-03    0.1003859167E+00
    0.1100000000E+02    0.1683873817E-01    0.1400930120E-01    0.2715441413E-01    0.9855934880E-03    0.1176481187E+00
    0.1300000000E+02    0.1975012202E-01    0.1596847857E-01    0.3081873363E-01    0.1156007192E-02    0.1335521785E+00
    0.1500000000E+02    0.2261840537E-01    0.1779723642E-01    0.3420444302E-01    0.1323900026E-02    0.1482544796E+00
    0.1700000000E+02    0.2544473757E-01    0.1950933155E-01    0.3734247781E-01    0.1489339204E-02    0.1618881924E+00
    0.1900000000E+02    0.2823022618E-01    0.2111653884E-01    0.4025934277E-01    0.1652389493E-02    0.1745674330E+00
    0.2100000000E+02    0.3097593884E-01    0.2262899997E-01    0.4297787859E-01    0.1813113329E-02    0.1863905576E+00
    0.2300000000E+02    0.3368290506E-01    0.2405550106E-01    0.4551787458E-01    0.1971570918E-02    0.1974427972E+00
    0.2500000000E+02    0.3635211794E-01    0.2540369557E-01    0.4789656244E-01    0.2127820335E-02    0.2077983789E+00
    0.2700000000E+02    0.3898453570E-01    0.2668028454E-01    0.5012901702E-01    0.2281917616E-02    0.2175222503E+00
    0.2900000000E+02    0.4158108328E-01    0.2789116352E-01    0.5222848401E-01    0.2433916854E-02    0.2266714873E+00
    0.3100000000E+02    0.4414265372E-01    0.2904154294E-01    0.5420664966E-01    0.2583870271E-02    0.2352964545E+00
    0.3300000000E+02    0.4667010954E-01    0.3013604754E-01    0.5607386404E-01    0.2731828310E-02    0.2434417656E+00
    0.3500000000E+02    0.4916428405E-01    0.3117879886E-01    0.5783932707E-01    0.2877839703E-02    0.2511470826E+00
    0.3700000000E+02    0.5162598256E-01    0.3217348409E-01    0.5951124417E-01    0.3021951545E-02    0.2584477862E+00
    0.3900000000E+02    0.5405598357E-01    0.3312341389E-01    0.6109695742E-01    0.3164209364E-02    0.2653755398E+00
    0.4100000000E+02    0.5645503985E-01    0.3403157104E-01    0.6260305640E-01    0.3304657182E-02    0.2719587660E+00
    0.4300000000E+02    0.5882387954E-01    0.3490065180E-01    0.6403547235E-01    0.3443337583E-02    0.2782230521E+00
    0.4500000000E+02    0.6116320711E-01    0.3573310098E-01    0.6539955859E-01    0.3580291765E-02    0.2841914962E+00
    0.4700000000E+02    0.6347370435E-01    0.3653114200E-01    0.6670015937E-01    0.3715559600E-02    0.2898850031E+00
    0.4900000000E+02    0.6575603126E-01    0.3729680261E-01    0.6794166911E-01    0.3849179687E-02    0.2953225397E+00
    0.1000000000E+02    0.1536651247E-01    0.1297585793E-01    0.2520666366E-01    0.8994196094E-03    0.1091976018E+00
    0.3000000000E+02    0.4286618604E-01    0.2847361394E-01    0.5323205365E-01    0.2509146096E-02    0.2310465916E+00
    0.5000000000E+02    0.6688683135E-01    0.3766807597E-01    0.6854152784E-01    0.3915383550E-02    0.2979507711E+00
    0.7000000000E+02    0.8816920151E-01    0.4377009333E-01    0.7823700533E-01    0.5161452192E-02    0.3405341125E+00
    0.9000000000E+02    0.1072507426E+00    0.4803723163E-01    0.8495119330E-01    0.6278783597E-02    0.3701688817E+00
    0.1100000000E+03    0.1245311326E+00    0.5109411203E-01    0.8988832520E-01    0.7290752918E-02    0.3920658195E+00
    0.1300000000E+03    0.1403140213E+00    0.5329984796E-01    0.9367858443E-01    0.8215119573E-02    0.4089563748E+00
    0.1500000000E+03    0.1548344635E+00    0.5488153681E-01    0.9668435351E-01    0.9065631456E-02    0.4224138998E+00
    0.1700000000E+03    0.1682774523E+00    0.5599240637E-01    0.9912912117E-01    0.9853108684E-02    0.4334103429E+00
    0.1900000000E+03    0.1807907444E+00    0.5674070403E-01    0.1011583785E+00    0.1058619362E-01    0.4425794988E+00
    0.2100000000E+03    0.1924939273E+00    0.5720553447E-01    0.1028710130E+00    0.1127188116E-01    0.4503528620E+00
    0.2300000000E+03    0.2034849540E+00    0.5744621845E-01    0.1043366441E+00    0.1191590084E-01    0.4570347176E+00
    0.2500000000E+03    0.2138449325E+00    0.5750815359E-01    0.1056057421E+00    0.1252299695E-01    0.4628460185E+00
    0.2700000000E+03    0.2236416913E+00    0.5742665607E-01    0.1067158121E+00    0.1309713710E-01    0.4679512257E+00
    0.2900000000E+03    0.2329324718E+00    0.5722957228E-01    0.1076953218E+00    0.1364166966E-01    0.4724753736E+00
    0.3100000000E+03    0.2417659864E+00    0.5693910772E-01    0.1085662795E+00    0.1415944412E-01    0.4765152821E+00
    0.3300000000E+03    0.2501840113E+00    0.5657313959E-01    0.1093459753E+00    0.1465290427E-01    0.4801471371E+00
    0.3500000000E+03    0.2582226317E+00    0.5614617832E-01    0.1100481865E+00    0.1512416100E-01    0.4834317424E+00
    0.3700000000E+03    0.2659132254E+00    0.5567008443E-01    0.1106840303E+00    0.1557504988E-01    0.4864182400E+00
    0.3900000000E+03    0.2732832467E+00    0.5515461113E-01    0.1112625789E+00    0.1600717697E-01    0.4891467961E+00
    0.4100000000E+03    0.2803568569E+00    0.5460782048E-01    0.1117913115E+00    0.1642195569E-01    0.4916505749E+00
    0.4300000000E+03    0.2871554346E+00    0.5403640633E-01    0.1122764504E+00    0.1682063670E-01    0.4939572115E+00
    0.4500000000E+03    0.2936979925E+00    0.5344594755E-01    0.1127232156E+00    0.1720433229E-01    0.4960899256E+00
    0.4700000000E+03    0.3000015202E+00    0.5284110839E-01    0.1131360201E+00    0.1757403636E-01    0.4980683765E+00
    0.4900000000E+03    0.3060812675E+00    0.5222579849E-01    0.1135186202E+00    0.1793064108E-01    0.4999093251E+00
    0.1000000000E+03    0.1160952278E+00    0.4969040583E-01    0.8759394761E-01    0.6796718868E-02    0.3818768766E+00
    0.3000000000E+03    0.2374036298E+00    0.5709480650E-01    0.1081431946E+00    0.1390374035E-01    0.4745506831E+00
    0.5000000000E+03    0.3090415721E+00    0.5191526460E-01    0.1136996176E+00    0.1810428560E-01    0.5007828115E+00
    0.7000000000E+03    0.3592262758E+00    0.4571714636E-01    0.1163167591E+00    0.2104900821E-01    0.5136460289E+00
    0.9000000000E+03    0.3969895355E+00    0.4016598150E-01    0.1178418431E+00    0.2326633054E-01    0.5214288274E+00
    0.1100000000E+04    0.4265503281E+00    0.3548012989E-01    0.1188393282E+00    0.2500313688E-01    0.5267051623E+00
    0.1300000000E+04    0.4503032935E+00    0.3158030302E-01    0.1195410844E+00    0.2639958704E-01    0.5305483812E+00
    0.1500000000E+04    0.4697646786E+00    0.2833503050E-01    0.1200602623E+00    0.2754444966E-01    0.5334898160E+00
    0.1700000000E+04    0.4859603007E+00    0.2562066320E-01    0.1204587669E+00    0.2849779640E-01    0.5358241815E+00
    0.1900000000E+04    0.4996151121E+00    0.2333420086E-01    0.1207733589E+00    0.2930209104E-01    0.5377288220E+00
    0.2100000000E+04    0.5112576408E+00    0.2139322925E-01    0.1210272594E+00    0.2998829954E-01    0.5393172108E+00
    0.2300000000E+04    0.5212824999E+00    0.1973268232E-01    0.1212358639E+00    0.3057954758E-01    0.5406655240E+00
    0.2500000000E+04    0.5299900433E+00    0.1830130517E-01    0.1214097846E+00    0.3109344113E-01    0.5418269122E+00
    0.2700000000E+04    0.5376126102E+00    0.1705860420E-01    0.1215565746E+00    0.3154360252E-01    0.5428396569E+00
    0.2900000000E+04    0.5443324612E+00    0.1597241390E-01    0.1216817560E+00    0.3194072038E-01    0.5437320725E+00
    0.3100000000E+04    0.5502943495E+00    0.1501701473E-01    0.1217894589E+00    0.3229328573E-01    0.5445255804E+00
    0.3300000000E+04    0.5556145193E+00    0.1417169464E-01    0.1218828338E+00    0.3260811878E-01    0.5452367045E+00
    0.3500000000E+04    0.5603872593E+00    0.1341965315E-01    0.1219643251E+00    0.3289075291E-01    0.5458784090E+00
    0.3700000000E+04    0.5646897516E+00    0.1274716477E-01    0.1220358580E+00    0.3314571855E-01    0.5464610170E+00
    0.3900000000E+04    0.5685857063E+00    0.1214293802E-01    0.1220989691E+00    0.3337675624E-01    0.5469928573E+00
    0.4100000000E+04    0.5721281204E+00    0.1159762141E-01    0.1221548994E+00    0.3358697823E-01    0.5474807291E+00
    0.4300000000E+04    0.5753613956E+00    0.1110342043E-01    0.1222046618E+00    0.3377899257E-01    0.5479302412E+00
    0.4500000000E+04    0.5783229797E+00    0.1065379850E-01    0.1222490910E+00    0.3395499938E-01    0.5483460650E+00
    0.4700000000E+04    0.5810446513E+00    0.1024324213E-01    0.1222888809E+00    0.3411686612E-01    0.5487321243E+00
    0.4900000000E+04    0.5835535339E+00    0.9867075080E-02    0.1223246128E+00    0.3426618705E-01    0.5490917410E+00
    0.1000000000E+04    0.4126181509E+00    0.3771727996E-01    0.1183879460E+00    0.2418443382E-01    0.5242945848E+00
    0.3000000000E+04    0.5474003039E+00    0.1547976300E-01    0.1217375761E+00    0.3212211177E-01    0.5441400605E+00
    0.5000000000E+04    0.5847355847E+00    0.9690618125E-02    0.1223411133E+00    0.3433657820E-01    0.5492625351E+00
    0.7000000000E+04    0.6014199601E+00    0.7253742595E-02    0.1225447155E+00    0.3533364523E-01    0.5518000639E+00
    0.9000000000E+04    0.6107225479E+00    0.5935543479E-02    0.1226218916E+00    0.3589391196E-01    0.5533727635E+00
    0.1100000000E+05    0.6166135046E+00    0.5109949654E-02    0.1226461717E+00    0.3625152740E-01    0.5544679026E+00
    0.1300000000E+05    0.6206643970E+00    0.4541646752E-02    0.1226448710E+00    0.3649941453E-01    0.5552871283E+00
    0.1500000000E+05    0.6236149781E+00    0.4124102017E-02    0.1226301409E+00    0.3668142619E-01    0.5559304094E+00
    0.1700000000E+05    0.6258571987E+00    0.3802477605E-02    0.1226080482E+00    0.3682085818E-01    0.5564535162E+00
    0.1900000000E+05    0.6276174103E+00    0.3545766203E-02    0.1225818709E+00    0.3693119938E-01    0.5568902770E+00
    0.2100000000E+05    0.6290351877E+00    0.3335133360E-02    0.1225534830E+00    0.3702078962E-01    0.5572625371E+00
    0.2300000000E+05    0.6302011536E+00    0.3158475334E-02    0.1225239997E+00    0.3709505831E-01    0.5575851067E+00
    0.2500000000E+05    0.6311766508E+00    0.3007652091E-02    0.1224941034E+00    0.3715769054E-01    0.5578684254E+00
    0.2700000000E+05    0.6320046533E+00    0.2876980743E-02    0.1224642193E+00    0.3721127496E-01    0.5581200908E+00
    0.2900000000E+05    0.6327161472E+00    0.2762367887E-02    0.1224346138E+00    0.3725768313E-01    0.5583457808E+00
    0.3100000000E+05    0.6333340292E+00    0.2660785900E-02    0.1224054535E+00    0.3729830182E-01    0.5585498357E+00
    0.3300000000E+05    0.6338755790E+00    0.2569944013E-02    0.1223768403E+00    0.3733418042E-01    0.5587356378E+00
    0.3500000000E+05    0.6343540792E+00    0.2488074554E-02    0.1223488337E+00    0.3736612783E-01    0.5589058675E+00
    0.3700000000E+05    0.6347799061E+00    0.2413789857E-02    0.1223214652E+00    0.3739477764E-01    0.5590626805E+00
    0.3900000000E+05    0.6351612814E+00    0.2345983959E-02    0.1222947478E+00    0.3742063328E-01    0.5592078329E+00
    0.4100000000E+05    0.6355048036E+00    0.2283763502E-02    0.1222686816E+00    0.3744409988E-01    0.5593427720E+00
    0.4300000000E+05    0.6358158287E+00    0.2226398176E-02    0.1222432588E+00    0.3746550720E-01    0.5594687028E+00
    0.4500000000E+05    0.6360987496E+00    0.2173284504E-02    0.1222184660E+00    0.3748512643E-01    0.5595866381E+00
    0.4700000000E+05    0.6363572024E+00    0.2123918965E-02    0.1221942863E+00    0.3750318266E-01    0.5596974363E+00
    0.4900000000E+05    0.6365942230E+00    0.2077877725E-02    0.1221707009E+00    0.3751986433E-01    0.5598018304E+00
    0.1000000000E+05    0.6139672307E+00    0.5480440484E-02    0.1226383994E+00    0.3609053219E-01    0.5539639206E+00
    0.3000000000E+05    0.6330356002E+00    0.2710105545E-02    0.1224199704E+00    0.3727864399E-01    0.5584502823E+00
    0.5000000000E+05    0.6367055105E+00    0.2055989176E-02    0.1221591248E+00    0.3752774037E-01    0.5598518264E+00
    0.7000000000E+05    0.6382555845E+00    0.1728426347E-02    0.1219539086E+00    0.3764121408E-01    0.5606307305E+00
    0.9000000000E+05    0.6391096947E+00    0.1522377017E-02    0.1217873676E+00    0.3770825642E-01    0.5611548610E+00
    0.1100000000E+06    0.6396501426E+00    0.1377215193E-02    0.1216476258E+00    0.3775353434E-01    0.5615438076E+00
    0.1300000000E+06    0.6400226394E+00    0.1267724487E-02    0.1215273272E+00    0.3778671375E-01    0.5618501530E+00
    0.1500000000E+06    0.6402947740E+00    0.1181271743E-02    0.1214217289E+00    0.3781239883E-01    0.5621013006E+00
    0.1700000000E+06    0.6405021725E+00    0.1110728017E-02    0.1213276211E+00    0.3783307950E-01    0.5623132021E+00
    0.1900000000E+06    0.6406653918E+00    0.1051721277E-02    0.1212427376E+00    0.3785022869E-01    0.5624958984E+00
    0.2100000000E+06    0.6407971237E+00    0.1001399643E-02    0.1211654215E+00    0.3786477805E-01    0.5626560891E+00
    0.2300000000E+06    0.6409056269E+00    0.9578120530E-03    0.1210944254E+00    0.3787734835E-01    0.5627984520E+00
    0.2500000000E+06    0.6409965071E+00    0.9195720861E-03    0.1210287874E+00    0.3788837070E-01    0.5629263728E+00
    0.2700000000E+06    0.6410737024E+00    0.8856635630E-03    0.1209677496E+00    0.3789815492E-01    0.5630423761E+00
    0.2900000000E+06    0.6411400605E+00    0.8553222275E-03    0.1209107050E+00    0.3790693000E-01    0.5631483911E+00
    0.3100000000E+06    0.6411976914E+00    0.8279606314E-03    0.1208571594E+00    0.3791486930E-01    0.5632459231E+00
    0.3300000000E+06    0.6412481917E+00    0.8031187219E-03    0.1208067051E+00    0.3792210682E-01    0.5633361679E+00
    0.3500000000E+06    0.6412927917E+00    0.7804303392E-03    0.1207590023E+00    0.3792874794E-01    0.5634200900E+00
    0.3700000000E+06    0.6413324547E+00    0.7595998993E-03    0.1207137641E+00    0.3793487690E-01    0.5634984783E+00
    0.3900000000E+06    0.6413679455E+00    0.7403857912E-03    0.1206707465E+00    0.3794056191E-01    0.5635719855E+00
    0.4100000000E+06    0.6413998792E+00    0.7225883161E-03    0.1206297403E+00    0.3794585889E-01    0.5636411577E+00
    0.4300000000E+06    0.6414287561E+00    0.7060407674E-03    0.1205905644E+00    0.3795081422E-01    0.5637064557E+00
    0.4500000000E+06    0.6414549870E+00    0.6906027291E-03    0.1205530614E+00    0.3795546672E-01    0.5637682723E+00
    0.4700000000E+06    0.6414789126E+00    0.6761549677E-03    0.1205170931E+00    0.3795984916E-01    0.5638269444E+00
    0.4900000000E+06    0.6415008178E+00    0.6625954876E-03    0.1204825381E+00    0.3796398945E-01    0.5638827631E+00
    0.1000000000E+06    0.6394072662E+00    0.1444194269E-02    0.1217146854E+00    0.3773283468E-01    0.5613620926E+00
    0.3000000000E+06    0.6411698570E+00    0.8413002480E-03    0.1208835221E+00    0.3791099497E-01    0.5631981366E+00
    0.5000000000E+06    0.6415110891E+00    0.6561209207E-03    0.1204657565E+00    0.3796597641E-01    0.5639096830E+00
    0.7000000000E+06    0.6416527476E+00    0.5571838352E-03    0.1201836609E+00    0.3799736002E-01    0.5643454875E+00
    0.9000000000E+06    0.6417287810E+00    0.4931898296E-03    0.1199701569E+00    0.3801907235E-01    0.5646572137E+00
    0.1100000000E+07    0.6417754000E+00    0.4474246958E-03    0.1197982340E+00    0.3803559236E-01    0.5648988198E+00
    0.1300000000E+07    0.6418064126E+00    0.4125880791E-03    0.1196542616E+00    0.3804889357E-01    0.5650955352E+00
    0.1500000000E+07    0.6418282058E+00    0.3849140949E-03    0.1195303859E+00    0.3806001166E-01    0.5652611335E+00
    0.1700000000E+07    0.6418441298E+00    0.3622363387E-03    0.1194216638E+00    0.3806955497E-01    0.5654039358E+00
    0.1900000000E+07    0.6418561059E+00    0.3432081292E-03    0.1193247801E+00    0.3807791020E-01    0.5655293433E+00
    0.2100000000E+07    0.6418653115E+00    0.3269422605E-03    0.1192374024E+00    0.3808533800E-01    0.5656410554E+00
    0.2300000000E+07    0.6418725069E+00    0.3128271650E-03    0.1191578272E+00    0.3809202217E-01    0.5657417135E+00
    0.2500000000E+07    0.6418782033E+00    0.3004256900E-03    0.1190847719E+00    0.3809809704E-01    0.5658332684E+00
    0.2700000000E+07    0.6418827566E+00    0.2894159069E-03    0.1190172468E+00    0.3810366373E-01    0.5659171999E+00
    0.2900000000E+07    0.6418864218E+00    0.2795547644E-03    0.1189544718E+00    0.3810880023E-01    0.5659946571E+00
    0.3100000000E+07    0.6418893857E+00    0.2706548450E-03    0.1188958214E+00    0.3811356791E-01    0.5660665496E+00
    0.3300000000E+07    0.6418917882E+00    0.2625689835E-03    0.1188407861E+00    0.3811801592E-01    0.5661336093E+00
    0.3500000000E+07    0.6418937360E+00    0.2551797849E-03    0.1187889453E+00    0.3812218426E-01    0.5661964335E+00
    0.3700000000E+07    0.6418953115E+00    0.2483922982E-03    0.1187399482E+00    0.3812610585E-01    0.5662555164E+00
    0.3900000000E+07    0.6418965796E+00    0.2421287804E-03    0.1186934984E+00    0.3812980818E-01    0.5663112709E+00
    0.4100000000E+07    0.6418975916E+00    0.2363248811E-03    0.1186493441E+00    0.3813331436E-01    0.5663640457E+00
    0.4300000000E+07    0.6418983889E+00    0.2309268127E-03    0.1186072686E+00    0.3813664406E-01    0.5664141378E+00
    0.4500000000E+07    0.6418990050E+00    0.2258892192E-03    0.1185670849E+00    0.3813981415E-01    0.5664618023E+00
    0.4700000000E+07    0.6418994673E+00    0.2211735483E-03    0.1185286300E+00    0.3814283917E-01    0.5665072597E+00
    0.4900000000E+07    0.6418997984E+00    0.2167467920E-03    0.1184917612E+00    0.3814573178E-01    0.5665507022E+00
    0.1000000000E+07    0.6417546429E+00    0.4686048576E-03    0.1198800375E+00    0.3802782627E-01    0.5647848237E+00
    0.3000000000E+07    0.6418879818E+00    0.2749946515E-03    0.1189246652E+00    0.3811122685E-01    0.5660312497E+00
    0.5000000000E+07    0.6418999207E+00    0.2146327109E-03    0.1184738816E+00    0.3814713194E-01    0.5665717212E+00
    0.7000000000E+07    0.6418987070E+00    0.1823047136E-03    0.1181756128E+00    0.3817026858E-01    0.5669180319E+00
    0.9000000000E+07    0.6418944627E+00    0.1613765493E-03    0.1179523323E+00    0.3818736323E-01    0.5671724915E+00
    0.1100000000E+08    0.6418894611E+00    0.1464039514E-03    0.1177738111E+00    0.3820092414E-01    0.5673733927E+00
    0.1300000000E+08    0.6418843894E+00    0.1350044182E-03    0.1176250703E+00    0.3821216386E-01    0.5675392338E+00
    0.1500000000E+08    0.6418794803E+00    0.1259476752E-03    0.1174975841E+00    0.3822176156E-01    0.5676803557E+00
    0.1700000000E+08    0.6418748102E+00    0.1185255443E-03    0.1173860341E+00    0.3823013618E-01    0.5678031216E+00
    0.1900000000E+08    0.6418703959E+00    0.1122976320E-03    0.1172868778E+00    0.3823756433E-01    0.5679117233E+00
    0.2100000000E+08    0.6418662305E+00    0.1069737245E-03    0.1171976367E+00    0.3824423832E-01    0.5680090676E+00
    0.2300000000E+08    0.6418622986E+00    0.1023537338E-03    0.1171165086E+00    0.3825029720E-01    0.5680972519E+00
    0.2500000000E+08    0.6418585817E+00    0.9829461582E-04    0.1170421421E+00    0.3825584482E-01    0.5681778393E+00
    0.2700000000E+08    0.6418550616E+00    0.9469101914E-04    0.1169734973E+00    0.3826096077E-01    0.5682520252E+00
