  Pressure (Pa) 22mC5-400 (mol/kg) 2mC6-400 (mol/kg) 3mC6-400 (mol/kg) 23mC5-400 (mol/kg) C7-400 (mol/kg)
    0.1000000000E+01    0.1590817209E-02    0.1588960291E-02    0.4216976302E-02    0.5586598490E-03    0.1710727161E-02
    0.3000000000E+01    0.4728092832E-02    0.4659438039E-02    0.1238806089E-01    0.1660413545E-02    0.5026028412E-02
    0.5000000000E+01    0.7807819800E-02    0.7593838527E-02    0.2022695423E-01    0.2741972673E-02    0.8207171142E-02
    0.7000000000E+01    0.1083184037E-01    0.1040018104E-01    0.2775403369E-01    0.3803983596E-02    0.1126237262E-01
    0.9000000000E+01    0.1380191698E-01    0.1308586358E-01    0.3498803302E-01    0.4847064670E-02    0.1419918782E-01
    0.1100000000E+02    0.1671973648E-01    0.1565772278E-01    0.4194620510E-01    0.5871807744E-02    0.1702457499E-01
    0.1300000000E+02    0.1958691418E-01    0.1812208701E-01    0.4864446570E-01    0.6878779560E-02    0.1974495353E-01
    0.1500000000E+02    0.2240499757E-01    0.2048482343E-01    0.5509752082E-01    0.7868523070E-02    0.2236625528E-01
    0.1700000000E+02    0.2517546985E-01    0.2275137989E-01    0.6131897973E-01    0.8841558669E-02    0.2489397007E-01
    0.1900000000E+02    0.2789975321E-01    0.2492682225E-01    0.6732145553E-01    0.9798385356E-02    0.2733318623E-01
    0.2100000000E+02    0.3057921197E-01    0.2701586775E-01    0.7311665491E-01    0.1073948182E-01    0.2968862675E-01
    0.2300000000E+02    0.3321515547E-01    0.2902291494E-01    0.7871545829E-01    0.1166530746E-01    0.3196468152E-01
    0.2500000000E+02    0.3580884078E-01    0.3095207046E-01    0.8412799164E-01    0.1257630335E-01    0.3416543634E-01
    0.2700000000E+02    0.3836147538E-01    0.3280717319E-01    0.8936369093E-01    0.1347289315E-01    0.3629469883E-01
    0.2900000000E+02    0.4087421946E-01    0.3459181602E-01    0.9443136007E-01    0.1435548394E-01    0.3835602180E-01
    0.3100000000E+02    0.4334818831E-01    0.3630936544E-01    0.9933922311E-01    0.1522446704E-01    0.4035272426E-01
    0.3300000000E+02    0.4578445443E-01    0.3796297931E-01    0.1040949713E+00    0.1608021877E-01    0.4228791044E-01
    0.3500000000E+02    0.4818404957E-01    0.3955562297E-01    0.1087058058E+00    0.1692310115E-01    0.4416448689E-01
    0.3700000000E+02    0.5054796667E-01    0.4109008385E-01    0.1131784761E+00    0.1775346256E-01    0.4598517806E-01
    0.3900000000E+02    0.5287716164E-01    0.4256898473E-01    0.1175193149E+00    0.1857163842E-01    0.4775254037E-01
    0.4100000000E+02    0.5517255510E-01    0.4399479584E-01    0.1217342701E+00    0.1937795175E-01    0.4946897505E-01
    0.4300000000E+02    0.5743503398E-01    0.4536984588E-01    0.1258289338E+00    0.2017271376E-01    0.5113673973E-01
    0.4500000000E+02    0.5966545308E-01    0.4669633213E-01    0.1298085681E+00    0.2095622439E-01    0.5275795909E-01
    0.4700000000E+02    0.6186463647E-01    0.4797632965E-01    0.1336781296E+00    0.2172877279E-01    0.5433463454E-01
    0.4900000000E+02    0.6403337891E-01    0.4921179970E-01    0.1374422913E+00    0.2249063782E-01    0.5586865304E-01
    0.1000000000E+02    0.1526725628E-01    0.1438561424E-01    0.3850057296E-01    0.5361692463E-02    0.1562539670E-01
    0.3000000000E+02    0.4211598278E-01    0.3545877535E-01    0.9690477468E-01    0.1479165259E-01    0.3936225175E-01
    0.5000000000E+02    0.6510657544E-01    0.4981342062E-01    0.1392862350E+00    0.2286764852E-01    0.5662022635E-01
    0.7000000000E+02    0.8514528047E-01    0.5990953253E-01    0.1715807318E+00    0.2990766320E-01    0.6979554394E-01
    0.9000000000E+02    0.1028656580E+00    0.6715357860E-01    0.1970975338E+00    0.3613400810E-01    0.8022500625E-01
    0.1100000000E+03    0.1187243557E+00    0.7240897186E-01    0.2178304452E+00    0.4170692297E-01    0.8871454331E-01
    0.1300000000E+03    0.1330592204E+00    0.7623464219E-01    0.2350541494E+00    0.4674496336E-01    0.9577973109E-01
    0.1500000000E+03    0.1461259303E+00    0.7900759796E-01    0.2496227206E+00    0.5133785319E-01    0.1017662368E+00
    0.1700000000E+03    0.1581218582E+00    0.8099061270E-01    0.2621306071E+00    0.5555485732E-01    0.1069147991E+00
    0.1900000000E+03    0.1692020663E+00    0.8237180173E-01    0.2730047925E+00    0.5945039372E-01    0.1113984435E+00
    0.2100000000E+03    0.1794902988E+00    0.8328885710E-01    0.2825602125E+00    0.6306789042E-01    0.1153448683E+00
    0.2300000000E+03    0.1890867050E+00    0.8384446540E-01    0.2910344727E+00    0.6644249556E-01    0.1188504748E+00
    0.2500000000E+03    0.1980733738E+00    0.8411643627E-01    0.2986103720E+00    0.6960301950E-01    0.1219894728E+00
    0.2700000000E+03    0.2065183711E+00    0.8416454106E-01    0.3054309610E+00    0.7257335140E-01    0.1248199703E+00
    0.2900000000E+03    0.2144787311E+00    0.8403524070E-01    0.3116098753E+00    0.7537350904E-01    0.1273881542E+00
    0.3100000000E+03    0.2220027064E+00    0.8376502252E-01    0.3172385910E+00    0.7802042833E-01    0.1297312266E+00
    0.3300000000E+03    0.2291314817E+00    0.8338279857E-01    0.3223916248E+00    0.8052856471E-01    0.1318795105E+00
    0.3500000000E+03    0.2359004958E+00    0.8291165755E-01    0.3271303281E+00    0.8291035713E-01    0.1338579858E+00
    0.3700000000E+03    0.2423404722E+00    0.8237016308E-01    0.3315057006E+00    0.8517658970E-01    0.1356874298E+00
    0.3900000000E+03    0.2484782317E+00    0.8177332844E-01    0.3355605087E+00    0.8733667677E-01    0.1373852757E+00
    0.4100000000E+03    0.2543373379E+00    0.8113335702E-01    0.3393309010E+00    0.8939888966E-01    0.1389662672E+00
    0.4300000000E+03    0.2599386162E+00    0.8046021084E-01    0.3428476551E+00    0.9137053856E-01    0.1404429649E+00
    0.4500000000E+03    0.2653005729E+00    0.7976205132E-01    0.3461371512E+00    0.9325811982E-01    0.1418261407E+00
    0.4700000000E+03    0.2704397377E+00    0.7904558406E-01    0.3492221407E+00    0.9506743603E-01    0.1431250901E+00
    0.4900000000E+03    0.2753709446E+00    0.7831633070E-01    0.3521223563E+00    0.9680369468E-01    0.1443478796E+00
    0.1000000000E+03    0.1110043245E+00    0.6998958705E-01    0.2079698706E+00    0.3899393565E-01    0.8467501870E-01
    0.3000000000E+03    0.2182925443E+00    0.8391578492E-01    0.3144880032E+00    0.7671516789E-01    0.1285857932E+00
    0.5000000000E+03    0.2777627940E+00    0.7794836512E-01    0.3535086382E+00    0.9764591241E-01    0.1449329493E+00
    0.7000000000E+03    0.3173355258E+00    0.7067108832E-01    0.3747424794E+00    0.1115863330E+00    0.1539498371E+00
    0.9000000000E+03    0.3457987039E+00    0.6429478186E-01    0.3884261520E+00    0.1216218285E+00    0.1598304587E+00
    0.1100000000E+04    0.3672291820E+00    0.5899907500E-01    0.3981224068E+00    0.1291841960E+00    0.1640428657E+00
    0.1300000000E+04    0.3838903041E+00    0.5462643237E-01    0.4054251201E+00    0.1350685885E+00    0.1672472728E+00
    0.1500000000E+04    0.3971674428E+00    0.5098991899E-01    0.4111640578E+00    0.1397618746E+00    0.1697890663E+00
    0.1700000000E+04    0.4079621335E+00    0.4793220305E-01    0.4158177901E+00    0.1435809899E+00    0.1718683646E+00
    0.1900000000E+04    0.4168869546E+00    0.4533090151E-01    0.4196835866E+00    0.1467413559E+00    0.1736100150E+00
    0.2100000000E+04    0.4243721665E+00    0.4309276369E-01    0.4229567964E+00    0.1493943272E+00    0.1750964001E+00
    0.2300000000E+04    0.4307282040E+00    0.4114681313E-01    0.4257716029E+00    0.1516491409E+00    0.1763843322E+00
    0.2500000000E+04    0.4361841664E+00    0.3943866810E-01    0.4282235290E+00    0.1535864380E+00    0.1775144088E+00
    0.2700000000E+04    0.4409124505E+00    0.3792625379E-01    0.4303826101E+00    0.1552669194E+00    0.1785165047E+00
    0.2900000000E+04    0.4450450154E+00    0.3657666199E-01    0.4323014807E+00    0.1567370618E+00    0.1794131514E+00
    0.3100000000E+04    0.4486844045E+00    0.3536386846E-01    0.4340205393E+00    0.1580329926E+00    0.1802217019E+00
    0.3300000000E+04    0.4519113865E+00    0.3426707035E-01    0.4355713612E+00    0.1591831763E+00    0.1809557647E+00
    0.3500000000E+04    0.4547903576E+00    0.3326946685E-01    0.4369790187E+00    0.1602103142E+00    0.1816261803E+00
    0.3700000000E+04    0.4573732293E+00    0.3235735704E-01    0.4382636983E+00    0.1611327120E+00    0.1822417046E+00
    0.3900000000E+04    0.4597022707E+00    0.3151946576E-01    0.4394418546E+00    0.1619652798E+00    0.1828094967E+00
    0.4100000000E+04    0.4618122165E+00    0.3074643479E-01    0.4405270479E+00    0.1627202737E+00    0.1833354742E+00
    0.4300000000E+04    0.4637318513E+00    0.3003043505E-01    0.4415305642E+00    0.1634078534E+00    0.1838245768E+00
    0.4500000000E+04    0.4654852141E+00    0.2936486790E-01    0.4424618801E+00    0.1640365062E+00    0.1842809642E+00
    0.4700000000E+04    0.4670925257E+00    0.2874413325E-01    0.4433290179E+00    0.1646133736E+00    0.1847081675E+00
    0.4900000000E+04    0.4685709075E+00    0.2816344755E-01    0.4441388186E+00    0.1651445044E+00    0.1851092065E+00
    0.1000000000E+04    0.3572241149E+00    0.6151953238E-01    0.3936473523E+00    0.1256528162E+00    0.1620933366E+00
    0.3000000000E+04    0.4469208707E+00    0.3595457189E-01    0.4331838376E+00    0.1574048704E+00    0.1798275136E+00
    0.5000000000E+04    0.4692663943E+00    0.2788681547E-01    0.4445240858E+00    0.1653945599E+00    0.1853007410E+00
    0.7000000000E+04    0.4790206313E+00    0.2370856499E-01    0.4502881574E+00    0.1689185666E+00    0.1882332478E+00
    0.9000000000E+04    0.4844195648E+00    0.2104725923E-01    0.4538772920E+00    0.1708898475E+00    0.1901407806E+00
    0.1100000000E+05    0.4878286349E+00    0.1915693495E-01    0.4563657846E+00    0.1721479699E+00    0.1915147244E+00
    0.1300000000E+05    0.4901693072E+00    0.1772165264E-01    0.4582108735E+00    0.1730211401E+00    0.1925688595E+00
    0.1500000000E+05    0.4918722549E+00    0.1658186792E-01    0.4596432944E+00    0.1736632976E+00    0.1934131849E+00
    0.1700000000E+05    0.4931649204E+00    0.1564710600E-01    0.4607932700E+00    0.1741560288E+00    0.1941108899E+00
    0.1900000000E+05    0.4941784610E+00    0.1486166542E-01    0.4617403912E+00    0.1745465497E+00    0.1947012325E+00
    0.2100000000E+05    0.4949937075E+00    0.1418908609E-01    0.4625363031E+00    0.1748640641E+00    0.1952100788E+00
    0.2300000000E+05    0.4956631368E+00    0.1360434313E-01    0.4632161180E+00    0.1751276000E+00    0.1956552694E+00
    0.2500000000E+05    0.4962222753E+00    0.1308959834E-01    0.4638046188E+00    0.1753500858E+00    0.1960495697E+00
    0.2700000000E+05    0.4966960168E+00    0.1263173782E-01    0.4643198444E+00    0.1755406136E+00    0.1964023928E+00
    0.2900000000E+05    0.4971023152E+00    0.1222087021E-01    0.4647752665E+00    0.1757057645E+00    0.1967208562E+00
    0.3100000000E+05    0.4974544401E+00    0.1184937126E-01    0.4651811683E+00    0.1758504203E+00    0.1970104583E+00
    0.3300000000E+05    0.4977624079E+00    0.1151125421E-01    0.4655455474E+00    0.1759782795E+00    0.1972755246E+00
    0.3500000000E+05    0.4980339191E+00    0.1120174191E-01    0.4658747262E+00    0.1760921958E+00    0.1975195126E+00
    0.3700000000E+05    0.4982749895E+00    0.1091696853E-01    0.4661737750E+00    0.1761944066E+00    0.1977452248E+00
    0.3900000000E+05    0.4984903862E+00    0.1065376669E-01    0.4664468115E+00    0.1762866913E+00    0.1979549610E+00
    0.4100000000E+05    0.4986839348E+00    0.1040951255E-01    0.4666972177E+00    0.1763704833E+00    0.1981506292E+00
    0.4300000000E+05    0.4988587403E+00    0.1018201106E-01    0.4669277994E+00    0.1764469501E+00    0.1983338279E+00
    0.4500000000E+05    0.4990173489E+00    0.9969409490E-02    0.4671409060E+00    0.1765170526E+00    0.1985059082E+00
    0.4700000000E+05    0.4991618681E+00    0.9770131515E-02    0.4673385207E+00    0.1765815890E+00    0.1986680214E+00
    0.4900000000E+05    0.4992940567E+00    0.9582826133E-02    0.4675223306E+00    0.1766412279E+00    0.1988211555E+00
    0.1000000000E+05    0.4862980407E+00    0.2003082935E-01    0.4552227993E+00    0.1715814386E+00    0.1908775636E+00
    0.3000000000E+05    0.4972844599E+00    0.1203060642E-01    0.4649838623E+00    0.1757804000E+00    0.1968689713E+00
    0.5000000000E+05    0.4993559987E+00    0.9493292584E-02    0.4676095184E+00    0.1766693906E+00    0.1988946269E+00
    0.7000000000E+05    0.5002076839E+00    0.8117127614E-02    0.4688903968E+00    0.1770754551E+00    0.2000498816E+00
    0.9000000000E+05    0.5006632585E+00    0.7218613668E-02    0.4696590724E+00    0.1773155623E+00    0.2008375542E+00
    0.1100000000E+06    0.5009426253E+00    0.6571771172E-02    0.4701734208E+00    0.1774777529E+00    0.2014266735E+00
    0.1300000000E+06    0.5011289611E+00    0.6076908214E-02    0.4705416308E+00    0.1775966002E+00    0.2018930536E+00
    0.1500000000E+06    0.5012605183E+00    0.5682214685E-02    0.4708176282E+00    0.1776885914E+00    0.2022767418E+00
    0.1700000000E+06    0.5013572760E+00    0.5357710634E-02    0.4710315052E+00    0.1777626485E+00    0.2026012807E+00
    0.1900000000E+06    0.5014306530E+00    0.5084670555E-02    0.4712014577E+00    0.1778240507E+00    0.2028816002E+00
    0.2100000000E+06    0.5014876302E+00    0.4850708340E-02    0.4713391702E+00    0.1778761381E+00    0.2031277216E+00
    0.2300000000E+06    0.5015327050E+00    0.4647256650E-02    0.4714525068E+00    0.1779211358E+00    0.2033466748E+00
    0.2500000000E+06    0.5015688987E+00    0.4468173180E-02    0.4715469626E+00    0.1779605893E+00    0.2035435681E+00
    0.2700000000E+06    0.5015983120E+00    0.4308922690E-02    0.4716264980E+00    0.1779956091E+00    0.2037222228E+00
    0.2900000000E+06    0.5016224477E+00    0.4166073105E-02    0.4716940417E+00    0.1780270159E+00    0.2038855671E+00
    0.3100000000E+06    0.5016424077E+00    0.4036972362E-02    0.4717518074E+00    0.1780554308E+00    0.2040358911E+00
    0.3300000000E+06    0.5016590166E+00    0.3919534007E-02    0.4718015000E+00    0.1780813339E+00    0.2041750176E+00
    0.3500000000E+06    0.5016729029E+00    0.3812090759E-02    0.4718444543E+00    0.1781051029E+00    0.2043044196E+00
    0.3700000000E+06    0.5016845532E+00    0.3713291933E-02    0.4718817303E+00    0.1781270392E+00    0.2044253034E+00
    0.3900000000E+06    0.5016943497E+00    0.3622030001E-02    0.4719141805E+00    0.1781473872E+00    0.2045386687E+00
    0.4100000000E+06    0.5017025961E+00    0.3537386968E-02    0.4719424983E+00    0.1781663473E+00    0.2046453525E+00
    0.4300000000E+06    0.5017095366E+00    0.3458594549E-02    0.4719672535E+00    0.1781840852E+00    0.2047460624E+00
    0.4500000000E+06    0.5017153694E+00    0.3385004124E-02    0.4719889184E+00    0.1782007401E+00    0.2048414015E+00
    0.4700000000E+06    0.5017202570E+00    0.3316063755E-02    0.4720078877E+00    0.1782164292E+00    0.2049318876E+00
    0.4900000000E+06    0.5017243334E+00    0.3251300384E-02    0.4720244942E+00    0.1782312524E+00    0.2050179689E+00
    0.1000000000E+06    0.5008181831E+00    0.6871584217E-02    0.4699394139E+00    0.1774036038E+00    0.2011509897E+00
    0.3000000000E+06    0.5016328927E+00    0.4099945812E-02    0.4717240302E+00    0.1780415645E+00    0.2039622334E+00
    0.5000000000E+06    0.5017261031E+00    0.3220355317E-02    0.4720320012E+00    0.1782383665E+00    0.2050594816E+00
    0.7000000000E+06    0.5017381652E+00    0.2745818745E-02    0.4721082720E+00    0.1783507761E+00    0.2057312236E+00
    0.9000000000E+06    0.5017296084E+00    0.2437223967E-02    0.4721111484E+00    0.1784286119E+00    0.2062111651E+00
    0.1100000000E+07    0.5017145082E+00    0.2215730389E-02    0.4720844544E+00    0.1784878835E+00    0.2065827194E+00
    0.1300000000E+07    0.5016973870E+00    0.2046671969E-02    0.4720445651E+00    0.1785356432E+00    0.2068849234E+00
    0.1500000000E+07    0.5016799487E+00    0.1912085612E-02    0.4719986889E+00    0.1785755919E+00    0.2071390904E+00
    0.1700000000E+07    0.5016628824E+00    0.1801603115E-02    0.4719503331E+00    0.1786099036E+00    0.2073580927E+00
    0.1900000000E+07    0.5016464644E+00    0.1708762446E-02    0.4719013146E+00    0.1786399606E+00    0.2075502819E+00
    0.2100000000E+07    0.5016307906E+00    0.1629297201E-02    0.4718526081E+00    0.1786666949E+00    0.2077213754E+00
    0.2300000000E+07    0.5016158742E+00    0.1560261140E-02    0.4718047423E+00    0.1786907637E+00    0.2078754536E+00
    0.2500000000E+07    0.5016016910E+00    0.1499544990E-02    0.4717579980E+00    0.1787126479E+00    0.2080155275E+00
    0.2700000000E+07    0.5015882005E+00    0.1445593319E-02    0.4717125147E+00    0.1787327092E+00    0.2081438809E+00
    0.2900000000E+07    0.5015753566E+00    0.1397230376E-02    0.4716683488E+00    0.1787512267E+00    0.2082622859E+00
    0.3100000000E+07    0.5015631124E+00    0.1353548557E-02    0.4716255077E+00    0.1787684203E+00    0.2083721442E+00
    0.3300000000E+07    0.5015514229E+00    0.1313834483E-02    0.4715839702E+00    0.1787844660E+00    0.2084745836E+00
    0.3500000000E+07    0.5015402460E+00    0.1277518578E-02    0.4715436984E+00    0.1787995072E+00    0.2085705241E+00
    0.3700000000E+07    0.5015295431E+00    0.1244139779E-02    0.4715046453E+00    0.1788136617E+00    0.2086607262E+00
    0.3900000000E+07    0.5015192789E+00    0.1213320295E-02    0.4714667595E+00    0.1788270282E+00    0.2087458252E+00
    0.4100000000E+07    0.5015094213E+00    0.1184747193E-02    0.4714299881E+00    0.1788396896E+00    0.2088263575E+00
    0.4300000000E+07    0.5014999412E+00    0.1158158737E-02    0.4713942782E+00    0.1788517163E+00    0.2089027796E+00
    0.4500000000E+07    0.5014908122E+00    0.1133334081E-02    0.4713595786E+00    0.1788631689E+00    0.2089754837E+00
    0.4700000000E+07    0.5014820103E+00    0.1110085401E-02    0.4713258397E+00    0.1788740996E+00    0.2090448085E+00
    0.4900000000E+07    0.5014735139E+00    0.1088251794E-02    0.4712930145E+00    0.1788845538E+00    0.2091110491E+00
    0.1000000000E+07    0.5017224903E+00    0.2318321819E-02    0.4721001507E+00    0.1784600139E+00    0.2064074611E+00
    0.3000000000E+07    0.5015691624E+00    0.1374852784E-02    0.4716467635E+00    0.1787599771E+00    0.2083182074E+00
    0.5000000000E+07    0.5014693740E+00    0.1077821527E-02    0.4712769305E+00    0.1788896149E+00    0.2091430947E+00
    0.7000000000E+07    0.5013986582E+00    0.9180539508E-03    0.4709936926E+00    0.1789733080E+00    0.2096707530E+00
    0.9000000000E+07    0.5013440510E+00    0.8143347993E-03    0.4707649851E+00    0.1790352186E+00    0.2100581361E+00
    0.1100000000E+08    0.5012996009E+00    0.7399767359E-03    0.4705730937E+00    0.1790843728E+00    0.2103638451E+00
    0.1300000000E+08    0.5012621285E+00    0.6832699749E-03    0.4704076623E+00    0.1791251394E+00    0.2106161424E+00
    0.1500000000E+08    0.5012297421E+00    0.6381557416E-03    0.4702621650E+00    0.1791599682E+00    0.2108308085E+00
    0.1700000000E+08    0.5012012268E+00    0.6011408493E-03    0.4701322327E+00    0.1791903713E+00    0.2110175450E+00
    0.1900000000E+08    0.5011757560E+00    0.5700500800E-03    0.4700147979E+00    0.1792173479E+00    0.2111827387E+00
    0.2100000000E+08    0.5011527423E+00    0.5434483402E-03    0.4699076237E+00    0.1792415930E+00    0.2113308158E+00
    0.2300000000E+08    0.5011317532E+00    0.5203452052E-03    0.4698090286E+00    0.1792636093E+00    0.2114649690E+00
    0.2500000000E+08    0.5011124613E+00    0.5000319787E-03    0.4697177158E+00    0.1792837725E+00    0.2115875761E+00
    0.2700000000E+08    0.5010946125E+00    0.4819862867E-03    0.4696326639E+00    0.1793023706E+00    0.2117004553E+00
