  Pressure (Pa) 22mC5-400 (mol/kg) 2mC6-400 (mol/kg) 3mC6-400 (mol/kg) 23mC5-400 (mol/kg) C7-400 (mol/kg)
    0.1000000000E+01    0.1592907221E-02    0.7832462191E-03    0.2070250322E-02    0.1864644460E-03    0.1679855321E-01
    0.3000000000E+01    0.4746535351E-02    0.2236906621E-02    0.5875215029E-02    0.5556286557E-03    0.4768598939E-01
    0.5000000000E+01    0.7858057486E-02    0.3559413598E-02    0.9290259171E-02    0.9198679065E-03    0.7542385058E-01
    0.7000000000E+01    0.1092841856E-01    0.4769862508E-02    0.1237253531E-01    0.1279292702E-02    0.1004730434E+00
    0.9000000000E+01    0.1395853482E-01    0.5883707162E-02    0.1516853936E-01    0.1634010192E-02    0.1232086022E+00
    0.1100000000E+02    0.1694929493E-01    0.6913586286E-02    0.1771648407E-01    0.1984124300E-02    0.1439388060E+00
    0.1300000000E+02    0.1990156097E-01    0.7869935776E-02    0.2004806529E-01    0.2329735840E-02    0.1629194056E+00
    0.1500000000E+02    0.2281616942E-01    0.8761448609E-02    0.2218979468E-01    0.2670942635E-02    0.1803643600E+00
    0.1700000000E+02    0.2569393211E-01    0.9595424717E-02    0.2416401829E-01    0.3007839624E-02    0.1964540433E+00
    0.1900000000E+02    0.2853563712E-01    0.1037804024E-01    0.2598970403E-01    0.3340518971E-02    0.2113415892E+00
    0.2100000000E+02    0.3134204964E-01    0.1111455695E-01    0.2768305696E-01    0.3669070159E-02    0.2251578501E+00
    0.2300000000E+02    0.3411391277E-01    0.1180948670E-01    0.2925800485E-01    0.3993580092E-02    0.2380153104E+00
    0.2500000000E+02    0.3685194834E-01    0.1246672185E-01    0.3072658485E-01    0.4314133184E-02    0.2500112027E+00
    0.2700000000E+02    0.3955685764E-01    0.1308963933E-01    0.3209925385E-01    0.4630811450E-02    0.2612300105E+00
    0.2900000000E+02    0.4222932215E-01    0.1368118466E-01    0.3338513971E-01    0.4943694587E-02    0.2717454929E+00
    0.3100000000E+02    0.4487000425E-01    0.1424393995E-01    0.3459224600E-01    0.5252860058E-02    0.2816223362E+00
    0.3300000000E+02    0.4747954786E-01    0.1478017952E-01    0.3572762007E-01    0.5558383168E-02    0.2909175083E+00
    0.3500000000E+02    0.5005857908E-01    0.1529191560E-01    0.3679749174E-01    0.5860337139E-02    0.2996813779E+00
    0.3700000000E+02    0.5260770681E-01    0.1578093617E-01    0.3780738860E-01    0.6158793182E-02    0.3079586445E+00
    0.3900000000E+02    0.5512752335E-01    0.1624883632E-01    0.3876223233E-01    0.6453820562E-02    0.3157891147E+00
    0.4100000000E+02    0.5761860491E-01    0.1669704459E-01    0.3966641954E-01    0.6745486671E-02    0.3232083551E+00
    0.4300000000E+02    0.6008151223E-01    0.1712684504E-01    0.4052389003E-01    0.7033857084E-02    0.3302482426E+00
    0.4500000000E+02    0.6251679102E-01    0.1753939588E-01    0.4133818466E-01    0.7318995622E-02    0.3369374318E+00
    0.4700000000E+02    0.6492497249E-01    0.1793574529E-01    0.4211249466E-01    0.7600964413E-02    0.3433017522E+00
    0.4900000000E+02    0.6730657386E-01    0.1831684488E-01    0.4284970372E-01    0.7879823943E-02    0.3493645489E+00
    0.1000000000E+02    0.1545877991E-01    0.6408444557E-02    0.1647140280E-01    0.1809636296E-02    0.1338072981E+00
    0.3000000000E+02    0.4355359533E-01    0.1396601228E-01    0.3399807918E-01    0.5098737275E-02    0.2767600172E+00
    0.5000000000E+02    0.6848756491E-01    0.1850194985E-01    0.4320522150E-01    0.8018106203E-02    0.3522895646E+00
    0.7000000000E+02    0.9082788431E-01    0.2157816368E-01    0.4888762206E-01    0.1063407627E-01    0.3991706150E+00
    0.9000000000E+02    0.1110099049E+00    0.2377657875E-01    0.5274698379E-01    0.1299756308E-01    0.4311914911E+00
    0.1100000000E+03    0.1293733876E+00    0.2538188204E-01    0.5554045527E-01    0.1514830383E-01    0.4544989263E+00
    0.1300000000E+03    0.1461874636E+00    0.2655889860E-01    0.5765643560E-01    0.1711777594E-01    0.4722520872E+00
    0.1500000000E+03    0.1616681864E+00    0.2741390904E-01    0.5931483119E-01    0.1893124957E-01    0.4862430737E+00
    0.1700000000E+03    0.1759911118E+00    0.2802045228E-01    0.6064954939E-01    0.2060925865E-01    0.4975652337E+00
    0.1900000000E+03    0.1893004676E+00    0.2843189256E-01    0.6174682759E-01    0.2216867322E-01    0.5069240386E+00
    0.2100000000E+03    0.2017159417E+00    0.2868826415E-01    0.6266473046E-01    0.2362349326E-01    0.5147953986E+00
    0.2300000000E+03    0.2133377790E+00    0.2882033441E-01    0.6344379613E-01    0.2498544474E-01    0.5215122077E+00
    0.2500000000E+03    0.2242506560E+00    0.2885218107E-01    0.6411319107E-01    0.2626443275E-01    0.5273144346E+00
    0.2700000000E+03    0.2345266628E+00    0.2880291289E-01    0.6469443982E-01    0.2746889025E-01    0.5323795113E+00
    0.2900000000E+03    0.2442276215E+00    0.2868786506E-01    0.6520377623E-01    0.2860604924E-01    0.5368415120E+00
    0.3100000000E+03    0.2534069083E+00    0.2851945623E-01    0.6565367630E-01    0.2968215380E-01    0.5408036709E+00
    0.3300000000E+03    0.2621108973E+00    0.2830781827E-01    0.6605388694E-01    0.3070262902E-01    0.5443467933E+00
    0.3500000000E+03    0.2703801162E+00    0.2806126872E-01    0.6641213409E-01    0.3167221614E-01    0.5475350510E+00
    0.3700000000E+03    0.2782501768E+00    0.2778667116E-01    0.6673462110E-01    0.3259508139E-01    0.5504200666E+00
    0.3900000000E+03    0.2857525325E+00    0.2748971385E-01    0.6702638645E-01    0.3347490457E-01    0.5530438479E+00
    0.4100000000E+03    0.2929150964E+00    0.2717512798E-01    0.6729156508E-01    0.3431495138E-01    0.5554409344E+00
    0.4300000000E+03    0.2997627516E+00    0.2684686018E-01    0.6753358231E-01    0.3511813306E-01    0.5576399922E+00
    0.4500000000E+03    0.3063177732E+00    0.2650821036E-01    0.6775529995E-01    0.3588705579E-01    0.5596650158E+00
    0.4700000000E+03    0.3126001808E+00    0.2616194246E-01    0.6795912758E-01    0.3662406193E-01    0.5615362461E+00
    0.4900000000E+03    0.3186280339E+00    0.2581037428E-01    0.6814710854E-01    0.3733126449E-01    0.5632708795E+00
    0.1000000000E+03    0.1204007222E+00    0.2464124224E-01    0.5424726048E-01    0.1409739324E-01    0.4436929862E+00
    0.3000000000E+03    0.2488794262E+00    0.2860965011E-01    0.6543549220E-01    0.2915137679E-01    0.5388795737E+00
    0.5000000000E+03    0.3215516720E+00    0.2563322322E-01    0.6823571172E-01    0.3767429431E-01    0.5640916525E+00
    0.7000000000E+03    0.3699215869E+00    0.2214247306E-01    0.6948971610E-01    0.4335181407E-01    0.5759914889E+00
    0.9000000000E+03    0.4047708412E+00    0.1910058799E-01    0.7019052966E-01    0.4744559005E-01    0.5829925500E+00
    0.1100000000E+04    0.4311172726E+00    0.1660268200E-01    0.7063189584E-01    0.5054295835E-01    0.5876336832E+00
    0.1300000000E+04    0.4517149317E+00    0.1457542074E-01    0.7093148722E-01    0.5296637122E-01    0.5909512652E+00
    0.1500000000E+04    0.4682325100E+00    0.1292533995E-01    0.7114552333E-01    0.5491126058E-01    0.5934495078E+00
    0.1700000000E+04    0.4817493127E+00    0.1157144327E-01    0.7130419200E-01    0.5650406778E-01    0.5954039808E+00
    0.1900000000E+04    0.4929968818E+00    0.1044973676E-01    0.7142511733E-01    0.5783051795E-01    0.5969783742E+00
    0.2100000000E+04    0.5024890977E+00    0.9511072213E-02    0.7151925820E-01    0.5895084674E-01    0.5982762200E+00
    0.2300000000E+04    0.5105974288E+00    0.8717935974E-02    0.7159377339E-01    0.5990860876E-01    0.5993662967E+00
    0.2500000000E+04    0.5175968477E+00    0.8041610789E-02    0.7165352849E-01    0.6073605341E-01    0.6002961361E+00
    0.2700000000E+04    0.5236950450E+00    0.7459960066E-02    0.7170194003E-01    0.6145754577E-01    0.6010996717E+00
    0.2900000000E+04    0.5290516543E+00    0.6955771358E-02    0.7174147340E-01    0.6209181825E-01    0.6018017978E+00
    0.3100000000E+04    0.5337912662E+00    0.6515536119E-02    0.7177394933E-01    0.6265349506E-01    0.6024212044E+00
    0.3300000000E+04    0.5380124511E+00    0.6128553058E-02    0.7180073949E-01    0.6315414931E-01    0.6029722060E+00
    0.3500000000E+04    0.5417941475E+00    0.5786267011E-02    0.7182289528E-01    0.6360305168E-01    0.6034659576E+00
    0.3700000000E+04    0.5452002680E+00    0.5481778330E-02    0.7184123495E-01    0.6400771020E-01    0.6039112853E+00
    0.3900000000E+04    0.5482830767E+00    0.5209475958E-02    0.7185640386E-01    0.6437426615E-01    0.6043152673E+00
    0.4100000000E+04    0.5510856998E+00    0.4964760658E-02    0.7186891715E-01    0.6470778847E-01    0.6046836486E+00
    0.4300000000E+04    0.5536440201E+00    0.4743834434E-02    0.7187919041E-01    0.6501249583E-01    0.6050211428E+00
    0.4500000000E+04    0.5559881210E+00    0.4543538923E-02    0.7188756218E-01    0.6529192609E-01    0.6053316549E+00
    0.4700000000E+04    0.5581434018E+00    0.4361230323E-02    0.7189431059E-01    0.6554906701E-01    0.6056184487E+00
    0.4900000000E+04    0.5601314467E+00    0.4194681810E-02    0.7189966602E-01    0.6578645829E-01    0.6058842741E+00
    0.1000000000E+04    0.4188006433E+00    0.1778697317E-01    0.7043415341E-01    0.4909467698E-01    0.5855249299E+00
    0.3000000000E+04    0.5314918997E+00    0.6728385464E-02    0.7175849905E-01    0.6238094627E-01    0.6021208604E+00
    0.5000000000E+04    0.5610686287E+00    0.4116716494E-02    0.7190188269E-01    0.6589843904E-01    0.6060100670E+00
    0.7000000000E+04    0.5743576234E+00    0.3050558526E-02    0.7190631410E-01    0.6749276920E-01    0.6078419203E+00
    0.9000000000E+04    0.5818502639E+00    0.2482085502E-02    0.7187609709E-01    0.6839964712E-01    0.6089388616E+00
    0.1100000000E+05    0.5866449181E+00    0.2129061089E-02    0.7183569035E-01    0.6898511582E-01    0.6096832688E+00
    0.1300000000E+05    0.5899713933E+00    0.1887440004E-02    0.7179287245E-01    0.6939490051E-01    0.6102289232E+00
    0.1500000000E+05    0.5924124041E+00    0.1710655893E-02    0.7175048764E-01    0.6969825586E-01    0.6106503513E+00
    0.1700000000E+05    0.5942789726E+00    0.1574921852E-02    0.7170961619E-01    0.6993225680E-01    0.6109883507E+00
    0.1900000000E+05    0.5957519977E+00    0.1466862476E-02    0.7167063299E-01    0.7011853162E-01    0.6112672707E+00
    0.2100000000E+05    0.5969437657E+00    0.1378387891E-02    0.7163361300E-01    0.7027054539E-01    0.6115026147E+00
    0.2300000000E+05    0.5979276208E+00    0.1304316981E-02    0.7159850148E-01    0.7039711965E-01    0.6117047626E+00
    0.2500000000E+05    0.5987534802E+00    0.1241175168E-02    0.7156519016E-01    0.7050427623E-01    0.6118809499E+00
    0.2700000000E+05    0.5994564864E+00    0.1186542515E-02    0.7153355245E-01    0.7059626721E-01    0.6120363889E+00
    0.2900000000E+05    0.6000620915E+00    0.1138679534E-02    0.7150345995E-01    0.7067618138E-01    0.6121749397E+00
    0.3100000000E+05    0.6005891786E+00    0.1096301972E-02    0.7147479000E-01    0.7074631719E-01    0.6122995282E+00
    0.3300000000E+05    0.6010520512E+00    0.1058439695E-02    0.7144742878E-01    0.7080842082E-01    0.6124124167E+00
    0.3500000000E+05    0.6014617410E+00    0.1024345180E-02    0.7142127233E-01    0.7086384302E-01    0.6125153855E+00
    0.3700000000E+05    0.6018268920E+00    0.9934323640E-03    0.7139622645E-01    0.7091364534E-01    0.6126098569E+00
    0.3900000000E+05    0.6021543729E+00    0.9652347134E-03    0.7137220610E-01    0.7095867381E-01    0.6126969822E+00
    0.4100000000E+05    0.6024497106E+00    0.9393757875E-03    0.7134913464E-01    0.7099961117E-01    0.6127777050E+00
    0.4300000000E+05    0.6027174020E+00    0.9155481554E-03    0.7132694299E-01    0.7103701460E-01    0.6128528067E+00
    0.4500000000E+05    0.6029611432E+00    0.8934980134E-03    0.7130556883E-01    0.7107134339E-01    0.6129229406E+00
    0.4700000000E+05    0.6031840003E+00    0.8730137753E-03    0.7128495586E-01    0.7110297965E-01    0.6129886579E+00
    0.4900000000E+05    0.6033885380E+00    0.8539174836E-03    0.7126505312E-01    0.7113224395E-01    0.6130504270E+00
    0.1000000000E+05    0.5844854173E+00    0.2287191799E-02    0.7185650024E-01    0.6872078592E-01    0.6093427673E+00
    0.3000000000E+05    0.6003344663E+00    0.1116871815E-02    0.7148895450E-01    0.7071235164E-01    0.6122388247E+00
    0.5000000000E+05    0.6034846260E+00    0.8448417558E-03    0.7125535348E-01    0.7114607295E-01    0.6130799587E+00
    0.7000000000E+05    0.6048260875E+00    0.7092408432E-03    0.7108943186E-01    0.7134620038E-01    0.6135361212E+00
    0.9000000000E+05    0.6055669450E+00    0.6241457023E-03    0.7096095336E-01    0.7146522945E-01    0.6138394905E+00
    0.1100000000E+06    0.6060356454E+00    0.5642861708E-03    0.7085613211E-01    0.7154594697E-01    0.6140631883E+00
    0.1300000000E+06    0.6063582074E+00    0.5191837101E-03    0.7076760073E-01    0.7160525955E-01    0.6142387467E+00
    0.1500000000E+06    0.6065933194E+00    0.4835994405E-03    0.7069096906E-01    0.7165126543E-01    0.6143823813E+00
    0.1700000000E+06    0.6067719942E+00    0.4545814491E-03    0.7062341157E-01    0.7168836184E-01    0.6145034408E+00
    0.1900000000E+06    0.6069121552E+00    0.4303214619E-03    0.7056300296E-01    0.7171915800E-01    0.6146077669E+00
    0.2100000000E+06    0.6070248791E+00    0.4096410162E-03    0.7050837243E-01    0.7174530835E-01    0.6146992357E+00
    0.2300000000E+06    0.6071173777E+00    0.3917344914E-03    0.7045850928E-01    0.7176791737E-01    0.6147805415E+00
    0.2500000000E+06    0.6071945470E+00    0.3760297750E-03    0.7041264695E-01    0.7178775345E-01    0.6148536276E+00
    0.2700000000E+06    0.6072598266E+00    0.3621077605E-03    0.7037019016E-01    0.7180536945E-01    0.6149199390E+00
    0.2900000000E+06    0.6073157029E+00    0.3496533897E-03    0.7033066741E-01    0.7182117455E-01    0.6149805772E+00
    0.3100000000E+06    0.6073640177E+00    0.3384245906E-03    0.7029369890E-01    0.7183547882E-01    0.6150364001E+00
    0.3300000000E+06    0.6074061638E+00    0.3282318561E-03    0.7025897412E-01    0.7184852213E-01    0.6150880884E+00
    0.3500000000E+06    0.6074432138E+00    0.3189244047E-03    0.7022623602E-01    0.7186049329E-01    0.6151361900E+00
    0.3700000000E+06    0.6074760069E+00    0.3103805529E-03    0.7019526936E-01    0.7187154330E-01    0.6151811530E+00
    0.3900000000E+06    0.6075052091E+00    0.3025008630E-03    0.7016589209E-01    0.7188179452E-01    0.6152233477E+00
    0.4100000000E+06    0.6075313553E+00    0.2952031661E-03    0.7013794891E-01    0.7189134735E-01    0.6152630835E+00
    0.4300000000E+06    0.6075548801E+00    0.2884188842E-03    0.7011130621E-01    0.7190028504E-01    0.6153006216E+00
    0.4500000000E+06    0.6075761403E+00    0.2820902659E-03    0.7008584825E-01    0.7190867734E-01    0.6153361845E+00
    0.4700000000E+06    0.6075954314E+00    0.2761682814E-03    0.7006147409E-01    0.7191658316E-01    0.6153699628E+00
    0.4900000000E+06    0.6076130000E+00    0.2706109967E-03    0.7003809518E-01    0.7192405267E-01    0.6154021215E+00
    0.1000000000E+06    0.6058250701E+00    0.5918968840E-03    0.7090614095E-01    0.7150901294E-01    0.6139588055E+00
    0.3000000000E+06    0.6073407097E+00    0.3438986826E-03    0.7031188470E-01    0.7182849791E-01    0.6150090445E+00
    0.5000000000E+06    0.6076212046E+00    0.2679576344E-03    0.7002675417E-01    0.7192763750E-01    0.6154176389E+00
    0.7000000000E+06    0.6077314054E+00    0.2274287370E-03    0.6983727391E-01    0.7198426846E-01    0.6156696677E+00
    0.9000000000E+06    0.6077868831E+00    0.2012312659E-03    0.6969514344E-01    0.7202345035E-01    0.6158509890E+00
    0.1100000000E+07    0.6078184424E+00    0.1825048736E-03    0.6958137184E-01    0.7205325889E-01    0.6159921852E+00
    0.1300000000E+07    0.6078376508E+00    0.1682552965E-03    0.6948650790E-01    0.7207725553E-01    0.6161075940E+00
    0.1500000000E+07    0.6078497727E+00    0.1569387407E-03    0.6940515742E-01    0.7209731011E-01    0.6162050654E+00
    0.1700000000E+07    0.6078575225E+00    0.1476674587E-03    0.6933394908E-01    0.7211452120E-01    0.6162893554E+00
    0.1900000000E+07    0.6078624291E+00    0.1398897853E-03    0.6927063438E-01    0.7212958719E-01    0.6163635592E+00
    0.2100000000E+07    0.6078654121E+00    0.1332423762E-03    0.6921363844E-01    0.7214297883E-01    0.6164298018E+00
    0.2300000000E+07    0.6078670533E+00    0.1274748289E-03    0.6916181518E-01    0.7215502807E-01    0.6164896044E+00
    0.2500000000E+07    0.6078677364E+00    0.1224081896E-03    0.6911430454E-01    0.7216597753E-01    0.6165440924E+00
    0.2700000000E+07    0.6078677225E+00    0.1179106966E-03    0.6907044455E-01    0.7217600983E-01    0.6165941214E+00
    0.2900000000E+07    0.6078671942E+00    0.1138828872E-03    0.6902971480E-01    0.7218526578E-01    0.6166403569E+00
    0.3100000000E+07    0.6078662825E+00    0.1102480770E-03    0.6899169881E-01    0.7219385621E-01    0.6166833267E+00
    0.3300000000E+07    0.6078650829E+00    0.1069460587E-03    0.6895605799E-01    0.7220186989E-01    0.6167234560E+00
    0.3500000000E+07    0.6078636660E+00    0.1039288105E-03    0.6892251343E-01    0.7220937899E-01    0.6167610925E+00
    0.3700000000E+07    0.6078620854E+00    0.1011574959E-03    0.6889083259E-01    0.7221644299E-01    0.6167965242E+00
    0.3900000000E+07    0.6078603814E+00    0.9860031981E-04    0.6886081962E-01    0.7222311146E-01    0.6168299920E+00
    0.4100000000E+07    0.6078585854E+00    0.9623096714E-04    0.6883230797E-01    0.7222942616E-01    0.6168616996E+00
    0.4300000000E+07    0.6078567215E+00    0.9402744417E-04    0.6880515485E-01    0.7223542259E-01    0.6168918208E+00
    0.4500000000E+07    0.6078548087E+00    0.9197120645E-04    0.6877923692E-01    0.7224113116E-01    0.6169205051E+00
    0.4700000000E+07    0.6078528620E+00    0.9004649260E-04    0.6875444689E-01    0.7224657815E-01    0.6169478816E+00
    0.4900000000E+07    0.6078508931E+00    0.8823980890E-04    0.6873069087E-01    0.7225178639E-01    0.6169740631E+00
    0.1000000000E+07    0.6078047067E+00    0.1911705541E-03    0.6963543594E-01    0.7203924639E-01    0.6159254909E+00
    0.3000000000E+07    0.6078667797E+00    0.1120204484E-03    0.6901039033E-01    0.7218963820E-01    0.6166622214E+00
    0.5000000000E+07    0.6078499033E+00    0.8737703058E-04    0.6871917440E-01    0.7225430733E-01    0.6169867371E+00
    0.7000000000E+07    0.6078304088E+00    0.7418680981E-04    0.6852741713E-01    0.7229595316E-01    0.6171961414E+00
    0.9000000000E+07    0.6078127477E+00    0.6565126162E-04    0.6838427738E-01    0.7232671112E-01    0.6173506758E+00
    0.1100000000E+08    0.6077971400E+00    0.5954649589E-04    0.6827005437E-01    0.7235110384E-01    0.6174730562E+00
    0.1300000000E+08    0.6077832955E+00    0.5489966462E-04    0.6817502367E-01    0.7237131680E-01    0.6175743114E+00
    0.1500000000E+08    0.6077709046E+00    0.5120855110E-04    0.6809366534E-01    0.7238857376E-01    0.6176606305E+00
    0.1700000000E+08    0.6077597114E+00    0.4818413224E-04    0.6802254306E-01    0.7240362931E-01    0.6177358329E+00
    0.1900000000E+08    0.6077495143E+00    0.4564670797E-04    0.6795937189E-01    0.7241698168E-01    0.6178024410E+00
    0.2100000000E+08    0.6077401550E+00    0.4347787761E-04    0.6790255533E-01    0.7242897709E-01    0.6178622077E+00
    0.2300000000E+08    0.6077315090E+00    0.4159602151E-04    0.6785093386E-01    0.7243986591E-01    0.6179163999E+00
    0.2500000000E+08    0.6077234764E+00    0.3994279677E-04    0.6780363875E-01    0.7244983506E-01    0.6179659631E+00
    0.2700000000E+08    0.6077159767E+00    0.3847523901E-04    0.6776000233E-01    0.7245902777E-01    0.6180116217E+00
