  Pressure (Pa) 22mC5-400 (mol/kg) 2mC6-400 (mol/kg) 3mC6-400 (mol/kg) 23mC5-400 (mol/kg) C7-400 (mol/kg)
    0.1000000000E+01    0.1583150244E-02    0.7069695012E-02    0.5212443832E-03    0.1853228309E-03    0.8458662335E-02
    0.3000000000E+01    0.4661632425E-02    0.2028871234E-01    0.1499057136E-02    0.5456945196E-03    0.2433102256E-01
    0.5000000000E+01    0.7629871777E-02    0.3240457008E-01    0.2399646124E-02    0.8931686672E-03    0.3895548914E-01
    0.7000000000E+01    0.1049540434E-01    0.4354556097E-01    0.3232288304E-02    0.1228626826E-02    0.5248176425E-01
    0.9000000000E+01    0.1326506906E-01    0.5382058510E-01    0.4004814345E-02    0.1552869011E-02    0.6503622813E-01
    0.1100000000E+02    0.1594508752E-01    0.6332272641E-01    0.4723880986E-02    0.1866623022E-02    0.7672632892E-01
    0.1300000000E+02    0.1854113293E-01    0.7213205882E-01    0.5395183988E-02    0.2170552516E-02    0.8764401537E-01
    0.1500000000E+02    0.2105839000E-01    0.8031786991E-01    0.6023626274E-02    0.2465264012E-02    0.9786844743E-01
    0.1700000000E+02    0.2350160711E-01    0.8794043935E-01    0.6613451901E-02    0.2751312989E-02    0.1074681561E+00
    0.1900000000E+02    0.2587514190E-01    0.9505247352E-01    0.7168353701E-02    0.3029209217E-02    0.1165027791E+00
    0.2100000000E+02    0.2818300121E-01    0.1017002717E+00    0.7691560437E-02    0.3299421435E-02    0.1250244663E+00
    0.2300000000E+02    0.3042887617E-01    0.1079246813E+00    0.8185907902E-02    0.3562381451E-02    0.1330790260E+00
    0.2500000000E+02    0.3261617319E-01    0.1137618855E+00    0.8653897296E-02    0.3818487766E-02    0.1407068669E+00
    0.2700000000E+02    0.3474804128E-01    0.1192440567E+00    0.9097743471E-02    0.4068108776E-02    0.1479437757E+00
    0.2900000000E+02    0.3682739633E-01    0.1243999029E+00    0.9519415044E-02    0.4311585602E-02    0.1548215648E+00
    0.3100000000E+02    0.3885694262E-01    0.1292551249E+00    0.9920667928E-02    0.4549234613E-02    0.1613686125E+00
    0.3300000000E+02    0.4083919197E-01    0.1338328039E+00    0.1030307351E-01    0.4781349666E-02    0.1676103181E+00
    0.3500000000E+02    0.4277648089E-01    0.1381537291E+00    0.1066804247E-01    0.5008204108E-02    0.1735694861E+00
    0.3700000000E+02    0.4467098584E-01    0.1422366770E+00    0.1101684495E-01    0.5230052566E-02    0.1792666516E+00
    0.3900000000E+02    0.4652473699E-01    0.1460986512E+00    0.1135062779E-01    0.5447132551E-02    0.1847203584E+00
    0.4100000000E+02    0.4833963049E-01    0.1497550877E+00    0.1167042926E-01    0.5659665897E-02    0.1899473967E+00
    0.4300000000E+02    0.5011743958E-01    0.1532200323E+00    0.1197719174E-01    0.5867860062E-02    0.1949630079E+00
    0.4500000000E+02    0.5185982456E-01    0.1565062946E+00    0.1227177261E-01    0.6071909289E-02    0.1997810604E+00
    0.4700000000E+02    0.5356834184E-01    0.1596255813E+00    0.1255495373E-01    0.6271995668E-02    0.2044142025E+00
    0.4900000000E+02    0.5524445206E-01    0.1625886129E+00    0.1282744968E-01    0.6468290089E-02    0.2088739952E+00
    0.1000000000E+02    0.1461591739E-01    0.5866298508E-01    0.4370653742E-02    0.1711014143E-02    0.7098324866E-01
    0.3000000000E+02    0.3784823428E-01    0.1268635920E+00    0.9722491584E-02    0.4431119716E-02    0.1581347788E+00
    0.5000000000E+02    0.5607078665E-01    0.1640146388E+00    0.1295989739E-01    0.6565065870E-02    0.2110422297E+00
    0.7000000000E+02    0.7118906015E-01    0.1863357486E+00    0.1518081283E-01    0.8335778119E-02    0.2474575771E+00
    0.9000000000E+02    0.8421750856E-01    0.2004916393E+00    0.1682693030E-01    0.9861945707E-02    0.2745311288E+00
    0.1100000000E+03    0.9575132883E-01    0.2097258852E+00    0.1811227534E-01    0.1121320900E-01    0.2957316736E+00
    0.1300000000E+03    0.1061657306E+00    0.2158009382E+00    0.1915407003E-01    0.1243347086E-01    0.3129612027E+00
    0.1500000000E+03    0.1157106940E+00    0.2197523076E+00    0.2002237030E-01    0.1355198221E-01    0.3273576453E+00
    0.1700000000E+03    0.1245602457E+00    0.2222251150E+00    0.2076187639E-01    0.1458910713E-01    0.3396478393E+00
    0.1900000000E+03    0.1328399465E+00    0.2236400556E+00    0.2140260157E-01    0.1555953870E-01    0.3503203100E+00
    0.2100000000E+03    0.1406431159E+00    0.2242817087E+00    0.2196553759E-01    0.1647419746E-01    0.3597170822E+00
    0.2300000000E+03    0.1480408684E+00    0.2243484451E+00    0.2246586561E-01    0.1734140555E-01    0.3680857492E+00
    0.2500000000E+03    0.1550885678E+00    0.2239820465E+00    0.2291487493E-01    0.1816764203E-01    0.3756106068E+00
    0.2700000000E+03    0.1618301203E+00    0.2232860137E+00    0.2332116104E-01    0.1895804520E-01    0.3824321065E+00
    0.2900000000E+03    0.1683009131E+00    0.2223372780E+00    0.2369140199E-01    0.1971675637E-01    0.3886594683E+00
    0.3100000000E+03    0.1745298760E+00    0.2211939167E+00    0.2403087774E-01    0.2044716122E-01    0.3943791234E+00
    0.3300000000E+03    0.1805409614E+00    0.2199003675E+00    0.2434382713E-01    0.2115206293E-01    0.3996605215E+00
    0.3500000000E+03    0.1863542265E+00    0.2184910321E+00    0.2463369940E-01    0.2183380883E-01    0.4045602235E+00
    0.3700000000E+03    0.1919866394E+00    0.2169928153E+00    0.2490333499E-01    0.2249438472E-01    0.4091248465E+00
    0.3900000000E+03    0.1974526883E+00    0.2154269475E+00    0.2515509813E-01    0.2313548617E-01    0.4133932242E+00
    0.4100000000E+03    0.2027648489E+00    0.2138103114E+00    0.2539097565E-01    0.2375857321E-01    0.4173980176E+00
    0.4300000000E+03    0.2079339471E+00    0.2121564229E+00    0.2561265176E-01    0.2436491282E-01    0.4211669346E+00
    0.4500000000E+03    0.2129694446E+00    0.2104761653E+00    0.2582156538E-01    0.2495561230E-01    0.4247236665E+00
    0.4700000000E+03    0.2178796652E+00    0.2087783452E+00    0.2601895471E-01    0.2553164576E-01    0.4280886152E+00
    0.4900000000E+03    0.2226719765E+00    0.2070701175E+00    0.2620589223E-01    0.2609387542E-01    0.4312794655E+00
    0.1000000000E+03    0.9014406033E-01    0.2055909521E+00    0.1750588810E-01    0.1055625932E-01    0.2857226062E+00
    0.3000000000E+03    0.1714440239E+00    0.2217868770E+00    0.2386469955E-01    0.2008530990E-01    0.3915780752E+00
    0.5000000000E+03    0.2250259939E+00    0.2062139676E+00    0.2629573836E-01    0.2637005697E-01    0.4328145009E+00
    0.7000000000E+03    0.2671925409E+00    0.1894962200E+00    0.2771845768E-01    0.3131836298E-01    0.4572587439E+00
    0.9000000000E+03    0.3021584742E+00    0.1744739396E+00    0.2869271429E-01    0.3542345409E-01    0.4741682990E+00
    0.1100000000E+04    0.3318244091E+00    0.1613774900E+00    0.2941807329E-01    0.3890772562E-01    0.4868659067E+00
    0.1300000000E+04    0.3573129655E+00    0.1500139630E+00    0.2998716663E-01    0.4190253931E-01    0.4969027731E+00
    0.1500000000E+04    0.3793951149E+00    0.1401338246E+00    0.3045005299E-01    0.4449811989E-01    0.5051213952E+00
    0.1700000000E+04    0.3986471747E+00    0.1315072225E+00    0.3083663107E-01    0.4676192495E-01    0.5120272415E+00
    0.1900000000E+04    0.4155209528E+00    0.1239380162E+00    0.3116607680E-01    0.4874684998E-01    0.5179458297E+00
    0.2100000000E+04    0.4303804133E+00    0.1172626958E+00    0.3145136412E-01    0.5049551594E-01    0.5230982260E+00
    0.2300000000E+04    0.4435235509E+00    0.1113458730E+00    0.3170164428E-01    0.5204282659E-01    0.5276409046E+00
    0.2500000000E+04    0.4551968888E+00    0.1060755020E+00    0.3192359164E-01    0.5341766327E-01    0.5316883594E+00
    0.2700000000E+04    0.4656058489E+00    0.1013586552E+00    0.3212220960E-01    0.5464409722E-01    0.5353266805E+00
    0.2900000000E+04    0.4749225585E+00    0.9711800151E-01    0.3230133601E-01    0.5574230230E-01    0.5386220924E+00
    0.3100000000E+04    0.4832919214E+00    0.9328893360E-01    0.3246397266E-01    0.5672926500E-01    0.5416265327E+00
    0.3300000000E+04    0.4908364343E+00    0.8981724580E-01    0.3261250712E-01    0.5761934784E-01    0.5443814172E+00
    0.3500000000E+04    0.4976600587E+00    0.8665726117E-01    0.3274886635E-01    0.5842474234E-01    0.5469202529E+00
    0.3700000000E+04    0.5038513581E+00    0.8377032079E-01    0.3287462556E-01    0.5915583612E-01    0.5492704943E+00
    0.3900000000E+04    0.5094860554E+00    0.8112356295E-01    0.3299108711E-01    0.5982151228E-01    0.5514548908E+00
    0.4100000000E+04    0.5146291271E+00    0.7868893390E-01    0.3309933874E-01    0.6042939455E-01    0.5534924829E+00
    0.4300000000E+04    0.5193365246E+00    0.7644238366E-01    0.3320029714E-01    0.6098604884E-01    0.5553993508E+00
    0.4500000000E+04    0.5236565945E+00    0.7436321011E-01    0.3329474128E-01    0.6149714954E-01    0.5571891851E+00
    0.4700000000E+04    0.5276312527E+00    0.7243352184E-01    0.3338333796E-01    0.6196761712E-01    0.5588737282E+00
    0.4900000000E+04    0.5312969598E+00    0.7063779678E-01    0.3346666190E-01    0.6240173232E-01    0.5604631191E+00
    0.1000000000E+04    0.3175726465E+00    0.1676939273E+00    0.2907929740E-01    0.3723367993E-01    0.4809230604E+00
    0.3000000000E+04    0.4792175265E+00    0.9515562706E-01    0.3238455400E-01    0.5624873557E-01    0.5401578840E+00
    0.5000000000E+04    0.5330240618E+00    0.6978587671E-01    0.3350650494E-01    0.6260634436E-01    0.5612249307E+00
    0.7000000000E+04    0.5572476675E+00    0.5727832880E-01    0.3411881517E-01    0.6548328852E-01    0.5731017576E+00
    0.9000000000E+04    0.5704091399E+00    0.4975611623E-01    0.3451637255E-01    0.6705543122E-01    0.5810246349E+00
    0.1100000000E+05    0.5784869146E+00    0.4465538454E-01    0.3479980645E-01    0.6802633261E-01    0.5868098703E+00
    0.1300000000E+05    0.5838768829E+00    0.4091748047E-01    0.3501417059E-01    0.6867844156E-01    0.5912816244E+00
    0.1500000000E+05    0.5876970290E+00    0.3802832910E-01    0.3518305635E-01    0.6914379640E-01    0.5948765598E+00
    0.1700000000E+05    0.5905301312E+00    0.3570775276E-01    0.3532016490E-01    0.6949135667E-01    0.5978510009E+00
    0.1900000000E+05    0.5927064737E+00    0.3378940873E-01    0.3543406546E-01    0.6976028200E-01    0.6003668535E+00
    0.2100000000E+05    0.5944258444E+00    0.3216784620E-01    0.3553042534E-01    0.6997430856E-01    0.6025321892E+00
    0.2300000000E+05    0.5958155569E+00    0.3077267466E-01    0.3561315999E-01    0.7014859414E-01    0.6044223272E+00
    0.2500000000E+05    0.5969602684E+00    0.2955491320E-01    0.3568507130E-01    0.7029323982E-01    0.6060916150E+00
    0.2700000000E+05    0.5979182990E+00    0.2847929667E-01    0.3574822315E-01    0.7041521975E-01    0.6075804036E+00
    0.2900000000E+05    0.5987310434E+00    0.2751970312E-01    0.3580417308E-01    0.7051949527E-01    0.6089193771E+00
    0.3100000000E+05    0.5994286422E+00    0.2665631293E-01    0.3585412097E-01    0.7060968732E-01    0.6101323478E+00
    0.3300000000E+05    0.6000335317E+00    0.2587377626E-01    0.3589900774E-01    0.7068849757E-01    0.6112381212E+00
    0.3500000000E+05    0.6005627376E+00    0.2515999215E-01    0.3593958271E-01    0.7075798108E-01    0.6122517764E+00
    0.3700000000E+05    0.6010294003E+00    0.2450527205E-01    0.3597645074E-01    0.7081972780E-01    0.6131855676E+00
    0.3900000000E+05    0.6014438155E+00    0.2390175258E-01    0.3601010601E-01    0.7087498652E-01    0.6140495711E+00
    0.4100000000E+05    0.6018141585E+00    0.2334297429E-01    0.3604095663E-01    0.7092475127E-01    0.6148521609E+00
    0.4300000000E+05    0.6021469997E+00    0.2282357364E-01    0.3606934283E-01    0.7096982297E-01    0.6156003621E+00
    0.4500000000E+05    0.6024476771E+00    0.2233905391E-01    0.3609555079E-01    0.7101085390E-01    0.6163001187E+00
    0.4700000000E+05    0.6027205706E+00    0.2188561220E-01    0.3611982307E-01    0.7104838067E-01    0.6169564992E+00
    0.4900000000E+05    0.6029693060E+00    0.2146000689E-01    0.3614236678E-01    0.7108284861E-01    0.6175738560E+00
    0.1000000000E+05    0.5748892900E+00    0.4698803654E-01    0.3466881634E-01    0.6759315386E-01    0.5841199472E+00
    0.3000000000E+05    0.5990926847E+00    0.2707703012E-01    0.3582983331E-01    0.7056616508E-01    0.6095403374E+00
    0.5000000000E+05    0.6030855803E+00    0.2125675761E-01    0.3615304704E-01    0.7109905441E-01    0.6178690963E+00
    0.7000000000E+05    0.6046687015E+00    0.1814590288E-01    0.3630833886E-01    0.7132764626E-01    0.6224178350E+00
    0.9000000000E+05    0.6055087995E+00    0.1612464286E-01    0.3639884404E-01    0.7145837381E-01    0.6253983798E+00
    0.1100000000E+06    0.6060265061E+00    0.1467246866E-01    0.3645718157E-01    0.7154487250E-01    0.6275494658E+00
    0.1300000000E+06    0.6063760976E+00    0.1356252408E-01    0.3649714789E-01    0.7160737616E-01    0.6291984847E+00
    0.1500000000E+06    0.6066272211E+00    0.1267764613E-01    0.3652563407E-01    0.7165527394E-01    0.6305160376E+00
    0.1700000000E+06    0.6068158393E+00    0.1195027981E-01    0.3654648002E-01    0.7169354639E-01    0.6316010214E+00
    0.1900000000E+06    0.6069623650E+00    0.1133832150E-01    0.3656199895E-01    0.7172509621E-01    0.6325152904E+00
    0.2100000000E+06    0.6070792308E+00    0.1081395956E-01    0.3657366836E-01    0.7175173775E-01    0.6332998028E+00
    0.2300000000E+06    0.6071744343E+00    0.1035797397E-01    0.3658247605E-01    0.7177466819E-01    0.6339829144E+00
    0.2500000000E+06    0.6072533498E+00    0.9956592986E-02    0.3658910706E-01    0.7179471235E-01    0.6345849711E+00
    0.2700000000E+06    0.6073197197E+00    0.9599651911E-02    0.3659405093E-01    0.7181245886E-01    0.6351210062E+00
    0.2900000000E+06    0.6073762287E+00    0.9279460387E-02    0.3659766641E-01    0.7182834030E-01    0.6356024036E+00
    0.3100000000E+06    0.6074248520E+00    0.8990076730E-02    0.3660022202E-01    0.7184268252E-01    0.6360379653E+00
    0.3300000000E+06    0.6074670742E+00    0.8726826838E-02    0.3660192245E-01    0.7185573623E-01    0.6364346202E+00
    0.3500000000E+06    0.6075040325E+00    0.8485975778E-02    0.3660292621E-01    0.7186769788E-01    0.6367979081E+00
    0.3700000000E+06    0.6075366121E+00    0.8264497855E-02    0.3660335777E-01    0.7187872390E-01    0.6371323191E+00
    0.3900000000E+06    0.6075655124E+00    0.8059912027E-02    0.3660331605E-01    0.7188894061E-01    0.6374415370E+00
    0.4100000000E+06    0.6075912927E+00    0.7870161773E-02    0.3660288052E-01    0.7189845131E-01    0.6377286165E+00
    0.4300000000E+06    0.6076144060E+00    0.7693525876E-02    0.3660211564E-01    0.7190734141E-01    0.6379961156E+00
    0.4500000000E+06    0.6076352224E+00    0.7528551134E-02    0.3660107416E-01    0.7191568224E-01    0.6382461945E+00
    0.4700000000E+06    0.6076540477E+00    0.7374000887E-02    0.3659979956E-01    0.7192353395E-01    0.6384806926E+00
    0.4900000000E+06    0.6076711362E+00    0.7228815150E-02    0.3659832795E-01    0.7193094761E-01    0.6387011868E+00
    0.1000000000E+06    0.6057952958E+00    0.1534532312E-01    0.3643093521E-01    0.7150550368E-01    0.6265518455E+00
    0.3000000000E+06    0.6074014237E+00    0.9131234983E-02    0.3659906265E-01    0.7183568667E-01    0.6358254435E+00
    0.5000000000E+06    0.6076790973E+00    0.7159443208E-02    0.3659752790E-01    0.7193450409E-01    0.6388066153E+00
    0.7000000000E+06    0.6077845336E+00    0.6095720017E-02    0.3657639892E-01    0.7199057878E-01    0.6404300776E+00
    0.9000000000E+06    0.6078360227E+00    0.5404161264E-02    0.3655190622E-01    0.7202929399E-01    0.6414942094E+00
    0.1100000000E+07    0.6078643651E+00    0.4907974300E-02    0.3652765017E-01    0.7205872592E-01    0.6422633482E+00
    0.1300000000E+07    0.6078809453E+00    0.4529399586E-02    0.3650458414E-01    0.7208241480E-01    0.6428541371E+00
    0.1500000000E+07    0.6078908781E+00    0.4228137833E-02    0.3648291803E-01    0.7210221308E-01    0.6433272120E+00
    0.1700000000E+07    0.6078967717E+00    0.3980927268E-02    0.3646262566E-01    0.7211920686E-01    0.6437176755E+00
    0.1900000000E+07    0.6079000795E+00    0.3773270051E-02    0.3644360654E-01    0.7213408573E-01    0.6440474665E+00
    0.2100000000E+07    0.6079016671E+00    0.3595594866E-02    0.3642574279E-01    0.7214731409E-01    0.6443311074E+00
    0.2300000000E+07    0.6079020766E+00    0.3441292638E-02    0.3640891961E-01    0.7215921923E-01    0.6445786522E+00
    0.2500000000E+07    0.6079016617E+00    0.3305632295E-02    0.3639303225E-01    0.7217004029E-01    0.6447973157E+00
    0.2700000000E+07    0.6079006610E+00    0.3185125441E-02    0.3637798767E-01    0.7217995723E-01    0.6449924305E+00
    0.2900000000E+07    0.6078992393E+00    0.3077135547E-02    0.3636370416E-01    0.7218910877E-01    0.6451680365E+00
    0.3100000000E+07    0.6078975136E+00    0.2979627652E-02    0.3635011020E-01    0.7219760409E-01    0.6453272587E+00
    0.3300000000E+07    0.6078955680E+00    0.2891002504E-02    0.3633714323E-01    0.7220553065E-01    0.6454725585E+00
    0.3500000000E+07    0.6078934644E+00    0.2809983406E-02    0.3632474840E-01    0.7221295956E-01    0.6456059049E+00
    0.3700000000E+07    0.6078912483E+00    0.2735537044E-02    0.3631287747E-01    0.7221994941E-01    0.6457288952E+00
    0.3900000000E+07    0.6078889544E+00    0.2666816855E-02    0.3630148790E-01    0.7222654904E-01    0.6458428402E+00
    0.4100000000E+07    0.6078866084E+00    0.2603121714E-02    0.3629054198E-01    0.7223279960E-01    0.6459488280E+00
    0.4300000000E+07    0.6078842302E+00    0.2543865283E-02    0.3628000622E-01    0.7223873607E-01    0.6460477701E+00
    0.4500000000E+07    0.6078818351E+00    0.2488552903E-02    0.3626985072E-01    0.7224438842E-01    0.6461404371E+00
    0.4700000000E+07    0.6078794346E+00    0.2436763934E-02    0.3626004869E-01    0.7224978255E-01    0.6462274855E+00
    0.4900000000E+07    0.6078770379E+00    0.2388138082E-02    0.3625057608E-01    0.7225494096E-01    0.6463094784E+00
    0.1000000000E+07    0.6078521531E+00    0.5137774777E-02    0.3653966103E-01    0.7204489182E-01    0.6419064678E+00
    0.3000000000E+07    0.6078984086E+00    0.3027179987E-02    0.3635682509E-01    0.7219343255E-01    0.6452495285E+00
    0.5000000000E+07    0.6078758432E+00    0.2364912552E-02    0.3624595644E-01    0.7225743803E-01    0.6463487337E+00
    0.7000000000E+07    0.6078531609E+00    0.2009492405E-02    0.3616656290E-01    0.7229871330E-01    0.6469579442E+00
    0.9000000000E+07    0.6078333799E+00    0.1779154667E-02    0.3610454335E-01    0.7232922567E-01    0.6473631232E+00
    0.1100000000E+08    0.6078162261E+00    0.1614252578E-02    0.3605356930E-01    0.7235343987E-01    0.6476596841E+00
    0.1300000000E+08    0.6078011868E+00    0.1488644121E-02    0.3601025374E-01    0.7237351532E-01    0.6478900249E+00
    0.1500000000E+08    0.6077878352E+00    0.1388816291E-02    0.3597256857E-01    0.7239066204E-01    0.6480763269E+00
    0.1700000000E+08    0.6077758465E+00    0.1306984838E-02    0.3593920147E-01    0.7240562660E-01    0.6482315070E+00
    0.1900000000E+08    0.6077649760E+00    0.1238306204E-02    0.3590925350E-01    0.7241890217E-01    0.6483636821E+00
    0.2100000000E+08    0.6077550367E+00    0.1179587088E-02    0.3588208146E-01    0.7243083161E-01    0.6484782531E+00
    0.2300000000E+08    0.6077458837E+00    0.1128625045E-02    0.3585720901E-01    0.7244166296E-01    0.6485789769E+00
    0.2500000000E+08    0.6077374030E+00    0.1083845043E-02    0.3583427334E-01    0.7245158143E-01    0.6486685619E+00
    0.2700000000E+08    0.6077295032E+00    0.1044086773E-02    0.3581299169E-01    0.7246072904E-01    0.6487490188E+00
