  Pressure (Pa) 22mC5-400 (mol/kg) 2mC6-400 (mol/kg) 3mC6-400 (mol/kg) 23mC5-400 (mol/kg) C7-400 (mol/kg)
    0.1000000000E+01    0.2118958322E-02    0.2360683791E-02    0.2606562738E-02    0.1860329399E-03    0.1015177689E-01
    0.3000000000E+01    0.6285440322E-02    0.6797583854E-02    0.7497340492E-02    0.5518317943E-03    0.2920571040E-01
    0.5000000000E+01    0.1035985903E-01    0.1089186325E-01    0.1200159015E-01    0.9095538111E-03    0.4676097022E-01
    0.7000000000E+01    0.1434585271E-01    0.1468159649E-01    0.1616416998E-01    0.1259518132E-02    0.6299121572E-01
    0.9000000000E+01    0.1824686501E-01    0.1819922829E-01    0.2002322571E-01    0.1602026829E-02    0.7804414015E-01
    0.1100000000E+02    0.2206615783E-01    0.2147259214E-01    0.2361140236E-01    0.1937366030E-02    0.9204615613E-01
    0.1300000000E+02    0.2580682312E-01    0.2452571461E-01    0.2695680261E-01    0.2265806961E-02    0.1051061015E+00
    0.1500000000E+02    0.2947179385E-01    0.2737945605E-01    0.3008375149E-01    0.2587606901E-02    0.1173181965E+00
    0.1700000000E+02    0.3306385412E-01    0.3005202542E-01    0.3301341149E-01    0.2903010072E-02    0.1287644227E+00
    0.1900000000E+02    0.3658564851E-01    0.3255939707E-01    0.3576428130E-01    0.3212248458E-02    0.1395164518E+00
    0.2100000000E+02    0.4003969069E-01    0.3491565081E-01    0.3835260291E-01    0.3515542563E-02    0.1496372207E+00
    0.2300000000E+02    0.4342837149E-01    0.3713325105E-01    0.4079269627E-01    0.3813102113E-02    0.1591822258E+00
    0.2500000000E+02    0.4675396632E-01    0.3922327763E-01    0.4309723608E-01    0.4105126711E-02    0.1682005940E+00
    0.2700000000E+02    0.5001864206E-01    0.4119561767E-01    0.4527748196E-01    0.4391806442E-02    0.1767359733E+00
    0.2900000000E+02    0.5322446348E-01    0.4305912611E-01    0.4734347112E-01    0.4673322435E-02    0.1848272780E+00
    0.3100000000E+02    0.5637339922E-01    0.4482176059E-01    0.4930418027E-01    0.4949847384E-02    0.1925093157E+00
    0.3300000000E+02    0.5946732735E-01    0.4649069550E-01    0.5116766244E-01    0.5221546040E-02    0.1998133163E+00
    0.3500000000E+02    0.6250804050E-01    0.4807241879E-01    0.5294116319E-01    0.5488575662E-02    0.2067673822E+00
    0.3700000000E+02    0.6549725074E-01    0.4957281456E-01    0.5463121962E-01    0.5751086438E-02    0.2133968713E+00
    0.3900000000E+02    0.6843659404E-01    0.5099723382E-01    0.5624374515E-01    0.6009221886E-02    0.2197247253E+00
    0.4100000000E+02    0.7132763450E-01    0.5235055538E-01    0.5778410243E-01    0.6263119216E-02    0.2257717518E+00
    0.4300000000E+02    0.7417186825E-01    0.5363723835E-01    0.5925716622E-01    0.6512909676E-02    0.2315568678E+00
    0.4500000000E+02    0.7697072715E-01    0.5486136781E-01    0.6066737783E-01    0.6758718879E-02    0.2370973107E+00
    0.4700000000E+02    0.7972558221E-01    0.5602669439E-01    0.6201879243E-01    0.7000667099E-02    0.2424088212E+00
    0.4900000000E+02    0.8243774681E-01    0.5713666887E-01    0.6331512027E-01    0.7238869554E-02    0.2475058031E+00
    0.1000000000E+02    0.2016652926E-01    0.1986486103E-01    0.2184932083E-01    0.1770575327E-02    0.8516933526E-01
    0.3000000000E+02    0.5480592262E-01    0.4395258705E-01    0.4833646219E-01    0.4812198312E-02    0.1887174251E+00
    0.5000000000E+02    0.8377821561E-01    0.5767190301E-01    0.6394370077E-01    0.7356600810E-02    0.2499780161E+00
    0.7000000000E+02    0.1086262701E+00    0.6612546206E-01    0.7431525833E-01    0.9539130773E-02    0.2908470751E+00
    0.9000000000E+02    0.1303596652E+00    0.7151429531E-01    0.8175129837E-01    0.1144835752E-01    0.3202601425E+00
    0.1100000000E+03    0.1496680126E+00    0.7496721497E-01    0.8736901070E-01    0.1314478224E-01    0.3425630879E+00
    0.1300000000E+03    0.1670394277E+00    0.7712989241E-01    0.9177832959E-01    0.1467122977E-01    0.3601317173E+00
    0.1500000000E+03    0.1828299322E+00    0.7840014645E-01    0.9534141991E-01    0.1605893660E-01    0.3743785852E+00
    0.1700000000E+03    0.1973059636E+00    0.7903658392E-01    0.9828739783E-01    0.1733127993E-01    0.3861984776E+00
    0.1900000000E+03    0.2106714141E+00    0.7921423996E-01    0.1007685801E+00    0.1850614966E-01    0.3961870153E+00
    0.2100000000E+03    0.2230853949E+00    0.7905536531E-01    0.1028903496E+00    0.1959750677E-01    0.4047568138E+00
    0.2300000000E+03    0.2346742405E+00    0.7864750992E-01    0.1047280487E+00    0.2061643653E-01    0.4122032414E+00
    0.2500000000E+03    0.2455398226E+00    0.7805466055E-01    0.1063370423E+00    0.2157187788E-01    0.4187436184E+00
    0.2700000000E+03    0.2557654359E+00    0.7732437021E-01    0.1077589744E+00    0.2247113976E-01    0.4245416106E+00
    0.2900000000E+03    0.2654200451E+00    0.7649247027E-01    0.1090258029E+00    0.2332027382E-01    0.4297229702E+00
    0.3100000000E+03    0.2745614044E+00    0.7558627012E-01    0.1101624830E+00    0.2412434804E-01    0.4343860152E+00
    0.3300000000E+03    0.2832383846E+00    0.7462678078E-01    0.1111888023E+00    0.2488765093E-01    0.4386087967E+00
    0.3500000000E+03    0.2914927337E+00    0.7363029138E-01    0.1121206635E+00    0.2561384604E-01    0.4424541189E+00
    0.3700000000E+03    0.2993604266E+00    0.7260950668E-01    0.1129710022E+00    0.2630609035E-01    0.4459731278E+00
    0.3900000000E+03    0.3068727124E+00    0.7157438064E-01    0.1137504541E+00    0.2696712615E-01    0.4492079262E+00
    0.4100000000E+03    0.3140569353E+00    0.7053273580E-01    0.1144678496E+00    0.2759935312E-01    0.4521935105E+00
    0.4300000000E+03    0.3209371853E+00    0.6949072907E-01    0.1151305846E+00    0.2820488536E-01    0.4549592269E+00
    0.4500000000E+03    0.3275348183E+00    0.6845320610E-01    0.1157449036E+00    0.2878559712E-01    0.4575298806E+00
    0.4700000000E+03    0.3338688762E+00    0.6742397344E-01    0.1163161174E+00    0.2934315953E-01    0.4599265930E+00
    0.4900000000E+03    0.3399564279E+00    0.6640600955E-01    0.1168487734E+00    0.2987907064E-01    0.4621674687E+00
    0.1000000000E+03    0.1402827230E+00    0.7343473106E-01    0.8474152528E-01    0.1232016552E-01    0.3321215829E+00
    0.3000000000E+03    0.2700516413E+00    0.7604721794E-01    0.1096090708E+00    0.2372765912E-01    0.4321139960E+00
    0.5000000000E+03    0.3429126283E+00    0.6590199906E-01    0.1171018880E+00    0.3013933390E-01    0.4632344328E+00
    0.7000000000E+03    0.3921487663E+00    0.5674427214E-01    0.1208562802E+00    0.3447593136E-01    0.4792537997E+00
    0.9000000000E+03    0.4279162054E+00    0.4944325714E-01    0.1231482619E+00    0.3762891044E-01    0.4892721163E+00
    0.1100000000E+04    0.4550041787E+00    0.4369899183E-01    0.1247063557E+00    0.4001877668E-01    0.4962360089E+00
    0.1300000000E+04    0.4761306892E+00    0.3914114310E-01    0.1258402046E+00    0.4188425831E-01    0.5014110202E+00
    0.1500000000E+04    0.4929907220E+00    0.3547421309E-01    0.1267051395E+00    0.4337428087E-01    0.5054381756E+00
    0.1700000000E+04    0.5067030407E+00    0.3248021022E-01    0.1273881606E+00    0.4458717469E-01    0.5086797872E+00
    0.1900000000E+04    0.5180357536E+00    0.3000072395E-01    0.1279420055E+00    0.4559047242E-01    0.5113573786E+00
    0.2100000000E+04    0.5275324008E+00    0.2792018169E-01    0.1284006082E+00    0.4643197779E-01    0.5136146647E+00
    0.2300000000E+04    0.5355872299E+00    0.2615335682E-01    0.1287868481E+00    0.4714637525E-01    0.5155493084E+00
    0.2500000000E+04    0.5424922681E+00    0.2463657628E-01    0.1291167420E+00    0.4775936423E-01    0.5172302020E+00
    0.2700000000E+04    0.5484678155E+00    0.2332162044E-01    0.1294018558E+00    0.4829033786E-01    0.5187074591E+00
    0.2900000000E+04    0.5536827698E+00    0.2217148388E-01    0.1296507601E+00    0.4875416880E-01    0.5200184830E+00
    0.3100000000E+04    0.5582685034E+00    0.2115740474E-01    0.1298699479E+00    0.4916242887E-01    0.5211918079E+00
    0.3300000000E+04    0.5623285382E+00    0.2025675974E-01    0.1300644325E+00    0.4952423949E-01    0.5222496156E+00
    0.3500000000E+04    0.5659454170E+00    0.1945155428E-01    0.1302381492E+00    0.4984687577E-01    0.5232094348E+00
    0.3700000000E+04    0.5691856648E+00    0.1872732574E-01    0.1303942320E+00    0.5013620288E-01    0.5240853171E+00
    0.3900000000E+04    0.5721034261E+00    0.1807233726E-01    0.1305352094E+00    0.5039699587E-01    0.5248886721E+00
    0.4100000000E+04    0.5747431667E+00    0.1747697794E-01    0.1306631447E+00    0.5063317748E-01    0.5256288687E+00
    0.4300000000E+04    0.5771417089E+00    0.1693331163E-01    0.1307797389E+00    0.5084799711E-01    0.5263136798E+00
    0.4500000000E+04    0.5793297787E+00    0.1643473382E-01    0.1308864076E+00    0.5104416707E-01    0.5269496133E+00
    0.4700000000E+04    0.5813331984E+00    0.1597570815E-01    0.1309843386E+00    0.5122396746E-01    0.5275421631E+00
    0.4900000000E+04    0.5831738119E+00    0.1555156205E-01    0.1310745364E+00    0.5138932773E-01    0.5280960034E+00
    0.1000000000E+04    0.4423435385E+00    0.4640101878E-01    0.1239944168E+00    0.3890152871E-01    0.4930354794E+00
    0.3000000000E+04    0.5560472580E+00    0.2164897488E-01    0.1297637260E+00    0.4896462573E-01    0.5206208456E+00
    0.5000000000E+04    0.5840389868E+00    0.1535130480E-01    0.1311170077E+00    0.5146711592E-01    0.5283596813E+00
    0.7000000000E+04    0.5961197681E+00    0.1246976102E-01    0.1317139372E+00    0.5255869731E-01    0.5323271849E+00
    0.9000000000E+04    0.6027588960E+00    0.1077369558E-01    0.1320410362E+00    0.5316516779E-01    0.5348341695E+00
    0.1100000000E+05    0.6069324808E+00    0.9631990999E-02    0.1322412264E+00    0.5355064665E-01    0.5366012295E+00
    0.1300000000E+05    0.6097902577E+00    0.8797876990E-02    0.1323719406E+00    0.5381753681E-01    0.5379337736E+00
    0.1500000000E+05    0.6118661308E+00    0.8154292323E-02    0.1324607481E+00    0.5401356462E-01    0.5389858721E+00
    0.1700000000E+05    0.6134406405E+00    0.7638091360E-02    0.1325225162E+00    0.5416390030E-01    0.5398446373E+00
    0.1900000000E+05    0.6146749178E+00    0.7211948451E-02    0.1325659525E+00    0.5428305423E-01    0.5405634764E+00
    0.2100000000E+05    0.6156679483E+00    0.6852239875E-02    0.1325964824E+00    0.5437997369E-01    0.5411771793E+00
    0.2300000000E+05    0.6164838284E+00    0.6543201798E-02    0.1326176524E+00    0.5446047406E-01    0.5417095037E+00
    0.2500000000E+05    0.6171658591E+00    0.6273862843E-02    0.1326318718E+00    0.5452849874E-01    0.5421772983E+00
    0.2700000000E+05    0.6177443296E+00    0.6036320860E-02    0.1326408295E+00    0.5458681653E-01    0.5425928884E+00
    0.2900000000E+05    0.6182410540E+00    0.5824720246E-02    0.1326457410E+00    0.5463742906E-01    0.5429655262E+00
    0.3100000000E+05    0.6186721362E+00    0.5634616826E-02    0.1326475002E+00    0.5468181958E-01    0.5433023112E+00
    0.3300000000E+05    0.6190497207E+00    0.5462568060E-02    0.1326467774E+00    0.5472111084E-01    0.5436087946E+00
    0.3500000000E+05    0.6193831368E+00    0.5305859892E-02    0.1326440832E+00    0.5475616863E-01    0.5438893882E+00
    0.3700000000E+05    0.6196796684E+00    0.5162319476E-02    0.1326398121E+00    0.5478767144E-01    0.5441476490E+00
    0.3900000000E+05    0.6199450848E+00    0.5030183614E-02    0.1326342730E+00    0.5481615871E-01    0.5443864814E+00
    0.4100000000E+05    0.6201840141E+00    0.4908004313E-02    0.1326277101E+00    0.5484206479E-01    0.5446082834E+00
    0.4300000000E+05    0.6204002117E+00    0.4794579682E-02    0.1326203182E+00    0.5486574348E-01    0.5448150552E+00
    0.4500000000E+05    0.6205967567E+00    0.4688902517E-02    0.1326122546E+00    0.5488748593E-01    0.5450084807E+00
    0.4700000000E+05    0.6207761971E+00    0.4590121441E-02    0.1326036468E+00    0.5490753397E-01    0.5451899884E+00
    0.4900000000E+05    0.6209406597E+00    0.4497511139E-02    0.1325945988E+00    0.5492609023E-01    0.5453608000E+00
    0.1000000000E+05    0.6050603885E+00    0.1015351739E-01    0.1321523687E+00    0.5337721194E-01    0.5357859214E+00
    0.3000000000E+05    0.6184639642E+00    0.5727216305E-02    0.1326469684E+00    0.5466032487E-01    0.5431380226E+00
    0.5000000000E+05    0.6210178447E+00    0.4453322050E-02    0.1325899371E+00    0.5493486345E-01    0.5454425292E+00
    0.7000000000E+05    0.6220899170E+00    0.3780209469E-02    0.1324879517E+00    0.5506230603E-01    0.5467080225E+00
    0.9000000000E+05    0.6226770248E+00    0.3346399000E-02    0.1323853166E+00    0.5513880611E-01    0.5475488415E+00
    0.1100000000E+06    0.6230462202E+00    0.3036602377E-02    0.1322895588E+00    0.5519117998E-01    0.5481654621E+00
    0.1300000000E+06    0.6232990887E+00    0.2800919825E-02    0.1322015997E+00    0.5523001712E-01    0.5486459356E+00
    0.1500000000E+06    0.6234826586E+00    0.2613731565E-02    0.1321208800E+00    0.5526039754E-01    0.5490360140E+00
    0.1700000000E+06    0.6236216687E+00    0.2460339134E-02    0.1320465529E+00    0.5528508666E-01    0.5493622293E+00
    0.1900000000E+06    0.6237303648E+00    0.2331620755E-02    0.1319777970E+00    0.5530573045E-01    0.5496412125E+00
    0.2100000000E+06    0.6238175238E+00    0.2221573189E-02    0.1319138927E+00    0.5532337611E-01    0.5498840136E+00
    0.2300000000E+06    0.6238888452E+00    0.2126061068E-02    0.1318542298E+00    0.5533872515E-01    0.5500983142E+00
    0.2500000000E+06    0.6239481894E+00    0.2042129675E-02    0.1317982952E+00    0.5535226737E-01    0.5502896509E+00
    0.2700000000E+06    0.6239982628E+00    0.1967603685E-02    0.1317456578E+00    0.5536435642E-01    0.5504621348E+00
    0.2900000000E+06    0.6240410180E+00    0.1900841027E-02    0.1316959541E+00    0.5537525493E-01    0.5506188948E+00
    0.3100000000E+06    0.6240778990E+00    0.1840575603E-02    0.1316488754E+00    0.5538516265E-01    0.5507623626E+00
    0.3300000000E+06    0.6241099959E+00    0.1785813275E-02    0.1316041584E+00    0.5539423459E-01    0.5508944625E+00
    0.3500000000E+06    0.6241381471E+00    0.1735761002E-02    0.1315615767E+00    0.5540259317E-01    0.5510167411E+00
    0.3700000000E+06    0.6241630074E+00    0.1689777338E-02    0.1315209345E+00    0.5541033663E-01    0.5511304587E+00
    0.3900000000E+06    0.6241850959E+00    0.1647337059E-02    0.1314820617E+00    0.5541754479E-01    0.5512366545E+00
    0.4100000000E+06    0.6242048288E+00    0.1608005389E-02    0.1314448093E+00    0.5542428337E-01    0.5513361948E+00
    0.4300000000E+06    0.6242225440E+00    0.1571418889E-02    0.1314090464E+00    0.5543060702E-01    0.5514298088E+00
    0.4500000000E+06    0.6242385187E+00    0.1537271067E-02    0.1313746572E+00    0.5543656164E-01    0.5515181153E+00
    0.4700000000E+06    0.6242529818E+00    0.1505301380E-02    0.1313415390E+00    0.5544218613E-01    0.5516016440E+00
    0.4900000000E+06    0.6242661245E+00    0.1475286735E-02    0.1313096000E+00    0.5544751370E-01    0.5516808513E+00
    0.1000000000E+06    0.6228805888E+00    0.3179943761E-02    0.1323364595E+00    0.5516715456E-01    0.5478782398E+00
    0.3000000000E+06    0.6240601177E+00    0.1869963711E-02    0.1316721041E+00    0.5538032207E-01    0.5506921598E+00
    0.5000000000E+06    0.6242722520E+00    0.1460951409E-02    0.1312940467E+00    0.5545007521E-01    0.5517189602E+00
    0.7000000000E+06    0.6243537012E+00    0.1241631597E-02    0.1310288305E+00    0.5549094368E-01    0.5523276486E+00
    0.9000000000E+06    0.6243937075E+00    0.1099535249E-02    0.1308239592E+00    0.5551965801E-01    0.5527534799E+00
    0.1100000000E+07    0.6244158141E+00    0.9978156350E-03    0.1306567971E+00    0.5554173239E-01    0.5530780916E+00
    0.1300000000E+07    0.6244287852E+00    0.9203353882E-03    0.1305154883E+00    0.5555963844E-01    0.5533389456E+00
    0.1500000000E+07    0.6244365772E+00    0.8587563286E-03    0.1303930332E+00    0.5557469011E-01    0.5535561874E+00
    0.1700000000E+07    0.6244412144E+00    0.8082763581E-03    0.1302849484E+00    0.5558766716E-01    0.5537418350E+00
    0.1900000000E+07    0.6244438277E+00    0.7659079458E-03    0.1301881866E+00    0.5559906934E-01    0.5539036051E+00
    0.2100000000E+07    0.6244450921E+00    0.7296816418E-03    0.1301005809E+00    0.5560923587E-01    0.5540467335E+00
    0.2300000000E+07    0.6244454312E+00    0.6982391883E-03    0.1300205346E+00    0.5561840733E-01    0.5541749277E+00
    0.2500000000E+07    0.6244451219E+00    0.6706092964E-03    0.1299468369E+00    0.5562676047E-01    0.5542909050E+00
    0.2700000000E+07    0.6244443508E+00    0.6460764440E-03    0.1298785473E+00    0.5563442890E-01    0.5543967132E+00
    0.2900000000E+07    0.6244432475E+00    0.6241002657E-03    0.1298149208E+00    0.5564151607E-01    0.5544939326E+00
    0.3100000000E+07    0.6244419038E+00    0.6042639804E-03    0.1297553570E+00    0.5564810366E-01    0.5545838067E+00
    0.3300000000E+07    0.6244403859E+00    0.5862402484E-03    0.1296993647E+00    0.5565425730E-01    0.5546673311E+00
    0.3500000000E+07    0.6244387423E+00    0.5697678978E-03    0.1296465371E+00    0.5566003051E-01    0.5547453148E+00
    0.3700000000E+07    0.6244370093E+00    0.5546356519E-03    0.1295965335E+00    0.5566546750E-01    0.5548184236E+00
    0.3900000000E+07    0.6244352138E+00    0.5406704973E-03    0.1295490653E+00    0.5567060521E-01    0.5548872116E+00
    0.4100000000E+07    0.6244333764E+00    0.5277292051E-03    0.1295038865E+00    0.5567547482E-01    0.5549521451E+00
    0.4300000000E+07    0.6244315129E+00    0.5156920413E-03    0.1294607850E+00    0.5568010287E-01    0.5550136196E+00
    0.4500000000E+07    0.6244296351E+00    0.5044580297E-03    0.1294195773E+00    0.5568451217E-01    0.5550719736E+00
    0.4700000000E+07    0.6244277524E+00    0.4939413319E-03    0.1293801029E+00    0.5568872243E-01    0.5551274989E+00
    0.4900000000E+07    0.6244258719E+00    0.4840684468E-03    0.1293422213E+00    0.5569275083E-01    0.5551804489E+00
    0.1000000000E+07    0.6244062801E+00    0.1044901368E-02    0.1307365614E+00    0.5553133168E-01    0.5529255173E+00
    0.3000000000E+07    0.6244426011E+00    0.6139368772E-03    0.1297846640E+00    0.5564486789E-01    0.5545397206E+00
    0.5000000000E+07    0.6244249343E+00    0.4793532891E-03    0.1293238383E+00    0.5569470161E-01    0.5552060283E+00
    0.7000000000E+07    0.6244071118E+00    0.4072363167E-03    0.1290160696E+00    0.5572700808E-01    0.5556238991E+00
    0.9000000000E+07    0.6243915455E+00    0.3605360808E-03    0.1287844521E+00    0.5575095289E-01    0.5559268996E+00
    0.1100000000E+08    0.6243780346E+00    0.3271187119E-03    0.1285986061E+00    0.5576998527E-01    0.5561639070E+00
    0.1300000000E+08    0.6243661816E+00    0.3016722932E-03    0.1284433599E+00    0.5578578144E-01    0.5563581796E+00
    0.1500000000E+08    0.6243556539E+00    0.2814531739E-03    0.1283100307E+00    0.5579928358E-01    0.5565225740E+00
    0.1700000000E+08    0.6243461975E+00    0.2648817416E-03    0.1281931798E+00    0.5581107430E-01    0.5566649317E+00
    0.1900000000E+08    0.6243376204E+00    0.2509755398E-03    0.1280891731E+00    0.5582153907E-01    0.5567903809E+00
    0.2100000000E+08    0.6243297760E+00    0.2390870636E-03    0.1279954612E+00    0.5583094623E-01    0.5569024563E+00
    0.2300000000E+08    0.6243225508E+00    0.2287698445E-03    0.1279101863E+00    0.5583949011E-01    0.5570036950E+00
    0.2500000000E+08    0.6243158549E+00    0.2197046722E-03    0.1278319525E+00    0.5584731594E-01    0.5570959787E+00
    0.2700000000E+08    0.6243096167E+00    0.2116564311E-03    0.1277596843E+00    0.5585453514E-01    0.5571807412E+00
