  Pressure (Pa) 22mC5-400 (mol/kg) 2mC6-400 (mol/kg) 3mC6-400 (mol/kg) 23mC5-400 (mol/kg) C7-400 (mol/kg)
    0.1000000000E+01    0.2122225528E-02    0.7876945720E-03    0.3650492460E-02    0.1863196494E-03    0.1015540947E-01
    0.3000000000E+01    0.6314093110E-02    0.2272665679E-02    0.1050669640E-01    0.5543462017E-03    0.2923473742E-01
    0.5000000000E+01    0.1043743678E-01    0.3648531538E-02    0.1682798760E-01    0.9163616453E-03    0.4683277268E-01
    0.7000000000E+01    0.1449410042E-01    0.4927208459E-02    0.2267489856E-01    0.1272527697E-02    0.6311687575E-01
    0.9000000000E+01    0.1848586106E-01    0.6118871663E-02    0.2809914929E-01    0.1623000211E-02    0.7823006158E-01
    0.1100000000E+02    0.2241443187E-01    0.7232264750E-02    0.3314519518E-01    0.1967929440E-02    0.9229527363E-01
    0.1300000000E+02    0.2628146495E-01    0.8274945464E-02    0.3785145961E-01    0.2307460282E-02    0.1054187880E+00
    0.1500000000E+02    0.3008855407E-01    0.9253482540E-02    0.4225132389E-01    0.2641732521E-02    0.1176929470E+00
    0.1700000000E+02    0.3383723717E-01    0.1017361458E-01    0.4637392836E-01    0.2970881043E-02    0.1291983723E+00
    0.1900000000E+02    0.3752899880E-01    0.1104037922E-01    0.5024482554E-01    0.3295036053E-02    0.1400057687E+00
    0.2100000000E+02    0.4116527239E-01    0.1185821892E-01    0.5388651604E-01    0.3614323272E-02    0.1501774045E+00
    0.2300000000E+02    0.4474744242E-01    0.1263106803E-01    0.5731889128E-01    0.3928864130E-02    0.1597683349E+00
    0.2500000000E+02    0.4827684653E-01    0.1336242504E-01    0.6055960128E-01    0.4238775948E-02    0.1688274178E+00
    0.2700000000E+02    0.5175477741E-01    0.1405541272E-01    0.6362436188E-01    0.4544172104E-02    0.1773981630E+00
    0.2900000000E+02    0.5518248473E-01    0.1471282860E-01    0.6652721285E-01    0.4845162206E-02    0.1855194451E+00
    0.3100000000E+02    0.5856117687E-01    0.1533718741E-01    0.6928073570E-01    0.5141852239E-02    0.1932261058E+00
    0.3300000000E+02    0.6189202264E-01    0.1593075700E-01    0.7189623831E-01    0.5434344717E-02    0.2005494640E+00
    0.3500000000E+02    0.6517615285E-01    0.1649558896E-01    0.7438391231E-01    0.5722738823E-02    0.2075177505E+00
    0.3700000000E+02    0.6841466187E-01    0.1703354461E-01    0.7675296760E-01    0.6007130545E-02    0.2141564805E+00
    0.3900000000E+02    0.7160860907E-01    0.1754631744E-01    0.7901174788E-01    0.6287612799E-02    0.2204887723E+00
    0.4100000000E+02    0.7475902020E-01    0.1803545230E-01    0.8116783025E-01    0.6564275555E-02    0.2265356232E+00
    0.4300000000E+02    0.7786688873E-01    0.1850236204E-01    0.8322811136E-01    0.6837205951E-02    0.2323161473E+00
    0.4500000000E+02    0.8093317712E-01    0.1894834188E-01    0.8519888220E-01    0.7106488405E-02    0.2378477825E+00
    0.4700000000E+02    0.8395881797E-01    0.1937458201E-01    0.8708589324E-01    0.7372204716E-02    0.2431464706E+00
    0.4900000000E+02    0.8694471524E-01    0.1978217847E-01    0.8889441129E-01    0.7634434173E-02    0.2482268147E+00
    0.1000000000E+02    0.2045794054E-01    0.6684854334E-02    0.3066691765E-01    0.1796148557E-02    0.8538666633E-01
    0.3000000000E+02    0.5687788374E-01    0.1502899300E-01    0.6792190566E-01    0.4994038244E-02    0.1894225686E+00
    0.5000000000E+02    0.8842303494E-01    0.1997930447E-01    0.8977076149E-01    0.7764265444E-02    0.2506893393E+00
    0.7000000000E+02    0.1161026830E+00    0.2315181884E-01    0.1041617993E+00    0.1019535532E-01    0.2912087191E+00
    0.9000000000E+02    0.1406580869E+00    0.2525121213E-01    0.1143717469E+00    0.1235232647E-01    0.3200721362E+00
    0.1100000000E+03    0.1626461088E+00    0.2664667066E-01    0.1219998586E+00    0.1428402509E-01    0.3417230078E+00
    0.1300000000E+03    0.1824934799E+00    0.2755568073E-01    0.1279203547E+00    0.1602788399E-01    0.3585936752E+00
    0.1500000000E+03    0.2005330187E+00    0.2811684716E-01    0.1326518646E+00    0.1761309886E-01    0.3721291219E+00
    0.1700000000E+03    0.2170284098E+00    0.2842348368E-01    0.1365217485E+00    0.1906280154E-01    0.3832426852E+00
    0.1900000000E+03    0.2321915340E+00    0.2854094960E-01    0.1397469482E+00    0.2039557989E-01    0.3925404697E+00
    0.2100000000E+03    0.2461948290E+00    0.2851639304E-01    0.1424769931E+00    0.2162656197E-01    0.4004408127E+00
    0.2300000000E+03    0.2591802623E+00    0.2838459890E-01    0.1448183408E+00    0.2276820303E-01    0.4072419582E+00
    0.2500000000E+03    0.2712659509E+00    0.2817168458E-01    0.1468488715E+00    0.2383086612E-01    0.4131623878E+00
    0.2700000000E+03    0.2825511157E+00    0.2789753327E-01    0.1486268924E+00    0.2482325673E-01    0.4183658963E+00
    0.2900000000E+03    0.2931198404E+00    0.2757745009E-01    0.1501969352E+00    0.2575275239E-01    0.4229777500E+00
    0.3100000000E+03    0.3030439570E+00    0.2722332025E-01    0.1515936054E+00    0.2662565588E-01    0.4270954259E+00
    0.3300000000E+03    0.3123852875E+00    0.2684443751E-01    0.1528442086E+00    0.2744739185E-01    0.4307959405E+00
    0.3500000000E+03    0.3211974034E+00    0.2644810804E-01    0.1539705822E+00    0.2822266111E-01    0.4341409714E+00
    0.3700000000E+03    0.3295270197E+00    0.2604009790E-01    0.1549904028E+00    0.2895556294E-01    0.4371805097E+00
    0.3900000000E+03    0.3374151099E+00    0.2562496924E-01    0.1559181338E+00    0.2964969294E-01    0.4399555143E+00
    0.4100000000E+03    0.3448978056E+00    0.2520633588E-01    0.1567657254E+00    0.3030822188E-01    0.4424998725E+00
    0.4300000000E+03    0.3520071275E+00    0.2478705986E-01    0.1575431394E+00    0.3093395992E-01    0.4448418693E+00
    0.4500000000E+03    0.3587715849E+00    0.2436940385E-01    0.1582587468E+00    0.3152940907E-01    0.4470053049E+00
    0.4700000000E+03    0.3652166695E+00    0.2395515041E-01    0.1589196339E+00    0.3209680663E-01    0.4490103535E+00
    0.4900000000E+03    0.3713652660E+00    0.2354569598E-01    0.1595318404E+00    0.3263816116E-01    0.4508742318E+00
    0.1000000000E+03    0.1519437928E+00    0.2602092041E-01    0.1184427116E+00    0.1334377101E-01    0.3316160830E+00
    0.3000000000E+03    0.2981583989E+00    0.2740400738E-01    0.1509150887E+00    0.2619592052E-01    0.4250931357E+00
    0.5000000000E+03    0.3743349054E+00    0.2334311787E-01    0.1598213364E+00    0.3289964493E-01    0.4517579353E+00
    0.7000000000E+03    0.4222398502E+00    0.1969717014E-01    0.1639949505E+00    0.3711999839E-01    0.4647085117E+00
    0.9000000000E+03    0.4552644074E+00    0.1686178148E-01    0.1664109370E+00    0.4003250185E-01    0.4724662575E+00
    0.1100000000E+04    0.4793743643E+00    0.1468719590E-01    0.1679811668E+00    0.4216105371E-01    0.4776792638E+00
    0.1300000000E+04    0.4977064604E+00    0.1300011070E-01    0.1690795670E+00    0.4378122050E-01    0.4814474854E+00
    0.1500000000E+04    0.5120831624E+00    0.1166833521E-01    0.1698880381E+00    0.4505316961E-01    0.4843126331E+00
    0.1700000000E+04    0.5236381664E+00    0.1059808908E-01    0.1705057445E+00    0.4607657347E-01    0.4865735630E+00
    0.1900000000E+04    0.5331134584E+00    0.9723473476E-02    0.1709913593E+00    0.4691669036E-01    0.4884091661E+00
    0.2100000000E+04    0.5410144421E+00    0.8997763696E-02    0.1713818142E+00    0.4761798729E-01    0.4899333330E+00
    0.2300000000E+04    0.5476967702E+00    0.8387328442E-02    0.1717015108E+00    0.4821176716E-01    0.4912221620E+00
    0.2500000000E+04    0.5534176302E+00    0.7867553966E-02    0.1719672147E+00    0.4872067466E-01    0.4923285179E+00
    0.2700000000E+04    0.5583673777E+00    0.7420125243E-02    0.1721908214E+00    0.4916147619E-01    0.4932903218E+00
    0.2900000000E+04    0.5626897619E+00    0.7031197321E-02    0.1723810019E+00    0.4954683767E-01    0.4941355165E+00
    0.3100000000E+04    0.5664952617E+00    0.6690148883E-02    0.1725442234E+00    0.4988649707E-01    0.4948851679E+00
    0.3300000000E+04    0.5698701132E+00    0.6388719680E-02    0.1726854058E+00    0.5018805831E-01    0.4955554734E+00
    0.3500000000E+04    0.5728825651E+00    0.6120404320E-02    0.1728083564E+00    0.5045754143E-01    0.4961591022E+00
    0.3700000000E+04    0.5755873026E+00    0.5880019735E-02    0.1729160668E+00    0.5069977181E-01    0.4967061139E+00
    0.3900000000E+04    0.5780286336E+00    0.5663392080E-02    0.1730109188E+00    0.5091866062E-01    0.4972046033E+00
    0.4100000000E+04    0.5802428223E+00    0.5467126983E-02    0.1730948320E+00    0.5111741013E-01    0.4976611620E+00
    0.4300000000E+04    0.5822598230E+00    0.5288438770E-02    0.1731693697E+00    0.5129866642E-01    0.4980812151E+00
    0.4500000000E+04    0.5841045867E+00    0.5125022008E-02    0.1732358173E+00    0.5146463437E-01    0.4984692705E+00
    0.4700000000E+04    0.5857980573E+00    0.4974953786E-02    0.1732952413E+00    0.5161716548E-01    0.4988291071E+00
    0.4900000000E+04    0.5873579401E+00    0.4836618594E-02    0.1733485337E+00    0.5175782551E-01    0.4991639179E+00
    0.1000000000E+04    0.4681957841E+00    0.1570354822E-01    0.1672717702E+00    0.4117387193E-01    0.4753028944E+00
    0.3000000000E+04    0.5646512485E+00    0.6855251653E-02    0.1724656447E+00    0.4972186226E-01    0.4945211769E+00
    0.5000000000E+04    0.5880925837E+00    0.4771415467E-02    0.1733731199E+00    0.5182412829E-01    0.4993228038E+00
    0.7000000000E+04    0.5984682820E+00    0.3841246288E-02    0.1736751776E+00    0.5276564210E-01    0.5016742925E+00
    0.9000000000E+04    0.6042928802E+00    0.3301087078E-02    0.1737891698E+00    0.5330039102E-01    0.5031243879E+00
    0.1100000000E+05    0.6080148884E+00    0.2940718102E-02    0.1738254880E+00    0.5364609296E-01    0.5041321430E+00
    0.1300000000E+05    0.6105961563E+00    0.2679142451E-02    0.1738246462E+00    0.5388861970E-01    0.5048857638E+00
    0.1500000000E+05    0.6124902910E+00    0.2478317417E-02    0.1738044887E+00    0.5406863034E-01    0.5054779411E+00
    0.1700000000E+05    0.6139388509E+00    0.2317875361E-02    0.1737738462E+00    0.5420786321E-01    0.5059601315E+00
    0.1900000000E+05    0.6150821769E+00    0.2185849131E-02    0.1737374524E+00    0.5431899798E-01    0.5063634304E+00
    0.2100000000E+05    0.6160073368E+00    0.2074702369E-02    0.1736979924E+00    0.5440993224E-01    0.5067078603E+00
    0.2300000000E+05    0.6167711930E+00    0.1979427454E-02    0.1736570518E+00    0.5448584411E-01    0.5070069653E+00
    0.2500000000E+05    0.6174124464E+00    0.1896551916E-02    0.1736155932E+00    0.5455027170E-01    0.5072702761E+00
    0.2700000000E+05    0.6179583461E+00    0.1823582705E-02    0.1735742106E+00    0.5460571595E-01    0.5075047191E+00
    0.2900000000E+05    0.6184286309E+00    0.1758677653E-02    0.1735332728E+00    0.5465399556E-01    0.5077154660E+00
    0.3100000000E+05    0.6188379483E+00    0.1700442146E-02    0.1734930071E+00    0.5469646541E-01    0.5079064669E+00
    0.3300000000E+05    0.6191973958E+00    0.1647798323E-02    0.1734535502E+00    0.5473415597E-01    0.5080807985E+00
    0.3500000000E+05    0.6195155342E+00    0.1599898139E-02    0.1734149795E+00    0.5476786525E-01    0.5082408983E+00
    0.3700000000E+05    0.6197990727E+00    0.1556063912E-02    0.1733773339E+00    0.5479822110E-01    0.5083887262E+00
    0.3900000000E+05    0.6200533438E+00    0.1515746645E-02    0.1733406264E+00    0.5482572443E-01    0.5085258789E+00
    0.4100000000E+05    0.6202826389E+00    0.1478496178E-02    0.1733048534E+00    0.5485077991E-01    0.5086536722E+00
    0.4300000000E+05    0.6204904504E+00    0.1443939388E-02    0.1732700000E+00    0.5487371812E-01    0.5087732020E+00
    0.4500000000E+05    0.6206796492E+00    0.1411764000E-02    0.1732360441E+00    0.5489481185E-01    0.5088853897E+00
    0.4700000000E+05    0.6208526172E+00    0.1381706367E-02    0.1732029595E+00    0.5491428830E-01    0.5089910162E+00
    0.4900000000E+05    0.6210113469E+00    0.1353542133E-02    0.1731707171E+00    0.5493233822E-01    0.5090907489E+00
    0.1000000000E+05    0.6063388245E+00    0.3105002474E-02    0.1738137005E+00    0.5348992689E-01    0.5036684941E+00
    0.3000000000E+05    0.6186401476E+00    0.1728799813E-02    0.1735130457E+00    0.5467588595E-01    0.5078132251E+00
    0.5000000000E+05    0.6210859077E+00    0.1340108858E-02    0.1731549023E+00    0.5494087967E-01    0.5091385876E+00
    0.7000000000E+05    0.6221260835E+00    0.1135896588E-02    0.1728755921E+00    0.5506550417E-01    0.5098909579E+00
    0.9000000000E+05    0.6226995160E+00    0.1004673137E-02    0.1726502190E+00    0.5514079534E-01    0.5104060087E+00
    0.1100000000E+06    0.6230615834E+00    0.9111362379E-03    0.1724618886E+00    0.5519253879E-01    0.5107936651E+00
    0.1300000000E+06    0.6233102576E+00    0.8400683764E-03    0.1723002694E+00    0.5523100483E-01    0.5111026537E+00
    0.1500000000E+06    0.6234911463E+00    0.7836776157E-03    0.1721587529E+00    0.5526114794E-01    0.5113585706E+00
    0.1700000000E+06    0.6236283358E+00    0.7375023365E-03    0.1720328928E+00    0.5528567585E-01    0.5115764274E+00
    0.1900000000E+06    0.6237357375E+00    0.6987778156E-03    0.1719195639E+00    0.5530620499E-01    0.5117657399E+00
    0.2100000000E+06    0.6238219423E+00    0.6656866858E-03    0.1718164898E+00    0.5532376610E-01    0.5119328995E+00
    0.2300000000E+06    0.6238925395E+00    0.6369782539E-03    0.1717219618E+00    0.5533905096E-01    0.5120823955E+00
    0.2500000000E+06    0.6239513205E+00    0.6117596242E-03    0.1716346655E+00    0.5535254324E-01    0.5122174965E+00
    0.2700000000E+06    0.6240009469E+00    0.5893738797E-03    0.1715535682E+00    0.5536459264E-01    0.5123406526E+00
    0.2900000000E+06    0.6240433413E+00    0.5693254331E-03    0.1714778438E+00    0.5537545915E-01    0.5124537456E+00
    0.3100000000E+06    0.6240799267E+00    0.5512323668E-03    0.1714068212E+00    0.5538534062E-01    0.5125582507E+00
    0.3300000000E+06    0.6241117782E+00    0.5347949357E-03    0.1713399479E+00    0.5539439076E-01    0.5126553451E+00
    0.3500000000E+06    0.6241397233E+00    0.5197741266E-03    0.1712767635E+00    0.5540273104E-01    0.5127459825E+00
    0.3700000000E+06    0.6241644088E+00    0.5059766855E-03    0.1712168803E+00    0.5541045896E-01    0.5128309459E+00
    0.3900000000E+06    0.6241863476E+00    0.4932444258E-03    0.1711599688E+00    0.5541765382E-01    0.5129108856E+00
    0.4100000000E+06    0.6242059515E+00    0.4814464412E-03    0.1711057466E+00    0.5542438092E-01    0.5129863477E+00
    0.4300000000E+06    0.6242235546E+00    0.4704733344E-03    0.1710539699E+00    0.5543069459E-01    0.5130577948E+00
    0.4500000000E+06    0.6242394311E+00    0.4602328722E-03    0.1710044264E+00    0.5543664048E-01    0.5131256222E+00
    0.4700000000E+06    0.6242538078E+00    0.4506466676E-03    0.1709569307E+00    0.5544225727E-01    0.5131901701E+00
    0.4900000000E+06    0.6242668741E+00    0.4416476149E-03    0.1709113193E+00    0.5544757802E-01    0.5132517337E+00
    0.1000000000E+06    0.6228990049E+00    0.9543979009E-03    0.1725521821E+00    0.5516878342E-01    0.5106119336E+00
    0.3000000000E+06    0.6240622861E+00    0.5600548477E-03    0.1714417817E+00    0.5538051253E-01    0.5125069921E+00
    0.5000000000E+06    0.6242729665E+00    0.4373498815E-03    0.1708891745E+00    0.5545013642E-01    0.5132814780E+00
    0.7000000000E+06    0.6243539905E+00    0.3716222148E-03    0.1705174975E+00    0.5549096687E-01    0.5137678909E+00
    0.9000000000E+06    0.6243938129E+00    0.3290607346E-03    0.1702368382E+00    0.5551966463E-01    0.5141214185E+00
    0.1100000000E+07    0.6244158218E+00    0.2986034295E-03    0.1700111873E+00    0.5554173014E-01    0.5143985752E+00
    0.1300000000E+07    0.6244287340E+00    0.2754093451E-03    0.1698224344E+00    0.5555963077E-01    0.5146262210E+00
    0.1500000000E+07    0.6244364873E+00    0.2569784543E-03    0.1696601695E+00    0.5557467883E-01    0.5148192049E+00
    0.1700000000E+07    0.6244410971E+00    0.2418714903E-03    0.1695178524E+00    0.5558765330E-01    0.5149865886E+00
    0.1900000000E+07    0.6244436902E+00    0.2291932985E-03    0.1693911035E+00    0.5559905355E-01    0.5151343037E+00
    0.2100000000E+07    0.6244449391E+00    0.2183539068E-03    0.1692768452E+00    0.5560921857E-01    0.5152664419E+00
    0.2300000000E+07    0.6244452659E+00    0.2089465082E-03    0.1691728315E+00    0.5561838881E-01    0.5153859433E+00
    0.2500000000E+07    0.6244449464E+00    0.2006802402E-03    0.1690773734E+00    0.5562674094E-01    0.5154949906E+00
    0.2700000000E+07    0.6244441669E+00    0.1933408604E-03    0.1689891681E+00    0.5563440852E-01    0.5155952483E+00
    0.2900000000E+07    0.6244430565E+00    0.1867665899E-03    0.1689071898E+00    0.5564149495E-01    0.5156880141E+00
    0.3100000000E+07    0.6244417066E+00    0.1808326616E-03    0.1688306160E+00    0.5564808188E-01    0.5157743192E+00
    0.3300000000E+07    0.6244401833E+00    0.1754410916E-03    0.1687587774E+00    0.5565423495E-01    0.5158549966E+00
    0.3500000000E+07    0.6244385349E+00    0.1705137084E-03    0.1686911218E+00    0.5566000764E-01    0.5159307284E+00
    0.3700000000E+07    0.6244367976E+00    0.1659872786E-03    0.1686271884E+00    0.5566544416E-01    0.5160020805E+00
    0.3900000000E+07    0.6244349982E+00    0.1618100237E-03    0.1685665887E+00    0.5567058145E-01    0.5160695270E+00
    0.4100000000E+07    0.6244331573E+00    0.1579390815E-03    0.1685089919E+00    0.5567545066E-01    0.5161334696E+00
    0.4300000000E+07    0.6244312904E+00    0.1543386222E-03    0.1684541143E+00    0.5568007834E-01    0.5161942510E+00
    0.4500000000E+07    0.6244294096E+00    0.1509784308E-03    0.1684017105E+00    0.5568448729E-01    0.5162521663E+00
    0.4700000000E+07    0.6244275241E+00    0.1478328226E-03    0.1683515670E+00    0.5568869724E-01    0.5163074714E+00
    0.4900000000E+07    0.6244256411E+00    0.1448798057E-03    0.1683034967E+00    0.5569272533E-01    0.5163603892E+00
    0.1000000000E+07    0.6244063299E+00    0.3127010075E-03    0.1701185192E+00    0.5553133327E-01    0.5142674666E+00
    0.3000000000E+07    0.6244424069E+00    0.1837262405E-03    0.1688682723E+00    0.5564484643E-01    0.5157319181E+00
    0.5000000000E+07    0.6244247022E+00    0.1434694916E-03    0.1682801868E+00    0.5569467597E-01    0.5163860151E+00
    0.7000000000E+07    0.6244068605E+00    0.1218995426E-03    0.1678914801E+00    0.5572698012E-01    0.5168102440E+00
    0.9000000000E+07    0.6243912811E+00    0.1079317475E-03    0.1676006595E+00    0.5575092326E-01    0.5171242315E+00
    0.1100000000E+08    0.6243777600E+00    0.9793661267E-04    0.1673682161E+00    0.5576995431E-01    0.5173733822E+00
    0.1300000000E+08    0.6243658986E+00    0.9032538363E-04    0.1671745922E+00    0.5578574934E-01    0.5175798287E+00
    0.1500000000E+08    0.6243553636E+00    0.8427749600E-04    0.1670086632E+00    0.5579925050E-01    0.5177560252E+00
    0.1700000000E+08    0.6243459008E+00    0.7932053576E-04    0.1668634926E+00    0.5581104033E-01    0.5179096742E+00
    0.1900000000E+08    0.6243373179E+00    0.7516068392E-04    0.1667344624E+00    0.5582150431E-01    0.5180458708E+00
    0.2100000000E+08    0.6243294684E+00    0.7160429491E-04    0.1666183424E+00    0.5583091074E-01    0.5181681604E+00
    0.2300000000E+08    0.6243222383E+00    0.6851784598E-04    0.1665127844E+00    0.5583945394E-01    0.5182791088E+00
    0.2500000000E+08    0.6243155380E+00    0.6580587220E-04    0.1664160278E+00    0.5584727914E-01    0.5183806326E+00
    0.2700000000E+08    0.6243092957E+00    0.6339805811E-04    0.1663267185E+00    0.5585449775E-01    0.5184742010E+00
