  Pressure (Pa) 22mC5-400 (mol/kg) 2mC6-400 (mol/kg) 3mC6-400 (mol/kg) 23mC5-400 (mol/kg) C7-400 (mol/kg)
    0.1000000000E+01    0.2120780325E-02    0.7942857175E-03    0.3162746074E-02    0.6516750941E-03    0.3421472166E-02
    0.3000000000E+01    0.6301329755E-02    0.2327977557E-02    0.9291077463E-02    0.1936293326E-02    0.1005211662E-01
    0.5000000000E+01    0.1040263970E-01    0.3792108650E-02    0.1517006944E-01    0.3196582932E-02    0.1641425360E-01
    0.7000000000E+01    0.1442714826E-01    0.5190720143E-02    0.2081482026E-01    0.4433292301E-02    0.2252411668E-01
    0.9000000000E+01    0.1837719270E-01    0.6527547066E-02    0.2623922959E-01    0.5647138886E-02    0.2839665176E-01
    0.1100000000E+02    0.2225501463E-01    0.7806047253E-02    0.3145611525E-01    0.6838810774E-02    0.3404564239E-01
    0.1300000000E+02    0.2606276481E-01    0.9029426996E-02    0.3647731657E-01    0.8008968166E-02    0.3948382076E-01
    0.1500000000E+02    0.2980250767E-01    0.1020066386E-01    0.4131378603E-01    0.9158244772E-02    0.4472296614E-01
    0.1700000000E+02    0.3347622562E-01    0.1132252705E-01    0.4597567093E-01    0.1028724912E-01    0.4977399257E-01
    0.1900000000E+02    0.3708582300E-01    0.1239759554E-01    0.5047238606E-01    0.1139656579E-01    0.5464702693E-01
    0.2100000000E+02    0.4063312997E-01    0.1342827441E-01    0.5481267874E-01    0.1248675657E-01    0.5935147873E-01
    0.2300000000E+02    0.4411990598E-01    0.1441680944E-01    0.5900468696E-01    0.1355836158E-01    0.6389610269E-01
    0.2500000000E+02    0.4754784321E-01    0.1536530025E-01    0.6305599162E-01    0.1461190025E-01    0.6828905473E-01
    0.2700000000E+02    0.5091856971E-01    0.1627571212E-01    0.6697366348E-01    0.1564787237E-01    0.7253794242E-01
    0.2900000000E+02    0.5423365242E-01    0.1714988675E-01    0.7076430534E-01    0.1666675893E-01    0.7664987037E-01
    0.3100000000E+02    0.5749460002E-01    0.1798955188E-01    0.7443409025E-01    0.1766902308E-01    0.8063148120E-01
    0.3300000000E+02    0.6070286556E-01    0.1879633005E-01    0.7798879592E-01    0.1865511086E-01    0.8448899254E-01
    0.3500000000E+02    0.6385984906E-01    0.1957174662E-01    0.8143383592E-01    0.1962545206E-01    0.8822823055E-01
    0.3700000000E+02    0.6696689987E-01    0.2031723694E-01    0.8477428796E-01    0.2058046089E-01    0.9185466029E-01
    0.3900000000E+02    0.7002531893E-01    0.2103415296E-01    0.8801491962E-01    0.2152053673E-01    0.9537341337E-01
    0.4100000000E+02    0.7303636097E-01    0.2172376927E-01    0.9116021162E-01    0.2244606475E-01    0.9878931299E-01
    0.4300000000E+02    0.7600123649E-01    0.2238728856E-01    0.9421437922E-01    0.2335741657E-01    0.1021068969E+00
    0.4500000000E+02    0.7892111375E-01    0.2302584666E-01    0.9718139153E-01    0.2425495081E-01    0.1053304380E+00
    0.4700000000E+02    0.8179712053E-01    0.2364051712E-01    0.1000649893E+00    0.2513901370E-01    0.1084639639E+00
    0.4900000000E+02    0.8463034595E-01    0.2423231547E-01    0.1028687011E+00    0.2600993959E-01    0.1115112739E+00
    0.1000000000E+02    0.2032499498E-01    0.7173881993E-02    0.2887285112E-01    0.6245704768E-02    0.3124827094E-01
    0.3000000000E+02    0.5587080102E-01    0.1757392922E-01    0.7261393493E-01    0.1716994054E-01    0.7865656727E-01
    0.5000000000E+02    0.8603124581E-01    0.2451994004E-01    0.1042416482E+00    0.2644057751E-01    0.1130037268E+00
    0.7000000000E+02    0.1120411665E+00    0.2927995077E-01    0.1282243834E+00    0.3443669080E-01    0.1390994850E+00
    0.9000000000E+02    0.1347751670E+00    0.3258475658E-01    0.1470671529E+00    0.4142678175E-01    0.1596420479E+00
    0.1100000000E+03    0.1548704595E+00    0.3488486212E-01    0.1622843442E+00    0.4760648108E-01    0.1762636933E+00
    0.1300000000E+03    0.1728027929E+00    0.3647218044E-01    0.1748460320E+00    0.5312185462E-01    0.1900107082E+00
    0.1500000000E+03    0.1889350461E+00    0.3754324344E-01    0.1854027945E+00    0.5808431863E-01    0.2015852462E+00
    0.1700000000E+03    0.2035492752E+00    0.3823442834E-01    0.1944075182E+00    0.6258047738E-01    0.2114764170E+00
    0.1900000000E+03    0.2168684172E+00    0.3864270710E-01    0.2021853711E+00    0.6667878523E-01    0.2200356258E+00
    0.2100000000E+03    0.2290713342E+00    0.3883842631E-01    0.2089759857E+00    0.7043416515E-01    0.2275220079E+00
    0.2300000000E+03    0.2403034637E+00    0.3887347296E-01    0.2149599358E+00    0.7389127805E-01    0.2341309599E+00
    0.2500000000E+03    0.2506844999E+00    0.3878665487E-01    0.2202759371E+00    0.7708688095E-01    0.2400126807E+00
    0.2700000000E+03    0.2603140293E+00    0.3860733947E-01    0.2250323566E+00    0.8005155716E-01    0.2452845828E+00
    0.2900000000E+03    0.2692757304E+00    0.3835797053E-01    0.2293151145E+00    0.8281100550E-01    0.2500398182E+00
    0.3100000000E+03    0.2776405469E+00    0.3805584298E-01    0.2331932351E+00    0.8538701466E-01    0.2543532679E+00
    0.3300000000E+03    0.2854691181E+00    0.3771437613E-01    0.2367228238E+00    0.8779820927E-01    0.2582858367E+00
    0.3500000000E+03    0.2928136621E+00    0.3734404074E-01    0.2399499687E+00    0.9006062812E-01    0.2618875865E+00
    0.3700000000E+03    0.2997194511E+00    0.3695304324E-01    0.2429128917E+00    0.9218817719E-01    0.2652000611E+00
    0.3900000000E+03    0.3062259803E+00    0.3654783676E-01    0.2456435669E+00    0.9419298844E-01    0.2682580349E+00
    0.4100000000E+03    0.3123679019E+00    0.3613350678E-01    0.2481689537E+00    0.9608570660E-01    0.2710908469E+00
    0.4300000000E+03    0.3181757784E+00    0.3571406514E-01    0.2505119481E+00    0.9787572051E-01    0.2737234298E+00
    0.4500000000E+03    0.3236766956E+00    0.3529267603E-01    0.2526921253E+00    0.9957135132E-01    0.2761771127E+00
    0.4700000000E+03    0.3288947649E+00    0.3487183110E-01    0.2547263237E+00    0.1011800068E+00    0.2784702544E+00
    0.4900000000E+03    0.3338515387E+00    0.3445348612E-01    0.2566291101E+00    0.1027083086E+00    0.2806187469E+00
    0.1000000000E+03    0.1451198033E+00    0.3383936067E-01    0.1550588800E+00    0.4460784527E-01    0.1683674307E+00
    0.3000000000E+03    0.2735287421E+00    0.3821258430E-01    0.2313009834E+00    0.8412070925E-01    0.2522476735E+00
    0.5000000000E+03    0.3362380612E+00    0.3424574264E-01    0.2575352481E+00    0.1034442077E+00    0.2816431423E+00
    0.7000000000E+03    0.3740430702E+00    0.3044470740E-01    0.2711095448E+00    0.1151090199E+00    0.2971060056E+00
    0.9000000000E+03    0.3993188751E+00    0.2741807137E-01    0.2795007475E+00    0.1229180962E+00    0.3068130041E+00
    0.1100000000E+04    0.4173566875E+00    0.2504075643E-01    0.2852401255E+00    0.1284982418E+00    0.3135500719E+00
    0.1300000000E+04    0.4308380841E+00    0.2314577004E-01    0.2894317019E+00    0.1326743081E+00    0.3185396019E+00
    0.1500000000E+04    0.4412720233E+00    0.2160511726E-01    0.2926370660E+00    0.1359106644E+00    0.3224069600E+00
    0.1700000000E+04    0.4495721210E+00    0.2032829007E-01    0.2951733281E+00    0.1384885966E+00    0.3255072203E+00
    0.1900000000E+04    0.4563229609E+00    0.1925174618E-01    0.2972336694E+00    0.1405881682E+00    0.3280578501E+00
    0.2100000000E+04    0.4619153037E+00    0.1833030744E-01    0.2989427778E+00    0.1423297957E+00    0.3301999453E+00
    0.2300000000E+04    0.4666198373E+00    0.1753125691E-01    0.3003848841E+00    0.1437969308E+00    0.3320293065E+00
    0.2500000000E+04    0.4706297412E+00    0.1683043753E-01    0.3016190265E+00    0.1450491566E+00    0.3336134158E+00
    0.2700000000E+04    0.4740864116E+00    0.1620967535E-01    0.3026878651E+00    0.1461301040E+00    0.3350012737E+00
    0.2900000000E+04    0.4770956198E+00    0.1565505695E-01    0.3036230257E+00    0.1470724255E+00    0.3362293806E+00
    0.3100000000E+04    0.4797380017E+00    0.1515575881E-01    0.3044484708E+00    0.1479010251E+00    0.3373255232E+00
    0.3300000000E+04    0.4820760622E+00    0.1470323737E-01    0.3051827025E+00    0.1486352162E+00    0.3383112561E+00
    0.3500000000E+04    0.4841589721E+00    0.1429065871E-01    0.3058402427E+00    0.1492901985E+00    0.3392035748E+00
    0.3700000000E+04    0.4860259240E+00    0.1391249014E-01    0.3064326561E+00    0.1498780930E+00    0.3400160744E+00
    0.3900000000E+04    0.4877085282E+00    0.1356420295E-01    0.3069692701E+00    0.1504086800E+00    0.3407597698E+00
    0.4100000000E+04    0.4892325527E+00    0.1324205298E-01    0.3074576953E+00    0.1508899358E+00    0.3414436870E+00
    0.4300000000E+04    0.4906192062E+00    0.1294291616E-01    0.3079042045E+00    0.1513284286E+00    0.3420752986E+00
    0.4500000000E+04    0.4918860993E+00    0.1266416394E-01    0.3083140171E+00    0.1517296144E+00    0.3426608485E+00
    0.4700000000E+04    0.4930479732E+00    0.1240356751E-01    0.3086915120E+00    0.1520980627E+00    0.3432055976E+00
    0.4900000000E+04    0.4941172583E+00    0.1215922360E-01    0.3090403915E+00    0.1524376282E+00    0.3437140126E+00
    0.1000000000E+04    0.4090370975E+00    0.2615942366E-01    0.2826145117E+00    0.1259236028E+00    0.3104561588E+00
    0.3000000000E+04    0.4784583973E+00    0.1539907263E-01    0.3040481984E+00    0.1474996223E+00    0.3367924769E+00
    0.5000000000E+04    0.4946205416E+00    0.1204262598E-01    0.3092051042E+00    0.1525976228E+00    0.3439558104E+00
    0.7000000000E+04    0.5017077821E+00    0.1026558824E-01    0.3115626854E+00    0.1548657127E+00    0.3475746915E+00
    0.9000000000E+04    0.5056684516E+00    0.9118325917E-02    0.3129141910E+00    0.1561515401E+00    0.3498441296E+00
    0.1100000000E+05    0.5081911473E+00    0.8297082833E-02    0.3137870358E+00    0.1569822876E+00    0.3514375850E+00
    0.1300000000E+05    0.5099356858E+00    0.7670714858E-02    0.3143940009E+00    0.1575649745E+00    0.3526371894E+00
    0.1500000000E+05    0.5112123548E+00    0.7171991982E-02    0.3148378463E+00    0.1579974328E+00    0.3535840298E+00
    0.1700000000E+05    0.5121860921E+00    0.6762358703E-02    0.3151744126E+00    0.1583319202E+00    0.3543573372E+00
    0.1900000000E+05    0.5129525962E+00    0.6417879045E-02    0.3154367000E+00    0.1585989043E+00    0.3550054261E+00
    0.2100000000E+05    0.5135711744E+00    0.6122787217E-02    0.3156454776E+00    0.1588173582E+00    0.3555596336E+00
    0.2300000000E+05    0.5140805223E+00    0.5866210954E-02    0.3158144738E+00    0.1589997209E+00    0.3560412850E+00
    0.2500000000E+05    0.5145069527E+00    0.5640372391E-02    0.3159531270E+00    0.1591544914E+00    0.3564654612E+00
    0.2700000000E+05    0.5148689769E+00    0.5439537787E-02    0.3160681394E+00    0.1592876777E+00    0.3568431689E+00
    0.2900000000E+05    0.5151799930E+00    0.5259373188E-02    0.3161643999E+00    0.1594036488E+00    0.3571826553E+00
    0.3100000000E+05    0.5154499349E+00    0.5096532531E-02    0.3162455574E+00    0.1595056600E+00    0.3574902391E+00
    0.3300000000E+05    0.5156863230E+00    0.4948385065E-02    0.3163143892E+00    0.1595961869E+00    0.3577708549E+00
    0.3500000000E+05    0.5158949535E+00    0.4812829556E-02    0.3163730458E+00    0.1596771470E+00    0.3580284211E+00
    0.3700000000E+05    0.5160803656E+00    0.4688164356E-02    0.3164232172E+00    0.1597500489E+00    0.3582660942E+00
    0.3900000000E+05    0.5162461638E+00    0.4572994493E-02    0.3164662492E+00    0.1598160962E+00    0.3584864506E+00
    0.4100000000E+05    0.5163952466E+00    0.4466163921E-02    0.3165032263E+00    0.1598762615E+00    0.3586916164E+00
    0.4300000000E+05    0.5165299705E+00    0.4366705226E-02    0.3165350316E+00    0.1599313390E+00    0.3588833648E+00
    0.4500000000E+05    0.5166522714E+00    0.4273801726E-02    0.3165623909E+00    0.1599819844E+00    0.3590631881E+00
    0.4700000000E+05    0.5167637538E+00    0.4186758494E-02    0.3165859063E+00    0.1600287436E+00    0.3592323528E+00
    0.4900000000E+05    0.5168657589E+00    0.4104979912E-02    0.3166060806E+00    0.1600720752E+00    0.3593919417E+00
    0.1000000000E+05    0.5070560712E+00    0.8677325347E-02    0.3133933305E+00    0.1566070425E+00    0.3507028773E+00
    0.3000000000E+05    0.5153195811E+00    0.5175966045E-02    0.3162066759E+00    0.1594562294E+00    0.3573400992E+00
    0.5000000000E+05    0.5169135675E+00    0.4065901489E-02    0.3166150499E+00    0.1600925792E+00    0.3594684417E+00
    0.7000000000E+05    0.5175712323E+00    0.3466374698E-02    0.3166933870E+00    0.1603916518E+00    0.3606664495E+00
    0.9000000000E+05    0.5179225880E+00    0.3076231473E-02    0.3166758167E+00    0.1605722270E+00    0.3614796348E+00
    0.1100000000E+06    0.5181372989E+00    0.2796089847E-02    0.3166228455E+00    0.1606962662E+00    0.3620870726E+00
    0.1300000000E+06    0.5182798097E+00    0.2582212304E-02    0.3165558199E+00    0.1607884413E+00    0.3625680438E+00
    0.1500000000E+06    0.5183798223E+00    0.2411918696E-02    0.3164836206E+00    0.1608606506E+00    0.3629640900E+00
    0.1700000000E+06    0.5184528661E+00    0.2272110745E-02    0.3164103079E+00    0.1609193944E+00    0.3632995024E+00
    0.1900000000E+06    0.5185078193E+00    0.2154621259E-02    0.3163378310E+00    0.1609685521E+00    0.3635896302E+00
    0.2100000000E+06    0.5185501088E+00    0.2054056142E-02    0.3162671325E+00    0.1610105967E+00    0.3638447503E+00
    0.2300000000E+06    0.5185832287E+00    0.1966689359E-02    0.3161986469E+00    0.1610471873E+00    0.3640720593E+00
    0.2500000000E+06    0.5186095246E+00    0.1889852754E-02    0.3161325426E+00    0.1610794840E+00    0.3642767810E+00
    0.2700000000E+06    0.5186306256E+00    0.1821578396E-02    0.3160688453E+00    0.1611083249E+00    0.3644628198E+00
    0.2900000000E+06    0.5186476956E+00    0.1760378504E-02    0.3160075052E+00    0.1611343333E+00    0.3646331662E+00
    0.3100000000E+06    0.5186615869E+00    0.1705104458E-02    0.3159484328E+00    0.1611579832E+00    0.3647901586E+00
    0.3300000000E+06    0.5186729364E+00    0.1654853352E-02    0.3158915202E+00    0.1611796431E+00    0.3649356581E+00
    0.3500000000E+06    0.5186822286E+00    0.1608904224E-02    0.3158366524E+00    0.1611996038E+00    0.3650711689E+00
    0.3700000000E+06    0.5186898380E+00    0.1566673427E-02    0.3157837140E+00    0.1612180989E+00    0.3651979230E+00
    0.3900000000E+06    0.5186960582E+00    0.1527682698E-02    0.3157325928E+00    0.1612353182E+00    0.3653169416E+00
    0.4100000000E+06    0.5187011220E+00    0.1491535864E-02    0.3156831822E+00    0.1612514183E+00    0.3654290803E+00
    0.4300000000E+06    0.5187052162E+00    0.1457901552E-02    0.3156353816E+00    0.1612665290E+00    0.3655350624E+00
    0.4500000000E+06    0.5187084922E+00    0.1426500154E-02    0.3155890968E+00    0.1612807598E+00    0.3656355047E+00
    0.4700000000E+06    0.5187110736E+00    0.1397093859E-02    0.3155442403E+00    0.1612942033E+00    0.3657309373E+00
    0.4900000000E+06    0.5187130623E+00    0.1369478945E-02    0.3155007308E+00    0.1613069384E+00    0.3658218191E+00
    0.1000000000E+06    0.5180417710E+00    0.2925856987E-02    0.3166519756E+00    0.1606393265E+00    0.3618028406E+00
    0.3000000000E+06    0.5186549946E+00    0.1732062080E-02    0.3159776920E+00    0.1611464279E+00    0.3647132058E+00
    0.5000000000E+06    0.5187138615E+00    0.1356287398E-02    0.3154794574E+00    0.1613130620E+00    0.3658656802E+00
    0.7000000000E+06    0.5187132495E+00    0.1154275468E-02    0.3151091501E+00    0.1614108057E+00    0.3665785773E+00
    0.9000000000E+06    0.5186987283E+00    0.1023197499E-02    0.3148150648E+00    0.1614795283E+00    0.3670917407E+00
    0.1100000000E+07    0.5186805018E+00    0.9292667122E-03    0.3145710343E+00    0.1615323861E+00    0.3674912911E+00
    0.1300000000E+07    0.5186616739E+00    0.8576611583E-03    0.3143623482E+00    0.1615752799E+00    0.3678177526E+00
    0.1500000000E+07    0.5186433169E+00    0.8007134881E-03    0.3141799553E+00    0.1616113479E+00    0.3680933558E+00
    0.1700000000E+07    0.5186258012E+00    0.7540040710E-03    0.3140178958E+00    0.1616424532E+00    0.3683315831E+00
    0.1900000000E+07    0.5186092275E+00    0.7147813794E-03    0.3138720372E+00    0.1616697903E+00    0.3685412142E+00
    0.2100000000E+07    0.5185935882E+00    0.6812304719E-03    0.3137393961E+00    0.1616941700E+00    0.3687282788E+00
    0.2300000000E+07    0.5185788327E+00    0.6520990159E-03    0.3136177473E+00    0.1617161677E+00    0.3688970931E+00
    0.2500000000E+07    0.5185648956E+00    0.6264910722E-03    0.3135053866E+00    0.1617362060E+00    0.3690508506E+00
    0.2700000000E+07    0.5185517092E+00    0.6037463665E-03    0.3134009795E+00    0.1617546046E+00    0.3691919793E+00
    0.2900000000E+07    0.5185392087E+00    0.5833660795E-03    0.3133034614E+00    0.1617716110E+00    0.3693223671E+00
    0.3100000000E+07    0.5185273341E+00    0.5649653500E-03    0.3132119688E+00    0.1617874206E+00    0.3694435109E+00
    0.3300000000E+07    0.5185160315E+00    0.5482418188E-03    0.3131257921E+00    0.1618021904E+00    0.3695566168E+00
    0.3500000000E+07    0.5185052523E+00    0.5329541788E-03    0.3130443405E+00    0.1618160487E+00    0.3696626708E+00
    0.3700000000E+07    0.5184949530E+00    0.5189071734E-03    0.3129671172E+00    0.1618291012E+00    0.3697624890E+00
    0.3900000000E+07    0.5184850948E+00    0.5059408701E-03    0.3128936999E+00    0.1618414364E+00    0.3698567544E+00
    0.4100000000E+07    0.5184756432E+00    0.4939228393E-03    0.3128237272E+00    0.1618531289E+00    0.3699460444E+00
    0.4300000000E+07    0.5184665671E+00    0.4827423519E-03    0.3127568869E+00    0.1618642424E+00    0.3700308511E+00
    0.4500000000E+07    0.5184578389E+00    0.4723060071E-03    0.3126929076E+00    0.1618748313E+00    0.3701115976E+00
    0.4700000000E+07    0.5184494335E+00    0.4625343913E-03    0.3126315520E+00    0.1618849431E+00    0.3701886502E+00
    0.4900000000E+07    0.5184413287E+00    0.4533594929E-03    0.3125726112E+00    0.1618946187E+00    0.3702623280E+00
    0.1000000000E+07    0.5186898089E+00    0.9727575399E-03    0.3146878893E+00    0.1615074784E+00    0.3673025770E+00
    0.3000000000E+07    0.5185331967E+00    0.5739388115E-03    0.3132570094E+00    0.1617796548E+00    0.3693840133E+00
    0.5000000000E+07    0.5184373825E+00    0.4489771694E-03    0.3125439878E+00    0.1618993044E+00    0.3702979900E+00
    0.7000000000E+07    0.5183702239E+00    0.3819067859E-03    0.3120628630E+00    0.1619769247E+00    0.3708868575E+00
    0.9000000000E+07    0.5183186050E+00    0.3384261905E-03    0.3116986321E+00    0.1620344795E+00    0.3713210410E+00
    0.1100000000E+08    0.5182766956E+00    0.3072862773E-03    0.3114051987E+00    0.1620802401E+00    0.3716646921E+00
    0.1300000000E+08    0.5182414227E+00    0.2835577592E-03    0.3111593431E+00    0.1621182282E+00    0.3719489175E+00
    0.1500000000E+08    0.5182109716E+00    0.2646927252E-03    0.3109476975E+00    0.1621507052E+00    0.3721911555E+00
    0.1700000000E+08    0.5181841820E+00    0.2492233596E-03    0.3107618513E+00    0.1621790698E+00    0.3724021597E+00
    0.1900000000E+08    0.5181602677E+00    0.2362362629E-03    0.3105961649E+00    0.1622042476E+00    0.3725890277E+00
    0.2100000000E+08    0.5181386707E+00    0.2251291700E-03    0.3104466707E+00    0.1622268833E+00    0.3727566884E+00
    0.2300000000E+08    0.5181189815E+00    0.2154866384E-03    0.3103104704E+00    0.1622474436E+00    0.3729087035E+00
    0.2500000000E+08    0.5181008900E+00    0.2070115325E-03    0.3101853819E+00    0.1622662774E+00    0.3730477298E+00
    0.2700000000E+08    0.5180841564E+00    0.1994849236E-03    0.3100697207E+00    0.1622836526E+00    0.3731758017E+00
