  Pressure (Pa) 22mC5-400 (mol/kg) 2mC6-400 (mol/kg) 3mC6-400 (mol/kg) 23mC5-400 (mol/kg) C7-400 (mol/kg)
    0.1000000000E+01    0.2114557183E-02    0.3955626721E-02    0.1050853661E-02    0.5569403048E-03    0.5115740356E-02
    0.3000000000E+01    0.6247154995E-02    0.1150483977E-01    0.3068052619E-02    0.1645417445E-02    0.1493762523E-01
    0.5000000000E+01    0.1025700738E-01    0.1860392495E-01    0.4980277094E-02    0.2701587376E-02    0.2425066756E-01
    0.7000000000E+01    0.1415077998E-01    0.2528842857E-01    0.6795900630E-02    0.3727204282E-02    0.3309539953E-01
    0.9000000000E+01    0.1793464960E-01    0.3159028984E-01    0.8522419634E-02    0.4723893715E-02    0.4150811064E-01
    0.1100000000E+02    0.2161434841E-01    0.3753828841E-01    0.1016656569E-01    0.5693164226E-02    0.4952139068E-01
    0.1300000000E+02    0.2519520343E-01    0.4315842650E-01    0.1173440101E-01    0.6636417746E-02    0.5716459133E-01
    0.1500000000E+02    0.2868217186E-01    0.4847425665E-01    0.1323139995E-01    0.7554958892E-02    0.6446422018E-01
    0.1700000000E+02    0.3207987281E-01    0.5350716383E-01    0.1466251883E-01    0.8450003310E-02    0.7144427850E-01
    0.1900000000E+02    0.3539261577E-01    0.5827660927E-01    0.1603225610E-01    0.9322685172E-02    0.7812655197E-01
    0.2100000000E+02    0.3862442632E-01    0.6280034198E-01    0.1734470419E-01    0.1017406393E-01    0.8453086168E-01
    0.2300000000E+02    0.4177906922E-01    0.6709458287E-01    0.1860359453E-01    0.1100513041E-01    0.9067528184E-01
    0.2500000000E+02    0.4486006938E-01    0.7117418545E-01    0.1981233674E-01    0.1181681231E-01    0.9657632895E-01
    0.2700000000E+02    0.4787073081E-01    0.7505277666E-01    0.2097405266E-01    0.1260997920E-01    0.1022491270E+00
    0.2900000000E+02    0.5081415372E-01    0.7874288060E-01    0.2209160632E-01    0.1338544702E-01    0.1077075521E+00
    0.3100000000E+02    0.5369325017E-01    0.8225602749E-01    0.2316763013E-01    0.1414398219E-01    0.1129643589E+00
    0.3300000000E+02    0.5651075824E-01    0.8560284999E-01    0.2420454795E-01    0.1488630535E-01    0.1180312928E+00
    0.3500000000E+02    0.5926925491E-01    0.8879316848E-01    0.2520459546E-01    0.1561309474E-01    0.1229191881E+00
    0.3700000000E+02    0.6197116790E-01    0.9183606675E-01    0.2616983818E-01    0.1632498932E-01    0.1276380554E+00
    0.3900000000E+02    0.6461878635E-01    0.9473995947E-01    0.2710218748E-01    0.1702259159E-01    0.1321971588E+00
    0.4100000000E+02    0.6721427072E-01    0.9751265227E-01    0.2800341475E-01    0.1770647016E-01    0.1366050845E+00
    0.4300000000E+02    0.6975966177E-01    0.1001613955E+00    0.2887516407E-01    0.1837716218E-01    0.1408698026E+00
    0.4500000000E+02    0.7225688886E-01    0.1026929323E+00    0.2971896356E-01    0.1903517542E-01    0.1449987214E+00
    0.4700000000E+02    0.7470777745E-01    0.1051135422E+00    0.3053623544E-01    0.1968099038E-01    0.1489987363E+00
    0.4900000000E+02    0.7711405619E-01    0.1074290794E+00    0.3132830516E-01    0.2031506202E-01    0.1528762741E+00
    0.1000000000E+02    0.1978717836E-01    0.3460683581E-01    0.9354395720E-02    0.5211866330E-02    0.4556277409E-01
    0.3000000000E+02    0.5226156770E-01    0.8052088915E-01    0.2263465333E-01    0.1376678511E-01    0.1103604012E+00
    0.5000000000E+02    0.7830098215E-01    0.1085491678E+00    0.3171527897E-01    0.2062782973E-01    0.1547710041E+00
    0.7000000000E+02    0.1000532993E+00    0.1265849698E+00    0.3839201029E-01    0.2636031280E-01    0.1874983285E+00
    0.9000000000E+02    0.1187707746E+00    0.1385536117E+00    0.4355449252E-01    0.3129383982E-01    0.2128578454E+00
    0.1100000000E+03    0.1352361579E+00    0.1466151963E+00    0.4769579448E-01    0.3563444681E-01    0.2332431657E+00
    0.1300000000E+03    0.1499661472E+00    0.1520487345E+00    0.5111232122E-01    0.3951814432E-01    0.2500942694E+00
    0.1500000000E+03    0.1633171535E+00    0.1556548367E+00    0.5399359956E-01    0.4303875341E-01    0.2643325793E+00
    0.1700000000E+03    0.1755441174E+00    0.1579570401E+00    0.5646684474E-01    0.4626338591E-01    0.2765770217E+00
    0.1900000000E+03    0.1868350600E+00    0.1593099719E+00    0.5862086119E-01    0.4924153847E-01    0.2872599514E+00
    0.2100000000E+03    0.1973323241E+00    0.1599608983E+00    0.6051967722E-01    0.5201068361E-01    0.2966933146E+00
    0.2300000000E+03    0.2071461442E+00    0.1600864359E+00    0.6221072682E-01    0.5459984154E-01    0.3051083680E+00
    0.2500000000E+03    0.2163636039E+00    0.1598153279E+00    0.6372997082E-01    0.5703193812E-01    0.3126805518E+00
    0.2700000000E+03    0.2250547200E+00    0.1592430538E+00    0.6510521920E-01    0.5932540637E-01    0.3195456311E+00
    0.2900000000E+03    0.2332766781E+00    0.1584414754E+00    0.6635835356E-01    0.6149530142E-01    0.3258105003E+00
    0.3100000000E+03    0.2410768463E+00    0.1574653648E+00    0.6750685413E-01    0.6355409394E-01    0.3315606081E+00
    0.3300000000E+03    0.2484949627E+00    0.1563569219E+00    0.6856487377E-01    0.6551224587E-01    0.3368651825E+00
    0.3500000000E+03    0.2555647493E+00    0.1551489611E+00    0.6954400913E-01    0.6737863543E-01    0.3417809841E+00
    0.3700000000E+03    0.2623151234E+00    0.1538671986E+00    0.7045386465E-01    0.6916087593E-01    0.3463550522E+00
    0.3900000000E+03    0.2687711186E+00    0.1525319194E+00    0.7130247198E-01    0.7086555823E-01    0.3506267475E+00
    0.4100000000E+03    0.2749545941E+00    0.1511592102E+00    0.7209660646E-01    0.7249843763E-01    0.3546292944E+00
    0.4300000000E+03    0.2808847893E+00    0.1497618818E+00    0.7284202925E-01    0.7406457955E-01    0.3583909613E+00
    0.4500000000E+03    0.2865787589E+00    0.1483501678E+00    0.7354367487E-01    0.7556847449E-01    0.3619359749E+00
    0.4700000000E+03    0.2920517218E+00    0.1469322591E+00    0.7420579798E-01    0.7701412949E-01    0.3652852366E+00
    0.4900000000E+03    0.2973173394E+00    0.1455147167E+00    0.7483208962E-01    0.7840514167E-01    0.3684568896E+00
    0.1000000000E+03    0.1272479976E+00    0.1429783030E+00    0.4573102154E-01    0.3352852412E-01    0.2235665447E+00
    0.3000000000E+03    0.2372268447E+00    0.1579723470E+00    0.6694473077E-01    0.6253789014E-01    0.3287452423E+00
    0.5000000000E+03    0.2998762939E+00    0.1448077683E+00    0.7513282119E-01    0.7908118367E-01    0.3699811418E+00
    0.7000000000E+03    0.3426334423E+00    0.1315041507E+00    0.7986831822E-01    0.9038202256E-01    0.3941058941E+00
    0.9000000000E+03    0.3737570420E+00    0.1203878006E+00    0.8307940564E-01    0.9861526945E-01    0.4106190030E+00
    0.1100000000E+04    0.3972772770E+00    0.1113243715E+00    0.8545249887E-01    0.1048426005E+00    0.4229214613E+00
    0.1300000000E+04    0.4155446267E+00    0.1038961861E+00    0.8730385187E-01    0.1096834418E+00    0.4325879237E+00
    0.1500000000E+04    0.4300489113E+00    0.9773114811E-01    0.8880304343E-01    0.1135305570E+00    0.4404664202E+00
    0.1700000000E+04    0.4417816995E+00    0.9254232281E-01    0.9005064954E-01    0.1166454498E+00    0.4470618907E+00
    0.1900000000E+04    0.4514260313E+00    0.8811568702E-01    0.9111078347E-01    0.1192083199E+00    0.4526973723E+00
    0.2100000000E+04    0.4594653718E+00    0.8429206397E-01    0.9202659479E-01    0.1213467582E+00    0.4575909981E+00
    0.2300000000E+04    0.4662498364E+00    0.8095214534E-01    0.9282838120E-01    0.1231531945E+00    0.4618964057E+00
    0.2500000000E+04    0.4720380671E+00    0.7800545027E-01    0.9353815283E-01    0.1246959322E+00    0.4657255316E+00
    0.2700000000E+04    0.4770245333E+00    0.7538246153E-01    0.9417235230E-01    0.1260263444E+00    0.4691622278E+00
    0.2900000000E+04    0.4813577852E+00    0.7302906389E-01    0.9474355356E-01    0.1271836864E+00    0.4722707846E+00
    0.3100000000E+04    0.4851529289E+00    0.7090259475E-01    0.9526156473E-01    0.1281983857E+00    0.4751014758E+00
    0.3300000000E+04    0.4885003196E+00    0.6896901451E-01    0.9573416819E-01    0.1290943347E+00    0.4776942869E+00
    0.3500000000E+04    0.4914717267E+00    0.6720085685E-01    0.9616763117E-01    0.1298905174E+00    0.4800814924E+00
    0.3700000000E+04    0.4941247761E+00    0.6557572634E-01    0.9656706689E-01    0.1306021818E+00    0.4822894826E+00
    0.3900000000E+04    0.4965061980E+00    0.6407518394E-01    0.9693669533E-01    0.1312416968E+00    0.4843400836E+00
    0.4100000000E+04    0.4986542349E+00    0.6268391073E-01    0.9728003521E-01    0.1318191881E+00    0.4862515324E+00
    0.4300000000E+04    0.5006004471E+00    0.6138907318E-01    0.9760004762E-01    0.1323430150E+00    0.4880392068E+00
    0.4500000000E+04    0.5023710840E+00    0.6017983629E-01    0.9789924517E-01    0.1328201322E+00    0.4897161807E+00
    0.4700000000E+04    0.5039881359E+00    0.5904698638E-01    0.9817977605E-01    0.1332563683E+00    0.4912936531E+00
    0.4900000000E+04    0.5054701493E+00    0.5798263591E-01    0.9844348949E-01    0.1336566405E+00    0.4927812822E+00
    0.1000000000E+04    0.3862943406E+00    0.1156253454E+00    0.8434603546E-01    0.1019340257E+00    0.4171739054E+00
    0.3000000000E+04    0.4833164755E+00    0.7193976567E-01    0.9500868090E-01    0.1277072417E+00    0.4737181579E+00
    0.5000000000E+04    0.5061655302E+00    0.5747398736E-01    0.9856954874E-01    0.1338446199E+00    0.4934940686E+00
    0.7000000000E+04    0.5157844290E+00    0.4965439361E-01    0.1005038560E+00    0.1364594237E+00    0.5045870408E+00
    0.9000000000E+04    0.5209866433E+00    0.4452642621E-01    0.1017573797E+00    0.1378912976E+00    0.5119689386E+00
    0.1100000000E+05    0.5242192868E+00    0.4080857580E-01    0.1026504475E+00    0.1387924284E+00    0.5173517895E+00
    0.1300000000E+05    0.5264128643E+00    0.3794273105E-01    0.1033258586E+00    0.1394118073E+00    0.5215092317E+00
    0.1500000000E+05    0.5279944711E+00    0.3564040847E-01    0.1038581718E+00    0.1398641887E+00    0.5248500216E+00
    0.1700000000E+05    0.5291864975E+00    0.3373484040E-01    0.1042906002E+00    0.1402095753E+00    0.5276136130E+00
    0.1900000000E+05    0.5301157393E+00    0.3212170636E-01    0.1046501294E+00    0.1404823223E+00    0.5299510179E+00
    0.2100000000E+05    0.5308596118E+00    0.3073180448E-01    0.1049545858E+00    0.1407034949E+00    0.5319629096E+00
    0.2300000000E+05    0.5314679810E+00    0.2951709637E-01    0.1052162741E+00    0.1408867202E+00    0.5337193800E+00
    0.2500000000E+05    0.5319743806E+00    0.2844300528E-01    0.1054439935E+00    0.1410412018E+00    0.5352709618E+00
    0.2700000000E+05    0.5324021726E+00    0.2748389710E-01    0.1056442218E+00    0.1411733797E+00    0.5366551472E+00
    0.2900000000E+05    0.5327681214E+00    0.2662029396E-01    0.1058218455E+00    0.1412878950E+00    0.5379004298E+00
    0.3100000000E+05    0.5330845624E+00    0.2583708461E-01    0.1059806279E+00    0.1413881780E+00    0.5390289104E+00
    0.3300000000E+05    0.5333607704E+00    0.2512233445E-01    0.1061235192E+00    0.1414768189E+00    0.5400580358E+00
    0.3500000000E+05    0.5336038502E+00    0.2446647091E-01    0.1062528687E+00    0.1415558107E+00    0.5410017904E+00
    0.3700000000E+05    0.5338193352E+00    0.2386171130E-01    0.1063705723E+00    0.1416267125E+00    0.5418715350E+00
    0.3900000000E+05    0.5340115972E+00    0.2330165212E-01    0.1064781792E+00    0.1416907615E+00    0.5426766094E+00
    0.4100000000E+05    0.5341841357E+00    0.2278096829E-01    0.1065769684E+00    0.1417489522E+00    0.5434247734E+00
    0.4300000000E+05    0.5343397843E+00    0.2229518922E-01    0.1066680066E+00    0.1418020937E+00    0.5441225355E+00
    0.4500000000E+05    0.5344808614E+00    0.2184052935E-01    0.1067521907E+00    0.1418508506E+00    0.5447754020E+00
    0.4700000000E+05    0.5346092822E+00    0.2141375823E-01    0.1068302812E+00    0.1418957747E+00    0.5453880674E+00
    0.4900000000E+05    0.5347266420E+00    0.2101209952E-01    0.1069029275E+00    0.1419373272E+00    0.5459645627E+00
    0.1000000000E+05    0.5227732422E+00    0.4253528198E-01    0.1022377447E+00    0.1383879122E+00    0.5148496355E+00
    0.3000000000E+05    0.5329318912E+00    0.2621944944E-01    0.1059033913E+00    0.1413396373E+00    0.5384780869E+00
    0.5000000000E+05    0.5347816012E+00    0.2081992403E-01    0.1069373866E+00    0.1419569633E+00    0.5462403539E+00
    0.7000000000E+05    0.5355350784E+00    0.1785196294E-01    0.1074424994E+00    0.1422414998E+00    0.5504986371E+00
    0.9000000000E+05    0.5359365024E+00    0.1590048570E-01    0.1077423752E+00    0.1424116654E+00    0.5533012461E+00
    0.1100000000E+06    0.5361821810E+00    0.1448937910E-01    0.1079396665E+00    0.1425278962E+00    0.5553324280E+00
    0.1300000000E+06    0.5363458995E+00    0.1340649764E-01    0.1080779504E+00    0.1426139503E+00    0.5568956976E+00
    0.1500000000E+06    0.5364614577E+00    0.1254085103E-01    0.1081790820E+00    0.1426811903E+00    0.5581493991E+00
    0.1700000000E+06    0.5365464627E+00    0.1182790237E-01    0.1082552923E+00    0.1427357879E+00    0.5591854433E+00
    0.1900000000E+06    0.5366109583E+00    0.1122719155E-01    0.1083139831E+00    0.1427814102E+00    0.5600613928E+00
    0.2100000000E+06    0.5366610766E+00    0.1071187655E-01    0.1083599041E+00    0.1428203870E+00    0.5608154158E+00
    0.2300000000E+06    0.5367007640E+00    0.1026334599E-01    0.1083962462E+00    0.1428542773E+00    0.5614739733E+00
    0.2500000000E+06    0.5367326697E+00    0.9868229456E-02    0.1084252335E+00    0.1428841685E+00    0.5620560770E+00
    0.2700000000E+06    0.5367586345E+00    0.9516637776E-02    0.1084484634E+00    0.1429108452E+00    0.5625757932E+00
    0.2900000000E+06    0.5367799749E+00    0.9201076130E-02    0.1084671127E+00    0.1429348896E+00    0.5630437879E+00
    0.3100000000E+06    0.5367976557E+00    0.8915745569E-02    0.1084820670E+00    0.1429567443E+00    0.5634683185E+00
    0.3300000000E+06    0.5368123989E+00    0.8656078708E-02    0.1084940053E+00    0.1429767525E+00    0.5638558936E+00
    0.3500000000E+06    0.5368247547E+00    0.8418422073E-02    0.1085034563E+00    0.1429951852E+00    0.5642117233E+00
    0.3700000000E+06    0.5368351492E+00    0.8199813275E-02    0.1085108376E+00    0.1430122597E+00    0.5645400358E+00
    0.3900000000E+06    0.5368439167E+00    0.7997821256E-02    0.1085164831E+00    0.1430281525E+00    0.5648443042E+00
    0.4100000000E+06    0.5368513232E+00    0.7810429519E-02    0.1085206629E+00    0.1430430090E+00    0.5651274119E+00
    0.4300000000E+06    0.5368575824E+00    0.7635949296E-02    0.1085235972E+00    0.1430569499E+00    0.5653917761E+00
    0.4500000000E+06    0.5368628680E+00    0.7472953993E-02    0.1085254678E+00    0.1430700767E+00    0.5656394406E+00
    0.4700000000E+06    0.5368673222E+00    0.7320228982E-02    0.1085264252E+00    0.1430824752E+00    0.5658721475E+00
    0.4900000000E+06    0.5368710624E+00    0.7176732697E-02    0.1085265956E+00    0.1430942188E+00    0.5660913921E+00
    0.1000000000E+06    0.5360727840E+00    0.1514405741E-01    0.1078503778E+00    0.1424746043E+00    0.5543893917E+00
    0.3000000000E+06    0.5367892229E+00    0.9054942006E-02    0.1084750052E+00    0.1429460673E+00    0.5632610445E+00
    0.5000000000E+06    0.5368726961E+00    0.7108159509E-02    0.1085264195E+00    0.1430998651E+00    0.5661963767E+00
    0.7000000000E+06    0.5368847633E+00    0.6056027450E-02    0.1085001856E+00    0.1431899469E+00    0.5678271558E+00
    0.9000000000E+06    0.5368785017E+00    0.5371379316E-02    0.1084545920E+00    0.1432532429E+00    0.5689133469E+00
    0.1100000000E+07    0.5368663094E+00    0.4879862276E-02    0.1084041648E+00    0.1433019096E+00    0.5697091684E+00
    0.1300000000E+07    0.5368521983E+00    0.4504691045E-02    0.1083536108E+00    0.1433413933E+00    0.5703277661E+00
    0.1500000000E+07    0.5368376956E+00    0.4206038869E-02    0.1083046122E+00    0.1433745886E+00    0.5708284027E+00
    0.1700000000E+07    0.5368234291E+00    0.3960903501E-02    0.1082577484E+00    0.1434032128E+00    0.5712456195E+00
    0.1900000000E+07    0.5368096587E+00    0.3754942583E-02    0.1082131571E+00    0.1434283670E+00    0.5716011381E+00
    0.2100000000E+07    0.5367964812E+00    0.3578684148E-02    0.1081707920E+00    0.1434507981E+00    0.5719094204E+00
    0.2300000000E+07    0.5367839182E+00    0.3425585840E-02    0.1081305330E+00    0.1434710362E+00    0.5721805315E+00
    0.2500000000E+07    0.5367719560E+00    0.3290963209E-02    0.1080922341E+00    0.1434894707E+00    0.5724217309E+00
    0.2700000000E+07    0.5367605653E+00    0.3171361508E-02    0.1080557457E+00    0.1435063958E+00    0.5726384096E+00
    0.2900000000E+07    0.5367497104E+00    0.3064169155E-02    0.1080209247E+00    0.1435220394E+00    0.5728346700E+00
    0.3100000000E+07    0.5367393541E+00    0.2967370111E-02    0.1079876382E+00    0.1435365816E+00    0.5730136991E+00
    0.3300000000E+07    0.5367294602E+00    0.2879379761E-02    0.1079557649E+00    0.1435501670E+00    0.5731780175E+00
    0.3500000000E+07    0.5367199947E+00    0.2798932924E-02    0.1079251950E+00    0.1435629135E+00    0.5733296495E+00
    0.3700000000E+07    0.5367109259E+00    0.2725005477E-02    0.1078958296E+00    0.1435749185E+00    0.5734702430E+00
    0.3900000000E+07    0.5367022248E+00    0.2656758292E-02    0.1078675793E+00    0.1435862635E+00    0.5736011559E+00
    0.4100000000E+07    0.5366938649E+00    0.2593496329E-02    0.1078403640E+00    0.1435970171E+00    0.5737235188E+00
    0.4300000000E+07    0.5366858222E+00    0.2534638282E-02    0.1078141111E+00    0.1436072379E+00    0.5738382822E+00
    0.4500000000E+07    0.5366780746E+00    0.2479693692E-02    0.1077887553E+00    0.1436169761E+00    0.5739462524E+00
    0.4700000000E+07    0.5366706024E+00    0.2428245453E-02    0.1077642373E+00    0.1436262752E+00    0.5740481180E+00
    0.4900000000E+07    0.5366633874E+00    0.2379936270E-02    0.1077405034E+00    0.1436351732E+00    0.5741444722E+00
    0.1000000000E+07    0.5368728052E+00    0.5107529526E-02    0.1084295785E+00    0.1432789784E+00    0.5693386635E+00
    0.3000000000E+07    0.5367444722E+00    0.3014578107E-02    0.1080040975E+00    0.1435294385E+00    0.5729261676E+00
    0.5000000000E+07    0.5366598712E+00    0.2356860867E-02    0.1077289151E+00    0.1436394822E+00    0.5741907456E+00
    0.7000000000E+07    0.5365997460E+00    0.2003642505E-02    0.1075285269E+00    0.1437108576E+00    0.5749218715E+00
    0.9000000000E+07    0.5365532494E+00    0.1774627632E-02    0.1073706515E+00    0.1437637762E+00    0.5754237112E+00
    0.1100000000E+08    0.5365153663E+00    0.1610616270E-02    0.1072401950E+00    0.1438058476E+00    0.5758004651E+00
    0.1300000000E+08    0.5364834088E+00    0.1485651710E-02    0.1071289193E+00    0.1438407713E+00    0.5760994004E+00
    0.1500000000E+08    0.5364557749E+00    0.1386312575E-02    0.1070318321E+00    0.1438706272E+00    0.5763456765E+00
    0.1700000000E+08    0.5364314343E+00    0.1304865448E-02    0.1069456764E+00    0.1438967017E+00    0.5765541656E+00
    0.1900000000E+08    0.5364096852E+00    0.1236497371E-02    0.1068682076E+00    0.1439198462E+00    0.5767343388E+00
    0.2100000000E+08    0.5363900288E+00    0.1178034629E-02    0.1067978119E+00    0.1439406533E+00    0.5768925739E+00
    0.2300000000E+08    0.5363720974E+00    0.1127287926E-02    0.1067332898E+00    0.1439595522E+00    0.5770333563E+00
    0.2500000000E+08    0.5363556124E+00    0.1082691406E-02    0.1066737247E+00    0.1439768640E+00    0.5771599523E+00
    0.2700000000E+08    0.5363403577E+00    0.1043091363E-02    0.1066184002E+00    0.1439928347E+00    0.5772748095E+00
