  Pressure (Pa) 22mC5-400 (mol/kg) 2mC6-400 (mol/kg) 3mC6-400 (mol/kg) 23mC5-400 (mol/kg) C7-400 (mol/kg)
    0.1000000000E+01    0.2117520300E-02    0.2383825122E-02    0.2639218302E-02    0.6506738155E-03    0.1713055591E-02
    0.3000000000E+01    0.6272840871E-02    0.6992301056E-02    0.7773798105E-02    0.1927543227E-02    0.5046202448E-02
    0.5000000000E+01    0.1032577282E-01    0.1139868806E-01    0.1272550352E-01    0.3172973780E-02    0.8261162721E-02
    0.7000000000E+01    0.1428075807E-01    0.1561438352E-01    0.1750436285E-01    0.4388329166E-02    0.1136440834E-01
    0.9000000000E+01    0.1814197828E-01    0.1964996984E-01    0.2211967694E-01    0.5574893183E-02    0.1436194210E-01
    0.1100000000E+02    0.2191337366E-01    0.2351528531E-01    0.2658008416E-01    0.6733875501E-02    0.1725933954E-01
    0.1300000000E+02    0.2559866007E-01    0.2721948776E-01    0.3089361855E-01    0.7866416935E-02    0.2006178645E-01
    0.1500000000E+02    0.2920134484E-01    0.3077111172E-01    0.3506776191E-01    0.8973594274E-02    0.2277411244E-01
    0.1700000000E+02    0.3272474117E-01    0.3417812002E-01    0.3910949067E-01    0.1005642472E-01    0.2540082112E-01
    0.1900000000E+02    0.3617198138E-01    0.3744795035E-01    0.4302531795E-01    0.1111586993E-01    0.2794611728E-01
    0.2100000000E+02    0.3954602914E-01    0.4058755728E-01    0.4682133156E-01    0.1215283982E-01    0.3041393133E-01
    0.2300000000E+02    0.4284969062E-01    0.4360345041E-01    0.5050322829E-01    0.1316819593E-01    0.3280794144E-01
    0.2500000000E+02    0.4608562491E-01    0.4650172897E-01    0.5407634491E-01    0.1416275466E-01    0.3513159355E-01
    0.2700000000E+02    0.4925635350E-01    0.4928811320E-01    0.5754568634E-01    0.1513729016E-01    0.3738811947E-01
    0.2900000000E+02    0.5236426913E-01    0.5196797296E-01    0.6091595109E-01    0.1609253706E-01    0.3958055331E-01
    0.3100000000E+02    0.5541164388E-01    0.5454635376E-01    0.6419155449E-01    0.1702919295E-01    0.4171174652E-01
    0.3300000000E+02    0.5840063677E-01    0.5702800057E-01    0.6737664980E-01    0.1794792071E-01    0.4378438140E-01
    0.3500000000E+02    0.6133330067E-01    0.5941737952E-01    0.7047514746E-01    0.1884935063E-01    0.4580098360E-01
    0.3700000000E+02    0.6421158881E-01    0.6171869777E-01    0.7349073266E-01    0.1973408240E-01    0.4776393339E-01
    0.3900000000E+02    0.6703736078E-01    0.6393592176E-01    0.7642688138E-01    0.2060268699E-01    0.4967547606E-01
    0.4100000000E+02    0.6981238808E-01    0.6607279386E-01    0.7928687515E-01    0.2145570831E-01    0.5153773138E-01
    0.4300000000E+02    0.7253835933E-01    0.6813284777E-01    0.8207381451E-01    0.2229366481E-01    0.5335270234E-01
    0.4500000000E+02    0.7521688507E-01    0.7011942257E-01    0.8479063134E-01    0.2311705100E-01    0.5512228307E-01
    0.4700000000E+02    0.7784950225E-01    0.7203567577E-01    0.8744010031E-01    0.2392633878E-01    0.5684826622E-01
    0.4900000000E+02    0.8043767843E-01    0.7388459523E-01    0.9002484928E-01    0.2472197875E-01    0.5853234968E-01
    0.1000000000E+02    0.2003866677E-01    0.2160332382E-01    0.2436872826E-01    0.6157759199E-02    0.1582282503E-01
    0.3000000000E+02    0.5389538661E-01    0.5326954489E-01    0.6256531997E-01    0.1656314667E-01    0.4065363354E-01
    0.5000000000E+02    0.8171554175E-01    0.7478469486E-01    0.9129373721E-01    0.2511481608E-01    0.5935918524E-01
    0.7000000000E+02    0.1052493418E+00    0.8986479617E-01    0.1138147694E+00    0.3235013990E-01    0.7404581751E-01
    0.9000000000E+02    0.1256055705E+00    0.1006595122E+00    0.1320323199E+00    0.3860956752E-01    0.8594404135E-01
    0.1100000000E+03    0.1435223816E+00    0.1084903469E+00    0.1471349652E+00    0.4411975642E-01    0.9582245016E-01
    0.1300000000E+03    0.1595115922E+00    0.1142092693E+00    0.1599044539E+00    0.4903787070E-01    0.1041868224E+00
    0.1500000000E+03    0.1739403767E+00    0.1183869521E+00    0.1708769373E+00    0.5347666247E-01    0.1113842150E+00
    0.1700000000E+03    0.1870798916E+00    0.1214178363E+00    0.1804329799E+00    0.5751940096E-01    0.1176610945E+00
    0.1900000000E+03    0.1991354585E+00    0.1235817863E+00    0.1888505779E+00    0.6122913975E-01    0.1231975894E+00
    0.2100000000E+03    0.2102659811E+00    0.1250818129E+00    0.1963378100E+00    0.6465467885E-01    0.1281285907E+00
    0.2300000000E+03    0.2205968287E+00    0.1260679848E+00    0.2030537155E+00    0.6783452050E-01    0.1325572485E+00
    0.2500000000E+03    0.2302286170E+00    0.1266530512E+00    0.2091220813E+00    0.7079956559E-01    0.1365638870E+00
    0.2700000000E+03    0.2392433369E+00    0.1269229227E+00    0.2146408026E+00    0.7357499548E-01    0.1402120599E+00
    0.2900000000E+03    0.2477087225E+00    0.1269438653E+00    0.2196883959E+00    0.7618161341E-01    0.1435527639E+00
    0.3100000000E+03    0.2556814241E+00    0.1267675420E+00    0.2243286287E+00    0.7863681882E-01    0.1466274358E+00
    0.3300000000E+03    0.2632093519E+00    0.1264346082E+00    0.2286138745E+00    0.8095532708E-01    0.1494701240E+00
    0.3500000000E+03    0.2703334349E+00    0.1259773203E+00    0.2325875852E+00    0.8314970958E-01    0.1521090901E+00
    0.3700000000E+03    0.2770889585E+00    0.1254214540E+00    0.2362861422E+00    0.8523080458E-01    0.1545680076E+00
    0.3900000000E+03    0.2835065960E+00    0.1247877349E+00    0.2397402613E+00    0.8720803394E-01    0.1568668727E+00
    0.4100000000E+03    0.2896132128E+00    0.1240929181E+00    0.2429760727E+00    0.8908965011E-01    0.1590227037E+00
    0.4300000000E+03    0.2954325013E+00    0.1233506115E+00    0.2460159611E+00    0.9088293101E-01    0.1610500863E+00
    0.4500000000E+03    0.3009854859E+00    0.1225719097E+00    0.2488792255E+00    0.9259433522E-01    0.1629616010E+00
    0.4700000000E+03    0.3062909298E+00    0.1217658877E+00    0.2515826035E+00    0.9422962693E-01    0.1647681634E+00
    0.4900000000E+03    0.3113656655E+00    0.1209399873E+00    0.2541406909E+00    0.9579397729E-01    0.1664792965E+00
    0.1000000000E+03    0.1348327786E+00    0.1048839139E+00    0.1399169696E+00    0.4144722410E-01    0.9109947406E-01
    0.3000000000E+03    0.2517534825E+00    0.1268775975E+00    0.2220559245E+00    0.7742716713E-01    0.1451210737E+00
    0.5000000000E+03    0.3138213174E+00    0.1205215381E+00    0.2553693108E+00    0.9655102404E-01    0.1673017272E+00
    0.7000000000E+03    0.3538350850E+00    0.1121155112E+00    0.2747220396E+00    0.1088932506E+00    0.1803134444E+00
    0.9000000000E+03    0.3817830801E+00    0.1046312965E+00    0.2878286650E+00    0.1175229620E+00    0.1891984501E+00
    0.1100000000E+04    0.4022871856E+00    0.9833160831E-01    0.2974966314E+00    0.1238609266E+00    0.1957996927E+00
    0.1300000000E+04    0.4178781738E+00    0.9304885324E-01    0.3050270428E+00    0.1286854360E+00    0.2009746249E+00
    0.1500000000E+04    0.4300715329E+00    0.8857780784E-01    0.3111179766E+00    0.1324627435E+00    0.2051849371E+00
    0.1700000000E+04    0.4398294234E+00    0.8474685814E-01    0.3161829048E+00    0.1354889855E+00    0.2087049916E+00
    0.1900000000E+04    0.4477898432E+00    0.8142357097E-01    0.3204848724E+00    0.1379606034E+00    0.2117098704E+00
    0.2100000000E+04    0.4543908050E+00    0.7850758064E-01    0.3242005340E+00    0.1400125151E+00    0.2143174936E+00
    0.2300000000E+04    0.4599418613E+00    0.7592267029E-01    0.3274536704E+00    0.1417401060E+00    0.2166107118E+00
    0.2500000000E+04    0.4646672616E+00    0.7361041044E-01    0.3303340305E+00    0.1432125027E+00    0.2186497526E+00
    0.2700000000E+04    0.4687329878E+00    0.7152545946E-01    0.3329085449E+00    0.1444808898E+00    0.2204796409E+00
    0.2900000000E+04    0.4722642350E+00    0.6963217691E-01    0.3352283169E+00    0.1455838892E+00    0.2221348355E+00
    0.3100000000E+04    0.4753570271E+00    0.6790219175E-01    0.3373331545E+00    0.1465511345E+00    0.2236422393E+00
    0.3300000000E+04    0.4780861208E+00    0.6631264634E-01    0.3392546053E+00    0.1474057055E+00    0.2250232190E+00
    0.3500000000E+04    0.4805105017E+00    0.6484491658E-01    0.3410180485E+00    0.1481658196E+00    0.2262949992E+00
    0.3700000000E+04    0.4826772776E+00    0.6348366831E-01    0.3426441704E+00    0.1488460317E+00    0.2274716480E+00
    0.3900000000E+04    0.4846244855E+00    0.6221615369E-01    0.3441500300E+00    0.1494580984E+00    0.2285647894E+00
    0.4100000000E+04    0.4863831465E+00    0.6103168012E-01    0.3455498414E+00    0.1500116118E+00    0.2295841270E+00
    0.4300000000E+04    0.4879787924E+00    0.5992120493E-01    0.3468555588E+00    0.1505144697E+00    0.2305378367E+00
    0.4500000000E+04    0.4894326136E+00    0.5887702266E-01    0.3480773203E+00    0.1509732296E+00    0.2314328649E+00
    0.4700000000E+04    0.4907623338E+00    0.5789252119E-01    0.3492237899E+00    0.1513933782E+00    0.2322751580E+00
    0.4900000000E+04    0.4919828832E+00    0.5696198985E-01    0.3503024226E+00    0.1517795394E+00    0.2330698415E+00
    0.1000000000E+04    0.3927756298E+00    0.1013411604E+00    0.2929910537E+00    0.1209199923E+00    0.1927177686E+00
    0.3000000000E+04    0.4738603410E+00    0.6874831305E-01    0.3363054653E+00    0.1460829077E+00    0.2229055648E+00
    0.5000000000E+04    0.4925562518E+00    0.5651538669E-01    0.3508183519E+00    0.1519611243E+00    0.2334507423E+00
    0.7000000000E+04    0.5005439506E+00    0.4949516954E-01    0.3587680861E+00    0.1545066784E+00    0.2393929908E+00
    0.9000000000E+04    0.5049240178E+00    0.4473881850E-01    0.3639654958E+00    0.1559218004E+00    0.2433679379E+00
    0.1100000000E+05    0.5076756321E+00    0.4122042907E-01    0.3677005524E+00    0.1568231473E+00    0.2462813549E+00
    0.1300000000E+05    0.5095587880E+00    0.3847145312E-01    0.3705490962E+00    0.1574485982E+00    0.2485425941E+00
    0.1500000000E+05    0.5109257648E+00    0.3624153805E-01    0.3728124185E+00    0.1579089247E+00    0.2503681397E+00
    0.1700000000E+05    0.5119616214E+00    0.3438242482E-01    0.3746655651E+00    0.1582625862E+00    0.2518849757E+00
    0.1900000000E+05    0.5127726846E+00    0.3279966639E-01    0.3762181307E+00    0.1585433274E+00    0.2531733035E+00
    0.2100000000E+05    0.5134243090E+00    0.3142971622E-01    0.3775427032E+00    0.1587719862E+00    0.2542866743E+00
    0.2300000000E+05    0.5139588387E+00    0.3022796001E-01    0.3786895208E+00    0.1589621266E+00    0.2552624326E+00
    0.2500000000E+05    0.5144048949E+00    0.2916198822E-01    0.3796946049E+00    0.1591229601E+00    0.2561275456E+00
    0.2700000000E+05    0.5147825077E+00    0.2820758893E-01    0.3805845444E+00    0.1592609629E+00    0.2569020543E+00
    0.2900000000E+05    0.5151061076E+00    0.2734624605E-01    0.3813794497E+00    0.1593808230E+00    0.2576012138E+00
    0.3100000000E+05    0.5153863510E+00    0.2656351524E-01    0.3820948487E+00    0.1594860182E+00    0.2582368761E+00
    0.3300000000E+05    0.5156312756E+00    0.2584793431E-01    0.3827429465E+00    0.1595791841E+00    0.2588184115E+00
    0.3500000000E+05    0.5158470564E+00    0.2519027146E-01    0.3833334858E+00    0.1596623550E+00    0.2593533429E+00
    0.3700000000E+05    0.5160385149E+00    0.2458299367E-01    0.3838743507E+00    0.1597371267E+00    0.2598477910E+00
    0.3900000000E+05    0.5162094696E+00    0.2401988278E-01    0.3843719979E+00    0.1598047689E+00    0.2603067951E+00
    0.4100000000E+05    0.5163629834E+00    0.2349575289E-01    0.3848317723E+00    0.1598663049E+00    0.2607345485E+00
    0.4300000000E+05    0.5165015414E+00    0.2300623897E-01    0.3852581417E+00    0.1599225686E+00    0.2611345732E+00
    0.4500000000E+05    0.5166271804E+00    0.2254763615E-01    0.3856548727E+00    0.1599742470E+00    0.2615098532E+00
    0.4700000000E+05    0.5167415857E+00    0.2211677608E-01    0.3860251659E+00    0.1600219109E+00    0.2618629362E+00
    0.4900000000E+05    0.5168461632E+00    0.2171093052E-01    0.3863717611E+00    0.1600660387E+00    0.2621960128E+00
    0.1000000000E+05    0.5064415371E+00    0.4286147186E-01    0.3659705733E+00    0.1564173614E+00    0.2449252740E+00
    0.3000000000E+05    0.5152510955E+00    0.2694583031E-01    0.3817462584E+00    0.1594350725E+00    0.2579263468E+00
    0.5000000000E+05    0.5168951436E+00    0.2151663693E-01    0.3865369225E+00    0.1600869055E+00    0.2623556511E+00
    0.7000000000E+05    0.5175666196E+00    0.1850682963E-01    0.3890281565E+00    0.1603902574E+00    0.2648479787E+00
    0.9000000000E+05    0.5179234373E+00    0.1651886078E-01    0.3905971354E+00    0.1605725287E+00    0.2665220055E+00
    0.1100000000E+06    0.5181407288E+00    0.1507709121E-01    0.3916911260E+00    0.1606973715E+00    0.2677563162E+00
    0.1300000000E+06    0.5182845865E+00    0.1396827392E-01    0.3925040719E+00    0.1607899678E+00    0.2687206838E+00
    0.1500000000E+06    0.5183853417E+00    0.1308039108E-01    0.3931351859E+00    0.1608624107E+00    0.2695045321E+00
    0.1700000000E+06    0.5184588036E+00    0.1234811774E-01    0.3936410503E+00    0.1609212873E+00    0.2701602171E+00
    0.1900000000E+06    0.5185139891E+00    0.1173040737E-01    0.3940565345E+00    0.1609705199E+00    0.2707207883E+00
    0.2100000000E+06    0.5185563993E+00    0.1119997949E-01    0.3944044151E+00    0.1610126046E+00    0.2712083206E+00
    0.2300000000E+06    0.5185895708E+00    0.1073789015E-01    0.3947002612E+00    0.1610492137E+00    0.2716382223E+00
    0.2500000000E+06    0.5186158741E+00    0.1033051264E-01    0.3949551107E+00    0.1610815150E+00    0.2720216348E+00
    0.2700000000E+06    0.5186369540E+00    0.9967756941E-02    0.3951770268E+00    0.1611103516E+00    0.2723668515E+00
    0.2900000000E+06    0.5186539846E+00    0.9641968582E-02    0.3953720495E+00    0.1611363498E+00    0.2726801968E+00
    0.3100000000E+06    0.5186678245E+00    0.9347219913E-02    0.3955448002E+00    0.1611599858E+00    0.2729665936E+00
    0.3300000000E+06    0.5186791149E+00    0.9078838523E-02    0.3956988806E+00    0.1611816292E+00    0.2732299424E+00
    0.3500000000E+06    0.5186883434E+00    0.8833084268E-02    0.3958371427E+00    0.1612015719E+00    0.2734733812E+00
    0.3700000000E+06    0.5186958865E+00    0.8606922508E-02    0.3959618762E+00    0.1612200481E+00    0.2736994687E+00
    0.3900000000E+06    0.5187020392E+00    0.8397861403E-02    0.3960749426E+00    0.1612372482E+00    0.2739103162E+00
    0.4100000000E+06    0.5187070352E+00    0.8203832892E-02    0.3961778720E+00    0.1612533288E+00    0.2741076844E+00
    0.4300000000E+06    0.5187110620E+00    0.8023104133E-02    0.3962719345E+00    0.1612684202E+00    0.2742930556E+00
    0.4500000000E+06    0.5187142714E+00    0.7854210590E-02    0.3963581936E+00    0.1612826318E+00    0.2744676883E+00
    0.4700000000E+06    0.5187167875E+00    0.7695904773E-02    0.3964375475E+00    0.1612960564E+00    0.2746326595E+00
    0.4900000000E+06    0.5187187123E+00    0.7547116476E-02    0.3965107599E+00    0.1613087731E+00    0.2747888973E+00
    0.1000000000E+06    0.5180441296E+00    0.1574643752E-01    0.3911881625E+00    0.1606400979E+00    0.2671808084E+00
    0.3000000000E+06    0.5186612591E+00    0.9491031376E-02    0.3954609635E+00    0.1611484379E+00    0.2728264995E+00
    0.5000000000E+06    0.5187194800E+00    0.7475997618E-02    0.3965452713E+00    0.1613148876E+00    0.2748639968E+00
    0.7000000000E+06    0.5187183236E+00    0.6383389861E-02    0.3970315200E+00    0.1614124741E+00    0.2760566496E+00
    0.9000000000E+06    0.5187033937E+00    0.5670873306E-02    0.3972956949E+00    0.1614810794E+00    0.2768823479E+00
    0.1100000000E+07    0.5186848518E+00    0.5158529914E-02    0.3974530563E+00    0.1615338473E+00    0.2775063456E+00
    0.1300000000E+07    0.5186657723E+00    0.4766963045E-02    0.3975511917E+00    0.1615766701E+00    0.2780041159E+00
    0.1500000000E+07    0.5186472088E+00    0.4454928694E-02    0.3976133746E+00    0.1616126803E+00    0.2784160496E+00
    0.1700000000E+07    0.5186295197E+00    0.4198576857E-02    0.3976523228E+00    0.1616437376E+00    0.2787661308E+00
    0.1900000000E+07    0.5186127978E+00    0.3983021315E-02    0.3976755555E+00    0.1616710341E+00    0.2790696931E+00
    0.2100000000E+07    0.5185970299E+00    0.3798422237E-02    0.3976877881E+00    0.1616953788E+00    0.2793370973E+00
    0.2300000000E+07    0.5185821614E+00    0.3637977917E-02    0.3976921159E+00    0.1617173460E+00    0.2795756526E+00
    0.2500000000E+07    0.5185681239E+00    0.3496814840E-02    0.3976906461E+00    0.1617373576E+00    0.2797906963E+00
    0.2700000000E+07    0.5185548476E+00    0.3371336586E-02    0.3976848566E+00    0.1617557324E+00    0.2799862378E+00
    0.2900000000E+07    0.5185422658E+00    0.3258822936E-02    0.3976758098E+00    0.1617727175E+00    0.2801653609E+00
    0.3100000000E+07    0.5185303175E+00    0.3157172896E-02    0.3976642851E+00    0.1617885079E+00    0.2803304854E+00
    0.3300000000E+07    0.5185189474E+00    0.3064734281E-02    0.3976508648E+00    0.1618032604E+00    0.2804835432E+00
    0.3500000000E+07    0.5185081061E+00    0.2980187371E-02    0.3976359901E+00    0.1618171029E+00    0.2806260996E+00
    0.3700000000E+07    0.5184977495E+00    0.2902463451E-02    0.3976199998E+00    0.1618301409E+00    0.2807594397E+00
    0.3900000000E+07    0.5184878382E+00    0.2830686512E-02    0.3976031569E+00    0.1618424628E+00    0.2808846308E+00
    0.4100000000E+07    0.5184783372E+00    0.2764130700E-02    0.3975856675E+00    0.1618541431E+00    0.2810025685E+00
    0.4300000000E+07    0.5184692149E+00    0.2702188725E-02    0.3975676944E+00    0.1618652452E+00    0.2811140113E+00
    0.4500000000E+07    0.5184604435E+00    0.2644348037E-02    0.3975493674E+00    0.1618758236E+00    0.2812196066E+00
    0.4700000000E+07    0.5184519975E+00    0.2590172604E-02    0.3975307902E+00    0.1618859255E+00    0.2813199116E+00
    0.4900000000E+07    0.5184438544E+00    0.2539288811E-02    0.3975120462E+00    0.1618955920E+00    0.2814154091E+00
    0.1000000000E+07    0.5186943071E+00    0.5395932955E-02    0.3973839157E+00    0.1615089817E+00    0.2772136667E+00
    0.3000000000E+07    0.5185362161E+00    0.3206752175E-02    0.3976703169E+00    0.1617807515E+00    0.2802495424E+00
    0.5000000000E+07    0.5184398899E+00    0.2514978820E-02    0.3975026333E+00    0.1619002733E+00    0.2814614886E+00
    0.7000000000E+07    0.5183724476E+00    0.2142451989E-02    0.3973164791E+00    0.1619778291E+00    0.2822093415E+00
    0.9000000000E+07    0.5183206413E+00    0.1900467325E-02    0.3971445895E+00    0.1620353451E+00    0.2827460011E+00
    0.1100000000E+08    0.5182785961E+00    0.1726921288E-02    0.3969895680E+00    0.1620810803E+00    0.2831626480E+00
    0.1300000000E+08    0.5182432188E+00    0.1594540156E-02    0.3968496166E+00    0.1621190507E+00    0.2835022153E+00
    0.1500000000E+08    0.5182126841E+00    0.1489203846E-02    0.3967224756E+00    0.1621515151E+00    0.2837882434E+00
    0.1700000000E+08    0.5181858257E+00    0.1402767935E-02    0.3966061508E+00    0.1621798704E+00    0.2840349948E+00
    0.1900000000E+08    0.5181618532E+00    0.1330159218E-02    0.3964990051E+00    0.1622050415E+00    0.2842517465E+00
    0.2100000000E+08    0.5181402064E+00    0.1268029805E-02    0.3963997158E+00    0.1622276721E+00    0.2844448615E+00
    0.2300000000E+08    0.5181204738E+00    0.1214068682E-02    0.3963072127E+00    0.1622482287E+00    0.2846188891E+00
    0.2500000000E+08    0.5181023441E+00    0.1166621928E-02    0.3962206235E+00    0.1622670600E+00    0.2847771912E+00
    0.2700000000E+08    0.5180855764E+00    0.1124470279E-02    0.3961392307E+00    0.1622844333E+00    0.2849223206E+00
