  Pressure (Pa) 22mC5-400 (mol/kg) 2mC6-400 (mol/kg) 3mC6-400 (mol/kg) 23mC5-400 (mol/kg) C7-400 (mol/kg)
    0.1000000000E+01    0.2120877352E-02    0.1569367712E-02    0.2596164428E-02    0.9310066529E-04    0.1348198345E-01
    0.3000000000E+01    0.6302252908E-02    0.4496033610E-02    0.7411846449E-02    0.2766535360E-03    0.3849921576E-01
    0.5000000000E+01    0.1040533562E-01    0.7171965716E-02    0.1178374116E-01    0.4567721672E-03    0.6122223241E-01
    0.7000000000E+01    0.1443267711E-01    0.9629558950E-02    0.1577100966E-01    0.6335684648E-03    0.8195639063E-01
    0.9000000000E+01    0.1838671649E-01    0.1189565150E-01    0.1942272135E-01    0.8071493998E-03    0.1009550005E+00
    0.1100000000E+02    0.2226978644E-01    0.1399267613E-01    0.2277991896E-01    0.9776172770E-03    0.1184299706E+00
    0.1300000000E+02    0.2608411897E-01    0.1593953683E-01    0.2587719652E-01    0.1145069986E-02    0.1345599427E+00
    0.1500000000E+02    0.2983185080E-01    0.1775228425E-01    0.2874391898E-01    0.1309601237E-02    0.1494965802E+00
    0.1700000000E+02    0.3351502832E-01    0.1944464168E-01    0.3140517513E-01    0.1471300781E-02    0.1633694822E+00
    0.1900000000E+02    0.3713561239E-01    0.2102841862E-01    0.3388252941E-01    0.1630254616E-02    0.1762900598E+00
    0.2100000000E+02    0.4069548270E-01    0.2251383917E-01    0.3619462037E-01    0.1786545182E-02    0.1883546235E+00
    0.2300000000E+02    0.4419644195E-01    0.2390980470E-01    0.3835764125E-01    0.1940251541E-02    0.1996468615E+00
    0.2500000000E+02    0.4764021976E-01    0.2522410592E-01    0.4038572874E-01    0.2091449553E-02    0.2102398455E+00
    0.2700000000E+02    0.5102847631E-01    0.2646359514E-01    0.4229127986E-01    0.2240212029E-02    0.2201976649E+00
    0.2900000000E+02    0.5436280581E-01    0.2763432730E-01    0.4408521196E-01    0.2386608891E-02    0.2295767687E+00
    0.3100000000E+02    0.5764473974E-01    0.2874167609E-01    0.4577717739E-01    0.2530707307E-02    0.2384270733E+00
    0.3300000000E+02    0.6087574994E-01    0.2979043027E-01    0.4737574190E-01    0.2672571830E-02    0.2467928828E+00
    0.3500000000E+02    0.6405725142E-01    0.3078487380E-01    0.4888853359E-01    0.2812264523E-02    0.2547136579E+00
    0.3700000000E+02    0.6719060516E-01    0.3172885318E-01    0.5032236802E-01    0.2949845076E-02    0.2622246617E+00
    0.3900000000E+02    0.7027712060E-01    0.3262583401E-01    0.5168335382E-01    0.3085370922E-02    0.2693575045E+00
    0.4100000000E+02    0.7331805812E-01    0.3347894900E-01    0.5297698216E-01    0.3218897341E-02    0.2761406064E+00
    0.4300000000E+02    0.7631463130E-01    0.3429103867E-01    0.5420820306E-01    0.3350477559E-02    0.2825995905E+00
    0.4500000000E+02    0.7926800905E-01    0.3506468624E-01    0.5538149053E-01    0.3480162846E-02    0.2887576197E+00
    0.4700000000E+02    0.8217931771E-01    0.3580224745E-01    0.5650089861E-01    0.3608002604E-02    0.2946356862E+00
    0.4900000000E+02    0.8504964293E-01    0.3650587634E-01    0.5757010964E-01    0.3734044448E-02    0.3002528602E+00
    0.1000000000E+02    0.2033698085E-01    0.1296404186E-01    0.2113583693E-01    0.8927662519E-03    0.1098710771E+00
    0.3000000000E+02    0.5601022887E-01    0.2819561262E-01    0.4494338155E-01    0.2458941310E-02    0.2340651300E+00
    0.5000000000E+02    0.8646976535E-01    0.3684558966E-01    0.5808695073E-01    0.3796405566E-02    0.3029691002E+00
    0.7000000000E+02    0.1129564071E+00    0.4226100663E-01    0.6646161370E-01    0.4959580996E-02    0.3470851122E+00
    0.9000000000E+02    0.1363330316E+00    0.4578916954E-01    0.7228442650E-01    0.5986314684E-02    0.3779041142E+00
    0.1100000000E+03    0.1572188407E+00    0.4810561255E-01    0.7657840167E-01    0.6903766686E-02    0.4007372001E+00
    0.1300000000E+03    0.1760702630E+00    0.4959721215E-01    0.7988207394E-01    0.7731957954E-02    0.4183848515E+00
    0.1500000000E+03    0.1932316516E+00    0.5050548934E-01    0.8250646427E-01    0.8485993768E-02    0.4324670843E+00
    0.1700000000E+03    0.2089681426E+00    0.5099040274E-01    0.8464401989E-01    0.9177504785E-02    0.4439879289E+00
    0.1900000000E+03    0.2234875796E+00    0.5116248606E-01    0.8642035194E-01    0.9815608665E-02    0.4536037790E+00
    0.2100000000E+03    0.2369555235E+00    0.5110057960E-01    0.8792101802E-01    0.1040756837E-01    0.4617624425E+00
    0.2300000000E+03    0.2495057613E+00    0.5086230850E-01    0.8920635993E-01    0.1095925312E-01    0.4687802515E+00
    0.2500000000E+03    0.2612478140E+00    0.5049061204E-01    0.9032018811E-01    0.1147546767E-01    0.4748872393E+00
    0.2700000000E+03    0.2722723973E+00    0.5001798634E-01    0.9129510088E-01    0.1196019187E-01    0.4802548381E+00
    0.2900000000E+03    0.2826554592E+00    0.4946933596E-01    0.9215586948E-01    0.1241675773E-01    0.4850135218E+00
    0.3100000000E+03    0.2924612084E+00    0.4886394479E-01    0.9292166366E-01    0.1284798232E-01    0.4892644177E+00
    0.3300000000E+03    0.3017444178E+00    0.4821687003E-01    0.9360755692E-01    0.1325626874E-01    0.4930871669E+00
    0.3500000000E+03    0.3105521971E+00    0.4753994810E-01    0.9422556980E-01    0.1364368394E-01    0.4965453778E+00
    0.3700000000E+03    0.3189253739E+00    0.4684253273E-01    0.9478540897E-01    0.1401201926E-01    0.4996904935E+00
    0.3900000000E+03    0.3268995789E+00    0.4613204486E-01    0.9529500087E-01    0.1436283808E-01    0.5025645860E+00
    0.4100000000E+03    0.3345061093E+00    0.4541438752E-01    0.9576088384E-01    0.1469751363E-01    0.5052024121E+00
    0.4300000000E+03    0.3417726201E+00    0.4469426255E-01    0.9618850058E-01    0.1501725940E-01    0.5076329480E+00
    0.4500000000E+03    0.3487236835E+00    0.4397541494E-01    0.9658241950E-01    0.1532315360E-01    0.5098805517E+00
    0.4700000000E+03    0.3553812443E+00    0.4326082298E-01    0.9694650432E-01    0.1561615918E-01    0.5119658547E+00
    0.4900000000E+03    0.3617649938E+00    0.4255284751E-01    0.9728404552E-01    0.1589714025E-01    0.5139064535E+00
    0.1000000000E+03    0.1470556500E+00    0.4707017077E-01    0.7458160579E-01    0.6457313124E-02    0.3901062436E+00
    0.3000000000E+03    0.2876268765E+00    0.4917270617E-01    0.9254961429E-01    0.1263537880E-01    0.4871970353E+00
    0.5000000000E+03    0.3648598041E+00    0.4220193947E-01    0.9744375961E-01    0.1603336798E-01    0.5148272940E+00
    0.7000000000E+03    0.4159019821E+00    0.3580567767E-01    0.9975566963E-01    0.1828115865E-01    0.5283922725E+00
    0.9000000000E+03    0.4524093363E+00    0.3071366194E-01    0.1011053299E+00    0.1989030462E-01    0.5366020998E+00
    0.1100000000E+04    0.4797727254E+00    0.2673357026E-01    0.1019892531E+00    0.2109747570E-01    0.5421679703E+00
    0.1300000000E+04    0.5009704876E+00    0.2360139151E-01    0.1026117782E+00    0.2203347213E-01    0.5462217262E+00
    0.1500000000E+04    0.5178154386E+00    0.2110330547E-01    0.1030727544E+00    0.2277793511E-01    0.5493239563E+00
    0.1700000000E+04    0.5314807634E+00    0.1908140436E-01    0.1034268663E+00    0.2338242283E-01    0.5517856690E+00
    0.1900000000E+04    0.5427595885E+00    0.1742130794E-01    0.1037066146E+00    0.2388180251E-01    0.5537940193E+00
    0.2100000000E+04    0.5522064929E+00    0.1603996257E-01    0.1039325443E+00    0.2430046232E-01    0.5554687504E+00
    0.2300000000E+04    0.5602200502E+00    0.1487644313E-01    0.1041182849E+00    0.2465593556E-01    0.5568902387E+00
    0.2500000000E+04    0.5670934175E+00    0.1388547483E-01    0.1042732365E+00    0.2496112230E-01    0.5581145594E+00
    0.2700000000E+04    0.5730465583E+00    0.1303295090E-01    0.1044040930E+00    0.2522570489E-01    0.5591820956E+00
    0.2900000000E+04    0.5782474229E+00    0.1229283005E-01    0.1045157503E+00    0.2545707846E-01    0.5601227139E+00
    0.3100000000E+04    0.5828262447E+00    0.1164497196E-01    0.1046118718E+00    0.2566097918E-01    0.5609590077E+00
    0.3300000000E+04    0.5868854138E+00    0.1107361045E-01    0.1046952529E+00    0.2584191832E-01    0.5617084047E+00
    0.3500000000E+04    0.5905064360E+00    0.1056626309E-01    0.1047680633E+00    0.2600348806E-01    0.5623845772E+00
    0.3700000000E+04    0.5937549250E+00    0.1011294255E-01    0.1048320126E+00    0.2614858113E-01    0.5629984123E+00
    0.3900000000E+04    0.5966842436E+00    0.9705579317E-02    0.1048884654E+00    0.2627955086E-01    0.5635586936E+00
    0.4100000000E+04    0.5993381980E+00    0.9337593728E-02    0.1049385245E+00    0.2639832977E-01    0.5640725918E+00
    0.4300000000E+04    0.6017530577E+00    0.9003575360E-02    0.1049830899E+00    0.2650651838E-01    0.5645460224E+00
    0.4500000000E+04    0.6039590898E+00    0.8699040049E-02    0.1050229038E+00    0.2660545278E-01    0.5649839121E+00
    0.4700000000E+04    0.6059817361E+00    0.8420243936E-02    0.1050585830E+00    0.2669625639E-01    0.5653903995E+00
    0.4900000000E+04    0.6078425268E+00    0.8164039758E-02    0.1050906445E+00    0.2677988023E-01    0.5657689886E+00
    0.1000000000E+04    0.4670113833E+00    0.2860191396E-01    0.1015891329E+00    0.2053436018E-01    0.5396251575E+00
    0.3000000000E+04    0.5806076302E+00    0.1195844154E-01    0.1045655613E+00    0.2556215635E-01    0.5605527102E+00
    0.5000000000E+04    0.6087180642E+00    0.8043561160E-02    0.1051054578E+00    0.2681925768E-01    0.5659487726E+00
    0.7000000000E+04    0.6210137480E+00    0.6348573762E-02    0.1052889044E+00    0.2737498918E-01    0.5686176742E+00
    0.9000000000E+04    0.6278421291E+00    0.5389755129E-02    0.1053593362E+00    0.2768694735E-01    0.5702685973E+00
    0.1100000000E+05    0.6321693209E+00    0.4762931548E-02    0.1053823450E+00    0.2788677995E-01    0.5714158261E+00
    0.1300000000E+05    0.6351511303E+00    0.4314992808E-02    0.1053823438E+00    0.2802597197E-01    0.5722722261E+00
    0.1500000000E+05    0.6373283010E+00    0.3975236819E-02    0.1053702136E+00    0.2812869813E-01    0.5729433197E+00
    0.1700000000E+05    0.6389867679E+00    0.3706393918E-02    0.1053513970E+00    0.2820778813E-01    0.5734879596E+00
    0.1900000000E+05    0.6402916443E+00    0.3486866137E-02    0.1053288416E+00    0.2827067756E-01    0.5739418299E+00
    0.2100000000E+05    0.6413448311E+00    0.3303216118E-02    0.1053042364E+00    0.2832197218E-01    0.5743279629E+00
    0.2300000000E+05    0.6422125771E+00    0.3146609781E-02    0.1052785893E+00    0.2836467728E-01    0.5746619649E+00
    0.2500000000E+05    0.6429397949E+00    0.3010978226E-02    0.1052525193E+00    0.2840083773E-01    0.5749548301E+00
    0.2700000000E+05    0.6435579988E+00    0.2892000010E-02    0.1052264137E+00    0.2843189365E-01    0.5752145547E+00
    0.2900000000E+05    0.6440899483E+00    0.2786505060E-02    0.1052005167E+00    0.2845888889E-01    0.5754471105E+00
    0.3100000000E+05    0.6445524875E+00    0.2692108895E-02    0.1051749821E+00    0.2848259881E-01    0.5756570596E+00
    0.3300000000E+05    0.6449583478E+00    0.2606979170E-02    0.1051499050E+00    0.2850361160E-01    0.5758479547E+00
    0.3500000000E+05    0.6453173294E+00    0.2529681610E-02    0.1051253421E+00    0.2852238171E-01    0.5760226095E+00
    0.3700000000E+05    0.6456370989E+00    0.2459075339E-02    0.1051013245E+00    0.2853926588E-01    0.5761832850E+00
    0.3900000000E+05    0.6459237386E+00    0.2394239959E-02    0.1050778662E+00    0.2855454823E-01    0.5763318222E+00
    0.4100000000E+05    0.6461821361E+00    0.2334423601E-02    0.1050549696E+00    0.2856845784E-01    0.5764697372E+00
    0.4300000000E+05    0.6464162634E+00    0.2279005189E-02    0.1050326294E+00    0.2858118159E-01    0.5765982916E+00
    0.4500000000E+05    0.6466293814E+00    0.2227466540E-02    0.1050108354E+00    0.2859287343E-01    0.5767185448E+00
    0.4700000000E+05    0.6468241925E+00    0.2179371405E-02    0.1049895739E+00    0.2860366140E-01    0.5768313944E+00
    0.4900000000E+05    0.6470029548E+00    0.2134349509E-02    0.1049688292E+00    0.2861365290E-01    0.5769376061E+00
    0.1000000000E+05    0.6302245817E+00    0.5047326561E-02    0.1053747636E+00    0.2779670536E-01    0.5708881699E+00
    0.3000000000E+05    0.6443290183E+00    0.2738044989E-02    0.1051876970E+00    0.2847111409E-01    0.5755546689E+00
    0.5000000000E+05    0.6470869239E+00    0.2112890265E-02    0.1049586454E+00    0.2861837889E-01    0.5769884322E+00
    0.7000000000E+05    0.6482589288E+00    0.1787720361E-02    0.1047779455E+00    0.2868718372E-01    0.5777766167E+00
    0.9000000000E+05    0.6489067336E+00    0.1579673869E-02    0.1046311311E+00    0.2872862303E-01    0.5783027054E+00
    0.1100000000E+06    0.6493173913E+00    0.1431727739E-02    0.1045078615E+00    0.2875705126E-01    0.5786905971E+00
    0.1300000000E+06    0.6496007608E+00    0.1319486777E-02    0.1044016985E+00    0.2877816061E-01    0.5789944902E+00
    0.1500000000E+06    0.6498079406E+00    0.1230515787E-02    0.1043084809E+00    0.2879468942E-01    0.5792425052E+00
    0.1700000000E+06    0.6499659173E+00    0.1157715498E-02    0.1042253882E+00    0.2880813138E-01    0.5794509479E+00
    0.1900000000E+06    0.6500902856E+00    0.1096695883E-02    0.1041504273E+00    0.2881937695E-01    0.5796300462E+00
    0.2100000000E+06    0.6501906839E+00    0.1044575642E-02    0.1040821398E+00    0.2882899333E-01    0.5797866033E+00
    0.2300000000E+06    0.6502733903E+00    0.9993742345E-03    0.1040194275E+00    0.2883736087E-01    0.5799253557E+00
    0.2500000000E+06    0.6503426686E+00    0.9596790294E-03    0.1039614426E+00    0.2884474535E-01    0.5800497225E+00
    0.2700000000E+06    0.6504015162E+00    0.9244515163E-03    0.1039075174E+00    0.2885133882E-01    0.5801622473E+00
    0.2900000000E+06    0.6504521015E+00    0.8929087136E-03    0.1038571167E+00    0.2885728398E-01    0.5802648691E+00
    0.3100000000E+06    0.6504960319E+00    0.8644475411E-03    0.1038098048E+00    0.2886268941E-01    0.5803590978E+00
    0.3300000000E+06    0.6505345241E+00    0.8385948842E-03    0.1037652221E+00    0.2886763942E-01    0.5804461306E+00
    0.3500000000E+06    0.6505685157E+00    0.8149736301E-03    0.1037230688E+00    0.2887220063E-01    0.5805269312E+00
    0.3700000000E+06    0.6505987411E+00    0.7932789646E-03    0.1036830918E+00    0.2887642648E-01    0.5806022866E+00
    0.3900000000E+06    0.6506257838E+00    0.7732614563E-03    0.1036450760E+00    0.2888036046E-01    0.5806728467E+00
    0.4100000000E+06    0.6506501127E+00    0.7547147423E-03    0.1036088365E+00    0.2888403834E-01    0.5807391545E+00
    0.4300000000E+06    0.6506721095E+00    0.7374664064E-03    0.1035742136E+00    0.2888748990E-01    0.5808016676E+00
    0.4500000000E+06    0.6506920876E+00    0.7213711131E-03    0.1035410682E+00    0.2889074015E-01    0.5808607753E+00
    0.4700000000E+06    0.6507103069E+00    0.7063053681E-03    0.1035092786E+00    0.2889381028E-01    0.5809168111E+00
    0.4900000000E+06    0.6507269847E+00    0.6921634672E-03    0.1034787375E+00    0.2889671840E-01    0.5809700631E+00
    0.1000000000E+06    0.6491327711E+00    0.1500121251E-02    0.1045670241E+00    0.2874400473E-01    0.5785096535E+00
    0.3000000000E+06    0.6504748149E+00    0.8783250803E-03    0.1038330987E+00    0.2886004841E-01    0.5803129515E+00
    0.5000000000E+06    0.6507348039E+00    0.6854099962E-03    0.1034639051E+00    0.2889811665E-01    0.5809957246E+00
    0.7000000000E+06    0.6508425459E+00    0.5821543204E-03    0.1032145565E+00    0.2892042597E-01    0.5814093200E+00
    0.9000000000E+06    0.6509002504E+00    0.5153208564E-03    0.1030258210E+00    0.2893609953E-01    0.5817030729E+00
    0.1100000000E+07    0.6509355479E+00    0.4675087644E-03    0.1028738365E+00    0.2894814712E-01    0.5819295874E+00
    0.1300000000E+07    0.6509589698E+00    0.4311069939E-03    0.1027465584E+00    0.2895791838E-01    0.5821132896E+00
    0.1500000000E+07    0.6509753842E+00    0.4021862815E-03    0.1026370458E+00    0.2896613092E-01    0.5822674431E+00
    0.1700000000E+07    0.6509873431E+00    0.3784851164E-03    0.1025409295E+00    0.2897321060E-01    0.5824000266E+00
    0.1900000000E+07    0.6509963086E+00    0.3585972277E-03    0.1024552792E+00    0.2897943040E-01    0.5825162001E+00
    0.2100000000E+07    0.6510031761E+00    0.3415959328E-03    0.1023780330E+00    0.2898497558E-01    0.5826194869E+00
    0.2300000000E+07    0.6510085232E+00    0.3268423408E-03    0.1023076851E+00    0.2898997754E-01    0.5827123961E+00
    0.2500000000E+07    0.6510127383E+00    0.3138797086E-03    0.1022431015E+00    0.2899453280E-01    0.5827967762E+00
    0.2700000000E+07    0.6510160913E+00    0.3023716462E-03    0.1021834072E+00    0.2899871433E-01    0.5828740265E+00
    0.2900000000E+07    0.6510187753E+00    0.2920641642E-03    0.1021279127E+00    0.2900257862E-01    0.5829452316E+00
    0.3100000000E+07    0.6510209319E+00    0.2827613983E-03    0.1020760648E+00    0.2900617026E-01    0.5830112484E+00
    0.3300000000E+07    0.6510226670E+00    0.2743095426E-03    0.1020274132E+00    0.2900952510E-01    0.5830727652E+00
    0.3500000000E+07    0.6510240612E+00    0.2665858998E-03    0.1019815860E+00    0.2901267234E-01    0.5831303434E+00
    0.3700000000E+07    0.6510251767E+00    0.2594912269E-03    0.1019382729E+00    0.2901563614E-01    0.5831844463E+00
    0.3900000000E+07    0.6510260625E+00    0.2529442643E-03    0.1018972122E+00    0.2901843664E-01    0.5832354607E+00
    0.4100000000E+07    0.6510267573E+00    0.2468777494E-03    0.1018581808E+00    0.2902109088E-01    0.5832837131E+00
    0.4300000000E+07    0.6510272923E+00    0.2412354593E-03    0.1018209874E+00    0.2902361334E-01    0.5833294810E+00
    0.4500000000E+07    0.6510276926E+00    0.2359699837E-03    0.1017854666E+00    0.2902601646E-01    0.5833730026E+00
    0.4700000000E+07    0.6510279789E+00    0.2310410236E-03    0.1017514744E+00    0.2902831102E-01    0.5834144837E+00
    0.4900000000E+07    0.6510281681E+00    0.2264140750E-03    0.1017188844E+00    0.2903050637E-01    0.5834541032E+00
    0.1000000000E+07    0.6509198423E+00    0.4896377081E-03    0.1029461535E+00    0.2894247091E-01    0.5818228360E+00
    0.3000000000E+07    0.6510199122E+00    0.2872976425E-03    0.1021015632E+00    0.2900440610E-01    0.5829788421E+00
    0.5000000000E+07    0.6510282309E+00    0.2242043991E-03    0.1017030800E+00    0.2903156946E-01    0.5834732647E+00
    0.7000000000E+07    0.6510268050E+00    0.1904156801E-03    0.1014394388E+00    0.2904917227E-01    0.5837882571E+00
    0.9000000000E+07    0.6510232079E+00    0.1685433118E-03    0.1012420944E+00    0.2906221591E-01    0.5840189012E+00
    0.1100000000E+08    0.6510191148E+00    0.1528961065E-03    0.1010843196E+00    0.2907258178E-01    0.5842005588E+00
    0.1300000000E+08    0.6510150213E+00    0.1409835554E-03    0.1009528713E+00    0.2908118395E-01    0.5843502416E+00
    0.1500000000E+08    0.6510110889E+00    0.1315196485E-03    0.1008402118E+00    0.2908853611E-01    0.5844774304E+00
    0.1700000000E+08    0.6510073660E+00    0.1237641476E-03    0.1007416392E+00    0.2909495582E-01    0.5845879453E+00
    0.1900000000E+08    0.6510038588E+00    0.1172567359E-03    0.1006540218E+00    0.2910065319E-01    0.5846856130E+00
    0.2100000000E+08    0.6510005579E+00    0.1116940789E-03    0.1005751684E+00    0.2910577446E-01    0.5847730827E+00
    0.2300000000E+08    0.6509974481E+00    0.1068670481E-03    0.1005034859E+00    0.2911042550E-01    0.5848522635E+00
    0.2500000000E+08    0.6509945131E+00    0.1026261403E-03    0.1004377797E+00    0.2911468547E-01    0.5849245763E+00
    0.2700000000E+08    0.6509917372E+00    0.9886124937E-04    0.1003771306E+00    0.2911861506E-01    0.5849911065E+00
