  Pressure (Pa) 22mC5-400 (mol/kg) 2mC6-400 (mol/kg) 3mC6-400 (mol/kg) 23mC5-400 (mol/kg) C7-400 (mol/kg)
    0.1000000000E+01    0.2113225933E-02    0.4748490099E-02    0.1577491720E-02    0.4638248366E-03    0.3413097899E-02
    0.3000000000E+01    0.6235681745E-02    0.1382066133E-01    0.4612450891E-02    0.1368663878E-02    0.9980719377E-02
    0.5000000000E+01    0.1022646211E-01    0.2236396446E-01    0.7497868269E-02    0.2244620850E-02    0.1622614560E-01
    0.7000000000E+01    0.1409335236E-01    0.3041944446E-01    0.1024519183E-01    0.3093403184E-02    0.2217400865E-01
    0.9000000000E+01    0.1784351634E-01    0.3802407539E-01    0.1286471457E-01    0.3916582020E-02    0.2784645729E-01
    0.1100000000E+02    0.2148355757E-01    0.4521125117E-01    0.1536571722E-01    0.4715605627E-02    0.3326346361E-01
    0.1300000000E+02    0.2501957335E-01    0.5201120690E-01    0.1775659029E-01    0.5491811257E-02    0.3844308531E-01
    0.1500000000E+02    0.2845720267E-01    0.5845138208E-01    0.2004493875E-01    0.6246435656E-02    0.4340169089E-01
    0.1700000000E+02    0.3180166879E-01    0.6455673488E-01    0.2223767241E-01    0.6980624399E-02    0.4815415361E-01
    0.1900000000E+02    0.3505781714E-01    0.7035001489E-01    0.2434108390E-01    0.7695440202E-02    0.5271401943E-01
    0.2100000000E+02    0.3823014913E-01    0.7585200077E-01    0.2636091650E-01    0.8391870340E-02    0.5709365260E-01
    0.2300000000E+02    0.4132285246E-01    0.8108170780E-01    0.2830242309E-01    0.9070833283E-02    0.6130436256E-01
    0.2500000000E+02    0.4433982813E-01    0.8605656984E-01    0.3017041778E-01    0.9733184634E-02    0.6535651476E-01
    0.2700000000E+02    0.4728471487E-01    0.9079259927E-01    0.3196932097E-01    0.1037972247E-01    0.6925962775E-01
    0.2900000000E+02    0.5016091096E-01    0.9530452785E-01    0.3370319912E-01    0.1101119214E-01    0.7302245849E-01
    0.3100000000E+02    0.5297159399E-01    0.9960593127E-01    0.3537579963E-01    0.1162829059E-01    0.7665307756E-01
    0.3300000000E+02    0.5571973868E-01    0.1037093395E+00    0.3699058182E-01    0.1223167028E-01    0.8015893557E-01
    0.3500000000E+02    0.5840813297E-01    0.1076263345E+00    0.3855074421E-01    0.1282194269E-01    0.8354692197E-01
    0.3700000000E+02    0.6103939261E-01    0.1113676378E+00    0.4005924886E-01    0.1339968157E-01    0.8682341736E-01
    0.3900000000E+02    0.6361597442E-01    0.1149431878E+00    0.4151884294E-01    0.1396542578E-01    0.8999433987E-01
    0.4100000000E+02    0.6614018833E-01    0.1183622096E+00    0.4293207807E-01    0.1451968197E-01    0.9306518675E-01
    0.4300000000E+02    0.6861420827E-01    0.1216332771E+00    0.4430132751E-01    0.1506292698E-01    0.9604107134E-01
    0.4500000000E+02    0.7104008223E-01    0.1247643689E+00    0.4562880159E-01    0.1559561002E-01    0.9892675633E-01
    0.4700000000E+02    0.7341974133E-01    0.1277629186E+00    0.4691656161E-01    0.1611815466E-01    0.1017266836E+00
    0.4900000000E+02    0.7575500816E-01    0.1306358598E+00    0.4816653225E-01    0.1663096068E-01    0.1044450008E+00
    0.1000000000E+02    0.1967690994E-01    0.4166788597E-01    0.1412948694E-01    0.4319027176E-02    0.3058572007E-01
    0.3000000000E+02    0.5157425113E-01    0.9748073877E-01    0.3454693646E-01    0.1132149599E-01    0.7485381501E-01
    0.5000000000E+02    0.7690653624E-01    0.1320272675E+00    0.4877791347E-01    0.1688383054E-01    0.1057747774E+00
    0.7000000000E+02    0.9797802487E-01    0.1546251402E+00    0.5940179390E-01    0.2151144201E-01    0.1289053074E+00
    0.9000000000E+02    0.1160879945E+00    0.1699321372E+00    0.6772203557E-01    0.2548932634E-01    0.1470554712E+00
    0.1100000000E+03    0.1320291160E+00    0.1805187630E+00    0.7447165629E-01    0.2899136333E-01    0.1618066535E+00
    0.1300000000E+03    0.1463151558E+00    0.1879103563E+00    0.8009633263E-01    0.3213025667E-01    0.1741209895E+00
    0.1500000000E+03    0.1592955039E+00    0.1930638242E+00    0.8488367717E-01    0.3498265359E-01    0.1846197907E+00
    0.1700000000E+03    0.1712172604E+00    0.1966064928E+00    0.8902824205E-01    0.3760276287E-01    0.1937236062E+00
    0.1900000000E+03    0.1822609805E+00    0.1989645670E+00    0.9266674512E-01    0.4003019552E-01    0.2017281546E+00
    0.2100000000E+03    0.1925622967E+00    0.2004362745E+00    0.9589834000E-01    0.4229470776E-01    0.2088480365E+00
    0.2300000000E+03    0.2022255515E+00    0.2012355135E+00    0.9879686908E-01    0.4441919135E-01    0.2152431680E+00
    0.2500000000E+03    0.2113326983E+00    0.2015189467E+00    0.1014185816E+00    0.4642162638E-01    0.2210354377E+00
    0.2700000000E+03    0.2199492932E+00    0.2014033913E+00    0.1038071688E+00    0.4831639551E-01    0.2263195771E+00
    0.2900000000E+03    0.2281286340E+00    0.2009773091E+00    0.1059971484E+00    0.5011519212E-01    0.2311704718E+00
    0.3100000000E+03    0.2359146870E+00    0.2003085908E+00    0.1080162009E+00    0.5182766231E-01    0.2356482081E+00
    0.3300000000E+03    0.2433441989E+00    0.1994499492E+00    0.1098868189E+00    0.5346186824E-01    0.2398016387E+00
    0.3500000000E+03    0.2504482483E+00    0.1984427281E+00    0.1116274960E+00    0.5502462856E-01    0.2436709531E+00
    0.3700000000E+03    0.2572534049E+00    0.1973196412E+00    0.1132535994E+00    0.5652177266E-01    0.2472895647E+00
    0.3900000000E+03    0.2637826073E+00    0.1961067719E+00    0.1147780204E+00    0.5795833336E-01    0.2506855190E+00
    0.4100000000E+03    0.2700558382E+00    0.1948250543E+00    0.1162116671E+00    0.5933869487E-01    0.2538825595E+00
    0.4300000000E+03    0.2760906482E+00    0.1934913854E+00    0.1175638424E+00    0.6066670792E-01    0.2569009462E+00
    0.4500000000E+03    0.2819025685E+00    0.1921194677E+00    0.1188425370E+00    0.6194578012E-01    0.2597580910E+00
    0.4700000000E+03    0.2875054380E+00    0.1907204570E+00    0.1200546603E+00    0.6317894786E-01    0.2624690566E+00
    0.4900000000E+03    0.2929116659E+00    0.1893034638E+00    0.1212062225E+00    0.6436893389E-01    0.2650469528E+00
    0.1000000000E+03    0.1242927060E+00    0.1757028893E+00    0.7126054171E-01    0.2729171906E-01    0.1547855033E+00
    0.3000000000E+03    0.2320683760E+00    0.2006696800E+00    0.1070265290E+00    0.5098168149E-01    0.2334527022E+00
    0.5000000000E+03    0.2955445794E+00    0.1885906098E+00    0.1217609622E+00    0.6494851050E-01    0.2662896420E+00
    0.7000000000E+03    0.3401150244E+00    0.1746097656E+00    0.1306640796E+00    0.7476360030E-01    0.2863149308E+00
    0.9000000000E+03    0.3732987480E+00    0.1623273456E+00    0.1369077254E+00    0.8207688767E-01    0.3004606417E+00
    0.1100000000E+04    0.3988217396E+00    0.1519960568E+00    0.1416496957E+00    0.8770622089E-01    0.3112693476E+00
    0.1300000000E+04    0.4189173798E+00    0.1433348663E+00    0.1454349160E+00    0.9214199592E-01    0.3199426365E+00
    0.1500000000E+04    0.4350428162E+00    0.1360186623E+00    0.1485611676E+00    0.9570428145E-01    0.3271394827E+00
    0.1700000000E+04    0.4481938197E+00    0.1297722370E+00    0.1512081113E+00    0.9861187844E-01    0.3332587322E+00
    0.1900000000E+04    0.4590721393E+00    0.1243792509E+00    0.1534920768E+00    0.1010190336E+00    0.3385593771E+00
    0.2100000000E+04    0.4681841298E+00    0.1196730215E+00    0.1554924879E+00    0.1030370808E+00    0.3432187063E+00
    0.2300000000E+04    0.4759024318E+00    0.1155253264E+00    0.1572658560E+00    0.1047479793E+00    0.3473631684E+00
    0.2500000000E+04    0.4825060499E+00    0.1118369449E+00    0.1588537427E+00    0.1062131127E+00    0.3510859678E+00
    0.2700000000E+04    0.4882071304E+00    0.1085304013E+00    0.1602875537E+00    0.1074791688E+00    0.3544576822E+00
    0.2900000000E+04    0.4931692552E+00    0.1055445759E+00    0.1615915642E+00    0.1085821588E+00    0.3575329717E+00
    0.3100000000E+04    0.4975201806E+00    0.1028307414E+00    0.1627849006E+00    0.1095502151E+00    0.3603549840E+00
    0.3300000000E+04    0.5013608588E+00    0.1003496454E+00    0.1638828832E+00    0.1104055746E+00    0.3629583410E+00
    0.3500000000E+04    0.5047719262E+00    0.9806935187E-01    0.1648979600E+00    0.1111660044E+00    0.3653712217E+00
    0.3700000000E+04    0.5078184349E+00    0.9596363036E-01    0.1658403726E+00    0.1118458420E+00    0.3676168479E+00
    0.3900000000E+04    0.5105533491E+00    0.9401074441E-01    0.1667186415E+00    0.1124567642E+00    0.3697145690E+00
    0.4100000000E+04    0.5130201596E+00    0.9219253051E-01    0.1675399253E+00    0.1130083622E+00    0.3716806659E+00
    0.4300000000E+04    0.5152548617E+00    0.9049369190E-01    0.1683102919E+00    0.1135085766E+00    0.3735289588E+00
    0.4500000000E+04    0.5172874666E+00    0.8890125176E-01    0.1690349256E+00    0.1139640298E+00    0.3752712723E+00
    0.4700000000E+04    0.5191431679E+00    0.8740412616E-01    0.1697182882E+00    0.1143802828E+00    0.3769177963E+00
    0.4900000000E+04    0.5208432505E+00    0.8599278749E-01    0.1703642447E+00    0.1147620354E+00    0.3784773698E+00
    0.1000000000E+04    0.3868547157E+00    0.1569319997E+00    0.1394241542E+00    0.8506623547E-01    0.3061890211E+00
    0.3000000000E+04    0.4954142663E+00    0.1041563067E+00    0.1622010325E+00    0.1090815446E+00    0.3589733017E+00
    0.5000000000E+04    0.5216406966E+00    0.8531666948E-01    0.1706742654E+00    0.1149412466E+00    0.3792269992E+00
    0.7000000000E+04    0.5326446092E+00    0.7478149258E-01    0.1755399449E+00    0.1174269117E+00    0.3910985030E+00
    0.9000000000E+04    0.5385621065E+00    0.6771816670E-01    0.1788156107E+00    0.1187791215E+00    0.3992233367E+00
    0.1100000000E+05    0.5422203072E+00    0.6251410345E-01    0.1812186578E+00    0.1196250437E+00    0.4052686451E+00
    0.1300000000E+05    0.5446919860E+00    0.5845255841E-01    0.1830800798E+00    0.1202035370E+00    0.4100106684E+00
    0.1500000000E+05    0.5464678017E+00    0.5515702034E-01    0.1845773647E+00    0.1206242610E+00    0.4138689220E+00
    0.1700000000E+05    0.5478022944E+00    0.5240689740E-01    0.1858156439E+00    0.1209443236E+00    0.4170936338E+00
    0.1900000000E+05    0.5488400791E+00    0.5006261960E-01    0.1868617875E+00    0.1211962976E+00    0.4198449759E+00
    0.2100000000E+05    0.5496691658E+00    0.4803068744E-01    0.1877606772E+00    0.1214000853E+00    0.4222310815E+00
    0.2300000000E+05    0.5503460799E+00    0.4624563556E-01    0.1885437303E+00    0.1215685204E+00    0.4243280572E+00
    0.2500000000E+05    0.5509087331E+00    0.4465998482E-01    0.1892336967E+00    0.1217102458E+00    0.4261912961E+00
    0.2700000000E+05    0.5513834754E+00    0.4323829665E-01    0.1898475160E+00    0.1218312929E+00    0.4278622441E+00
    0.2900000000E+05    0.5517891744E+00    0.4195347933E-01    0.1903980996E+00    0.1219359984E+00    0.4293726370E+00
    0.3100000000E+05    0.5521396869E+00    0.4078439875E-01    0.1908954862E+00    0.1220275603E+00    0.4307472586E+00
    0.3300000000E+05    0.5524454128E+00    0.3971427991E-01    0.1913476162E+00    0.1221083888E+00    0.4320057948E+00
    0.3500000000E+05    0.5527143066E+00    0.3872960610E-01    0.1917608642E+00    0.1221803352E+00    0.4331641141E+00
    0.3700000000E+05    0.5529525541E+00    0.3781934167E-01    0.1921404156E+00    0.1222448450E+00    0.4342351751E+00
    0.3900000000E+05    0.5531650363E+00    0.3697437121E-01    0.1924905376E+00    0.1223030635E+00    0.4352296823E+00
    0.4100000000E+05    0.5533556554E+00    0.3618708717E-01    0.1928147784E+00    0.1223559103E+00    0.4361565691E+00
    0.4300000000E+05    0.5535275675E+00    0.3545108126E-01    0.1931161159E+00    0.1224041322E+00    0.4370233596E+00
    0.4500000000E+05    0.5536833526E+00    0.3476091016E-01    0.1933970705E+00    0.1224483423E+00    0.4378364441E+00
    0.4700000000E+05    0.5538251394E+00    0.3411191508E-01    0.1936597915E+00    0.1224890486E+00    0.4386012905E+00
    0.4900000000E+05    0.5539547000E+00    0.3350008113E-01    0.1939061248E+00    0.1225266756E+00    0.4393226100E+00
    0.1000000000E+05    0.5405860168E+00    0.6494002065E-01    0.1801004008E+00    0.1192458823E+00    0.4024455405E+00
    0.3000000000E+05    0.5519706118E+00    0.4135560774E-01    0.1906529042E+00    0.1219832563E+00    0.4300755866E+00
    0.5000000000E+05    0.5540153696E+00    0.3320699323E-01    0.1940236531E+00    0.1225444485E+00    0.4396682451E+00
    0.7000000000E+05    0.5548473476E+00    0.2865132635E-01    0.1958074693E+00    0.1228013957E+00    0.4450519280E+00
    0.9000000000E+05    0.5552915480E+00    0.2562570641E-01    0.1969410143E+00    0.1229545384E+00    0.4486448567E+00
    0.1100000000E+06    0.5555644244E+00    0.2342276060E-01    0.1977354594E+00    0.1230589262E+00    0.4512744691E+00
    0.1300000000E+06    0.5557471353E+00    0.2172351864E-01    0.1983276039E+00    0.1231361066E+00    0.4533134778E+00
    0.1500000000E+06    0.5558768185E+00    0.2035967302E-01    0.1987880956E+00    0.1231963552E+00    0.4549585093E+00
    0.1700000000E+06    0.5559728134E+00    0.1923271725E-01    0.1991575098E+00    0.1232452416E+00    0.4563246884E+00
    0.1900000000E+06    0.5560461547E+00    0.1828057035E-01    0.1994609869E+00    0.1232860701E+00    0.4574846253E+00
    0.2100000000E+06    0.5561035829E+00    0.1746186779E-01    0.1997150191E+00    0.1233209372E+00    0.4584867498E+00
    0.2300000000E+06    0.5561494394E+00    0.1674782340E-01    0.1999309189E+00    0.1233512445E+00    0.4593648057E+00
    0.2500000000E+06    0.5561866414E+00    0.1611769181E-01    0.2001167294E+00    0.1233779687E+00    0.4601431439E+00
    0.2700000000E+06    0.5562172184E+00    0.1555608659E-01    0.2002783399E+00    0.1234018142E+00    0.4608398503E+00
    0.2900000000E+06    0.5562426237E+00    0.1505131814E-01    0.2004201708E+00    0.1234233031E+00    0.4614686860E+00
    0.3100000000E+06    0.5562639240E+00    0.1459432212E-01    0.2005456102E+00    0.1234428324E+00    0.4620403380E+00
    0.3300000000E+06    0.5562819185E+00    0.1417794517E-01    0.2006573021E+00    0.1234607097E+00    0.4625632531E+00
    0.3500000000E+06    0.5562972174E+00    0.1379645505E-01    0.2007573426E+00    0.1234771778E+00    0.4630442108E+00
    0.3700000000E+06    0.5563102940E+00    0.1344519626E-01    0.2008474166E+00    0.1234924312E+00    0.4634887258E+00
    0.3900000000E+06    0.5563215203E+00    0.1312034254E-01    0.2009288947E+00    0.1235066281E+00    0.4639013376E+00
    0.4100000000E+06    0.5563311928E+00    0.1281871574E-01    0.2010029046E+00    0.1235198985E+00    0.4642858230E+00
    0.4300000000E+06    0.5563395504E+00    0.1253765082E-01    0.2010703828E+00    0.1235323506E+00    0.4646453538E+00
    0.4500000000E+06    0.5563467873E+00    0.1227489378E-01    0.2011321139E+00    0.1235440750E+00    0.4649826169E+00
    0.4700000000E+06    0.5563530630E+00    0.1202852340E-01    0.2011887608E+00    0.1235551487E+00    0.4652999062E+00
    0.4900000000E+06    0.5563585097E+00    0.1179689047E-01    0.2012408874E+00    0.1235656372E+00    0.4655991936E+00
    0.1000000000E+06    0.5554427712E+00    0.2444639916E-01    0.1973698349E+00    0.1230110853E+00    0.4500508614E+00
    0.3000000000E+06    0.5562537318E+00    0.1481733385E-01    0.2004847594E+00    0.1234332918E+00    0.4617610873E+00
    0.5000000000E+06    0.5563609573E+00    0.1168614759E-01    0.2012654093E+00    0.1235706799E+00    0.4657426290E+00
    0.7000000000E+06    0.5563854721E+00    0.9982783679E-02    0.2016060275E+00    0.1236511285E+00    0.4679811881E+00
    0.9000000000E+06    0.5563874080E+00    0.8870044255E-02    0.2017842212E+00    0.1237076558E+00    0.4694836992E+00
    0.1100000000E+07    0.5563812554E+00    0.8069046336E-02    0.2018850068E+00    0.1237511213E+00    0.4705907983E+00
    0.1300000000E+07    0.5563718984E+00    0.7456418080E-02    0.2019433513E+00    0.1237863880E+00    0.4714552158E+00
    0.1500000000E+07    0.5563613037E+00    0.6967964049E-02    0.2019762665E+00    0.1238160402E+00    0.4721573890E+00
    0.1700000000E+07    0.5563503491E+00    0.6566516307E-02    0.2019929908E+00    0.1238416113E+00    0.4727444061E+00
    0.1900000000E+07    0.5563394494E+00    0.6228854008E-02    0.2019989480E+00    0.1238640841E+00    0.4732459873E+00
    0.2100000000E+07    0.5563288033E+00    0.5939616466E-02    0.2019975130E+00    0.1238841254E+00    0.4736819805E+00
    0.2300000000E+07    0.5563185032E+00    0.5688179154E-02    0.2019908827E+00    0.1239022084E+00    0.4740662376E+00
    0.2500000000E+07    0.5563085865E+00    0.5466925530E-02    0.2019805390E+00    0.1239186807E+00    0.4744087726E+00
    0.2700000000E+07    0.5562990613E+00    0.5270232514E-02    0.2019675107E+00    0.1239338052E+00    0.4747170385E+00
    0.2900000000E+07    0.5562899210E+00    0.5093845406E-02    0.2019525297E+00    0.1239477851E+00    0.4749967176E+00
    0.3100000000E+07    0.5562811508E+00    0.4934476980E-02    0.2019361265E+00    0.1239607814E+00    0.4752522325E+00
    0.3300000000E+07    0.5562727323E+00    0.4789541501E-02    0.2019186923E+00    0.1239729230E+00    0.4754870863E+00
    0.3500000000E+07    0.5562646459E+00    0.4656973045E-02    0.2019005197E+00    0.1239843153E+00    0.4757040969E+00
    0.3700000000E+07    0.5562568716E+00    0.4535098261E-02    0.2018818295E+00    0.1239950453E+00    0.4759055617E+00
    0.3900000000E+07    0.5562493901E+00    0.4422545262E-02    0.2018627907E+00    0.1240051857E+00    0.4760933757E+00
    0.4100000000E+07    0.5562421832E+00    0.4318177120E-02    0.2018435331E+00    0.1240147978E+00    0.4762691193E+00
    0.4300000000E+07    0.5562352336E+00    0.4221042473E-02    0.2018241570E+00    0.1240239340E+00    0.4764341224E+00
    0.4500000000E+07    0.5562285254E+00    0.4130338262E-02    0.2018047407E+00    0.1240326390E+00    0.4765895143E+00
    0.4700000000E+07    0.5562220437E+00    0.4045381233E-02    0.2017853450E+00    0.1240409518E+00    0.4767362608E+00
    0.4900000000E+07    0.5562157747E+00    0.3965585871E-02    0.2017660175E+00    0.1240489061E+00    0.4768751943E+00
    0.1000000000E+07    0.5563849317E+00    0.8440288817E-02    0.2018414857E+00    0.1237306405E+00    0.4700746947E+00
    0.3000000000E+07    0.5562854907E+00    0.5012209456E-02    0.2019444787E+00    0.1239543975E+00    0.4751272582E+00
    0.5000000000E+07    0.5562127160E+00    0.3927463231E-02    0.2017563912E+00    0.1240527582E+00    0.4769419605E+00
    0.7000000000E+07    0.5561601223E+00    0.3343295140E-02    0.2015729612E+00    0.1241165723E+00    0.4780008100E+00
    0.9000000000E+07    0.5561191638E+00    0.2963897823E-02    0.2014101436E+00    0.1241638925E+00    0.4787320968E+00
    0.1100000000E+08    0.5560856636E+00    0.2691862965E-02    0.2012661945E+00    0.1242015177E+00    0.4792836639E+00
    0.1300000000E+08    0.5560573342E+00    0.2484402772E-02    0.2011378237E+00    0.1242327534E+00    0.4797229335E+00
    0.1500000000E+08    0.5560327963E+00    0.2319363573E-02    0.2010221861E+00    0.1242594585E+00    0.4800859412E+00
    0.1700000000E+08    0.5560111559E+00    0.2183967154E-02    0.2009170471E+00    0.1242827827E+00    0.4803940610E+00
    0.1900000000E+08    0.5559918014E+00    0.2070254172E-02    0.2008206754E+00    0.1243034870E+00    0.4806609436E+00
    0.2100000000E+08    0.5559742962E+00    0.1972972439E-02    0.2007317200E+00    0.1243221013E+00    0.4808958042E+00
    0.2300000000E+08    0.5559583177E+00    0.1888496688E-02    0.2006491134E+00    0.1243390092E+00    0.4811051384E+00
    0.2500000000E+08    0.5559436209E+00    0.1814232635E-02    0.2005720004E+00    0.1243544977E+00    0.4812936855E+00
    0.2700000000E+08    0.5559300154E+00    0.1748267946E-02    0.2004996864E+00    0.1243687869E+00    0.4814650033E+00
