  Pressure (Pa) 22mC5-400 (mol/kg) 2mC6-400 (mol/kg) 3mC6-400 (mol/kg) 23mC5-400 (mol/kg) C7-400 (mol/kg)
    0.1000000000E+01    0.2119718821E-02    0.1572714743E-02    0.5208230631E-03    0.4652492758E-03    0.1352306912E-01
    0.3000000000E+01    0.6292053926E-02    0.4522892010E-02    0.1495398101E-02    0.1381031169E-02    0.3883589056E-01
    0.5000000000E+01    0.1037761611E-01    0.7238753990E-02    0.2389837031E-02    0.2277782270E-02    0.6207739032E-01
    0.7000000000E+01    0.1437950373E-01    0.9747173879E-02    0.3213729131E-02    0.3156181979E-02    0.8349503694E-01
    0.9000000000E+01    0.1830066574E-01    0.1207091846E-01    0.3975188532E-02    0.4016876940E-02    0.1032982599E+00
    0.1100000000E+02    0.2214391055E-01    0.1422941374E-01    0.4681127559E-02    0.4860482982E-02    0.1216654951E+00
    0.1300000000E+02    0.2591191427E-01    0.1623934497E-01    0.5337471464E-02    0.5687586930E-02    0.1387497194E+00
    0.1500000000E+02    0.2960722845E-01    0.1811513153E-01    0.5949328695E-02    0.6498748290E-02    0.1546828408E+00
    0.1700000000E+02    0.3323228716E-01    0.1986930591E-01    0.6521127085E-02    0.7294500814E-02    0.1695792085E+00
    0.1900000000E+02    0.3678941369E-01    0.2151281872E-01    0.7056723672E-02    0.8075353968E-02    0.1835384453E+00
    0.2100000000E+02    0.4028082681E-01    0.2305528613E-01    0.7559493903E-02    0.8841794291E-02    0.1966477474E+00
    0.2300000000E+02    0.4370864650E-01    0.2450519182E-01    0.8032404619E-02    0.9594286672E-02    0.2089837665E+00
    0.2500000000E+02    0.4707489945E-01    0.2587005319E-01    0.8478074148E-02    0.1033327554E-01    0.2206141595E+00
    0.2700000000E+02    0.5038152412E-01    0.2715655876E-01    0.8898822090E-02    0.1105918598E-01    0.2315988730E+00
    0.2900000000E+02    0.5363037548E-01    0.2837068259E-01    0.9296710806E-02    0.1177242475E-01    0.2419912130E+00
    0.3100000000E+02    0.5682322945E-01    0.2951778007E-01    0.9673580166E-02    0.1247338132E-01    0.2518387414E+00
    0.3300000000E+02    0.5996178709E-01    0.3060266844E-01    0.1003107682E-01    0.1316242871E-01    0.2611840316E+00
    0.3500000000E+02    0.6304767851E-01    0.3162969495E-01    0.1037067896E-01    0.1383992439E-01    0.2700653065E+00
    0.3700000000E+02    0.6608246652E-01    0.3260279474E-01    0.1069371735E-01    0.1450621107E-01    0.2785169822E+00
    0.3900000000E+02    0.6906765007E-01    0.3352554025E-01    0.1100139332E-01    0.1516161747E-01    0.2865701314E+00
    0.4100000000E+02    0.7200466753E-01    0.3440118355E-01    0.1129479414E-01    0.1580645902E-01    0.2942528807E+00
    0.4300000000E+02    0.7489489967E-01    0.3523269279E-01    0.1157490628E-01    0.1644103851E-01    0.3015907528E+00
    0.4500000000E+02    0.7773967256E-01    0.3602278370E-01    0.1184262685E-01    0.1706564675E-01    0.3086069614E+00
    0.4700000000E+02    0.8054026025E-01    0.3677394685E-01    0.1209877352E-01    0.1768056315E-01    0.3153226679E+00
    0.4900000000E+02    0.8329788731E-01    0.3748847144E-01    0.1234409313E-01    0.1828605624E-01    0.3217572035E+00
    0.1000000000E+02    0.2023185753E-01    0.1316972129E-01    0.4334706813E-02    0.4440778740E-02    0.1126512745E+00
    0.3000000000E+02    0.5523369411E-01    0.2895229679E-01    0.9487665771E-02    0.1212441463E-01    0.2469803089E+00
    0.5000000000E+02    0.8466096035E-01    0.3783265975E-01    0.1246290869E-01    0.1858535013E-01    0.3248746211E+00
    0.7000000000E+02    0.1099306599E+00    0.4322639458E-01    0.1440942915E-01    0.2413432857E-01    0.3760512928E+00
    0.9000000000E+02    0.1320010290E+00    0.4659032951E-01    0.1578690137E-01    0.2898149638E-01    0.4124168114E+00
    0.1100000000E+03    0.1515440754E+00    0.4867096351E-01    0.1681570608E-01    0.3327423412E-01    0.4396878078E+00
    0.1300000000E+03    0.1690458143E+00    0.4989690831E-01    0.1761494555E-01    0.3711913531E-01    0.4609582234E+00
    0.1500000000E+03    0.1848671668E+00    0.5053364784E-01    0.1825474396E-01    0.4059536018E-01    0.4780522907E+00
    0.1700000000E+03    0.1992823923E+00    0.5075464701E-01    0.1877913859E-01    0.4376306339E-01    0.4921172345E+00
    0.1900000000E+03    0.2125041485E+00    0.5067778657E-01    0.1921721324E-01    0.4666888945E-01    0.5039117892E+00
    0.2100000000E+03    0.2247003032E+00    0.5038560104E-01    0.1958896915E-01    0.4934965959E-01    0.5139584756E+00
    0.2300000000E+03    0.2360054978E+00    0.4993723505E-01    0.1990862645E-01    0.5183490776E-01    0.5226293018E+00
    0.2500000000E+03    0.2465292795E+00    0.4937585718E-01    0.2018658010E-01    0.5414866397E-01    0.5301965830E+00
    0.2700000000E+03    0.2563619336E+00    0.4873343926E-01    0.2043061038E-01    0.5631073353E-01    0.5368644172E+00
    0.2900000000E+03    0.2655787426E+00    0.4803393707E-01    0.2064665988E-01    0.5833763104E-01    0.5427889076E+00
    0.3100000000E+03    0.2742431452E+00    0.4729546409E-01    0.2083934828E-01    0.6024327339E-01    0.5480915715E+00
    0.3300000000E+03    0.2824091160E+00    0.4653181096E-01    0.2101232283E-01    0.6203950156E-01    0.5528684755E+00
    0.3500000000E+03    0.2901229810E+00    0.4575352820E-01    0.2116850261E-01    0.6373647881E-01    0.5571966105E+00
    0.3700000000E+03    0.2974248195E+00    0.4496871078E-01    0.2131025255E-01    0.6534299828E-01    0.5611384349E+00
    0.3900000000E+03    0.3043495611E+00    0.4418357501E-01    0.2143950965E-01    0.6686672346E-01    0.5647451722E+00
    0.4100000000E+03    0.3109278504E+00    0.4340288816E-01    0.2155787605E-01    0.6831437799E-01    0.5680592474E+00
    0.4300000000E+03    0.3171867380E+00    0.4263029214E-01    0.2166668878E-01    0.6969189708E-01    0.5711161116E+00
    0.4500000000E+03    0.3231502360E+00    0.4186854979E-01    0.2176707273E-01    0.7100454947E-01    0.5739456296E+00
    0.4700000000E+03    0.3288397692E+00    0.4111973398E-01    0.2185998131E-01    0.7225703632E-01    0.5765731471E+00
    0.4900000000E+03    0.3342745445E+00    0.4038537395E-01    0.2194622815E-01    0.7345357229E-01    0.5790203209E+00
    0.1000000000E+03    0.1420545858E+00    0.4775923578E-01    0.1633589624E-01    0.3118973809E-01    0.4269556651E+00
    0.3000000000E+03    0.2699764230E+00    0.4766862311E-01    0.2074567675E-01    0.5930482557E-01    0.5455114527E+00
    0.5000000000E+03    0.3369018697E+00    0.4002397273E-01    0.2198707567E-01    0.7403205942E-01    0.5801822016E+00
    0.7000000000E+03    0.3794960306E+00    0.3367734158E-01    0.2258130497E-01    0.8341546489E-01    0.5973452640E+00
    0.9000000000E+03    0.4090489483E+00    0.2887664802E-01    0.2293108963E-01    0.8993290748E-01    0.6077712831E+00
    0.1100000000E+04    0.4306709711E+00    0.2524245089E-01    0.2316156625E-01    0.9470643267E-01    0.6148520519E+00
    0.1300000000E+04    0.4471042049E+00    0.2244164554E-01    0.2332467487E-01    0.9833835557E-01    0.6200128509E+00
    0.1500000000E+04    0.4599670483E+00    0.2023791827E-01    0.2344595198E-01    0.1011843083E+00    0.6239626262E+00
    0.1700000000E+04    0.4702770867E+00    0.1846916989E-01    0.2353945021E-01    0.1034679866E+00    0.6270958769E+00
    0.1900000000E+04    0.4787048657E+00    0.1702367023E-01    0.2361355419E-01    0.1053368535E+00    0.6296505275E+00
    0.2100000000E+04    0.4857089656E+00    0.1582317022E-01    0.2367358171E-01    0.1068917964E+00    0.6317790619E+00
    0.2300000000E+04    0.4916127550E+00    0.1481182080E-01    0.2372307071E-01    0.1082039831E+00    0.6335839685E+00
    0.2500000000E+04    0.4966502379E+00    0.1394899137E-01    0.2376446744E-01    0.1093249332E+00    0.6351368235E+00
    0.2700000000E+04    0.5009945663E+00    0.1320457935E-01    0.2379951782E-01    0.1102927831E+00    0.6364892162E+00
    0.2900000000E+04    0.5047763792E+00    0.1255590075E-01    0.2382950144E-01    0.1111363167E+00    0.6376793255E+00
    0.3100000000E+04    0.5080959419E+00    0.1198559274E-01    0.2385537758E-01    0.1118776340E+00    0.6387360486E+00
    0.3300000000E+04    0.5110313872E+00    0.1148017376E-01    0.2387787949E-01    0.1125339631E+00    0.6396816843E+00
    0.3500000000E+04    0.5136444341E+00    0.1102903762E-01    0.2389757724E-01    0.1131189181E+00    0.6405337319E+00
    0.3700000000E+04    0.5159844359E+00    0.1062373941E-01    0.2391492063E-01    0.1136433896E+00    0.6413061288E+00
    0.3900000000E+04    0.5180912968E+00    0.1025748050E-01    0.2393026930E-01    0.1141161865E+00    0.6420101218E+00
    0.4100000000E+04    0.5199976066E+00    0.9924731937E-02    0.2394391417E-01    0.1145445057E+00    0.6426548927E+00
    0.4300000000E+04    0.5217302269E+00    0.9620955122E-02    0.2395609309E-01    0.1149342817E+00    0.6432480170E+00
    0.4500000000E+04    0.5233114843E+00    0.9342392233E-02    0.2396700233E-01    0.1152904486E+00    0.6437958032E+00
    0.4700000000E+04    0.5247600801E+00    0.9085907021E-02    0.2397680529E-01    0.1156171413E+00    0.6443035509E+00
    0.4900000000E+04    0.5260917907E+00    0.8848862595E-02    0.2398563904E-01    0.1159178492E+00    0.6447757465E+00
    0.1000000000E+04    0.4206444308E+00    0.2693696160E-01    0.2305708655E-01    0.9249222081E-01    0.6116161727E+00
    0.3000000000E+04    0.5064886167E+00    0.1226187049E-01    0.2384290267E-01    0.1115185784E+00    0.6382228365E+00
    0.5000000000E+04    0.5267180812E+00    0.8736919426E-02    0.2398972938E-01    0.1160594029E+00    0.6449997299E+00
    0.7000000000E+04    0.5354963350E+00    0.7122407296E-02    0.2404115745E-01    0.1180552500E+00    0.6483012581E+00
    0.9000000000E+04    0.5403611838E+00    0.6166459464E-02    0.2406194000E-01    0.1191756796E+00    0.6503138293E+00
    0.1100000000E+05    0.5434414624E+00    0.5519561586E-02    0.2406970029E-01    0.1198942997E+00    0.6516932238E+00
    0.1300000000E+05    0.5455626918E+00    0.5045014263E-02    0.2407105322E-01    0.1203955714E+00    0.6527097096E+00
    0.1500000000E+05    0.5471104324E+00    0.4677735515E-02    0.2406897106E-01    0.1207660239E+00    0.6534966373E+00
    0.1700000000E+05    0.5482884567E+00    0.4382467519E-02    0.2406495314E-01    0.1210515890E+00    0.6541280210E+00
    0.1900000000E+05    0.5492144308E+00    0.4138282951E-02    0.2405981876E-01    0.1212789054E+00    0.6546485200E+00
    0.2100000000E+05    0.5499609856E+00    0.3931887379E-02    0.2405404221E-01    0.1214644879E+00    0.6550868205E+00
    0.2300000000E+05    0.5505753515E+00    0.3754380618E-02    0.2404790991E-01    0.1216191229E+00    0.6554622677E+00
    0.2500000000E+05    0.5510895548E+00    0.3599550748E-02    0.2404160024E-01    0.1217501563E+00    0.6557884262E+00
    0.2700000000E+05    0.5515260721E+00    0.3462912696E-02    0.2403522670E-01    0.1218627661E+00    0.6560751162E+00
    0.2900000000E+05    0.5519011382E+00    0.3341135951E-02    0.2402886249E-01    0.1219607086E+00    0.6563296393E+00
    0.3100000000E+05    0.5522267695E+00    0.3231688177E-02    0.2402255506E-01    0.1220467763E+00    0.6565575487E+00
    0.3300000000E+05    0.5525120490E+00    0.3132604685E-02    0.2401633499E-01    0.1221230890E+00    0.6567631504E+00
    0.3500000000E+05    0.5527639682E+00    0.3042334413E-02    0.2401022168E-01    0.1221912855E+00    0.6569498403E+00
    0.3700000000E+05    0.5529879962E+00    0.2959634111E-02    0.2400422698E-01    0.1222526534E+00    0.6571203365E+00
    0.3900000000E+05    0.5531884719E+00    0.2883493870E-02    0.2399835758E-01    0.1223082184E+00    0.6572768426E+00
    0.4100000000E+05    0.5533688810E+00    0.2813083559E-02    0.2399261665E-01    0.1223588083E+00    0.6574211667E+00
    0.4300000000E+05    0.5535320560E+00    0.2747713586E-02    0.2398700494E-01    0.1224050984E+00    0.6575548072E+00
    0.4500000000E+05    0.5536803217E+00    0.2686805650E-02    0.2398152154E-01    0.1224476456E+00    0.6576790179E+00
    0.4700000000E+05    0.5538156045E+00    0.2629870618E-02    0.2397616441E-01    0.1224869132E+00    0.6577948569E+00
    0.4900000000E+05    0.5539395134E+00    0.2576491550E-02    0.2397093077E-01    0.1225232898E+00    0.6579032239E+00
    0.1000000000E+05    0.5420573623E+00    0.5815432451E-02    0.2406690583E-01    0.1195702547E+00    0.6510610582E+00
    0.3000000000E+05    0.5520695083E+00    0.3285004946E-02    0.2402569945E-01    0.1220050812E+00    0.6564466269E+00
    0.5000000000E+05    0.5539976346E+00    0.2551021646E-02    0.2396835926E-01    0.1225404987E+00    0.6579548505E+00
    0.7000000000E+05    0.5548015721E+00    0.2163106619E-02    0.2392253209E-01    0.1227912331E+00    0.6587348307E+00
    0.9000000000E+05    0.5552369291E+00    0.1913242129E-02    0.2388509795E-01    0.1229424076E+00    0.6592314960E+00
    0.1100000000E+06    0.5555070624E+00    0.1734924092E-02    0.2385357247E-01    0.1230461783E+00    0.6595838153E+00
    0.1300000000E+06    0.5556893689E+00    0.1599350733E-02    0.2382636915E-01    0.1231232604E+00    0.6598509162E+00
    0.1500000000E+06    0.5558196320E+00    0.1491734261E-02    0.2380245038E-01    0.1231836299E+00    0.6600627517E+00
    0.1700000000E+06    0.5559166310E+00    0.1403592425E-02    0.2378110798E-01    0.1232327320E+00    0.6602363256E+00
    0.1900000000E+06    0.5559911473E+00    0.1329662728E-02    0.2376183920E-01    0.1232738148E+00    0.6603821019E+00
    0.2100000000E+06    0.5560498004E+00    0.1266482939E-02    0.2374427493E-01    0.1233089478E+00    0.6605069206E+00
    0.2300000000E+06    0.5560968723E+00    0.1211668870E-02    0.2372813647E-01    0.1233395195E+00    0.6606154675E+00
    0.2500000000E+06    0.5561352515E+00    0.1163517578E-02    0.2371320832E-01    0.1233665000E+00    0.6607110757E+00
    0.2700000000E+06    0.5561669544E+00    0.1120775718E-02    0.2369932044E-01    0.1233905908E+00    0.6607961898E+00
    0.2900000000E+06    0.5561934291E+00    0.1082497475E-02    0.2368633635E-01    0.1234123129E+00    0.6608726495E+00
    0.3100000000E+06    0.5562157418E+00    0.1047953800E-02    0.2367414481E-01    0.1234320629E+00    0.6609418700E+00
    0.3300000000E+06    0.5562346932E+00    0.1016572402E-02    0.2366265398E-01    0.1234501488E+00    0.6610049600E+00
    0.3500000000E+06    0.5562508963E+00    0.9878968751E-03    0.2365178715E-01    0.1234668141E+00    0.6610628025E+00
    0.3700000000E+06    0.5562648274E+00    0.9615581484E-03    0.2364147958E-01    0.1234822539E+00    0.6611161109E+00
    0.3900000000E+06    0.5562768622E+00    0.9372540943E-03    0.2363167615E-01    0.1234966271E+00    0.6611654684E+00
    0.4100000000E+06    0.5562873003E+00    0.9147346701E-03    0.2362232951E-01    0.1235100645E+00    0.6612113577E+00
    0.4300000000E+06    0.5562963837E+00    0.8937909044E-03    0.2361339871E-01    0.1235226749E+00    0.6612541818E+00
    0.4500000000E+06    0.5563043096E+00    0.8742466046E-03    0.2360484810E-01    0.1235345496E+00    0.6612942805E+00
    0.4700000000E+06    0.5563112404E+00    0.8559520231E-03    0.2359664641E-01    0.1235457661E+00    0.6613319427E+00
    0.4900000000E+06    0.5563173106E+00    0.8387789598E-03    0.2358876612E-01    0.1235563905E+00    0.6613674156E+00
    0.1000000000E+06    0.5553863445E+00    0.1817416620E-02    0.2386871213E-01    0.1229985492E+00    0.6594210058E+00
    0.3000000000E+06    0.5562050505E+00    0.1064797707E-02    0.2368014765E-01    0.1234224134E+00    0.6609080893E+00
    0.5000000000E+06    0.5563200588E+00    0.8305778661E-03    0.2358493877E-01    0.1235614988E+00    0.6613843987E+00
    0.7000000000E+06    0.5563493917E+00    0.7051874986E-03    0.2352057763E-01    0.1236429967E+00    0.6616482018E+00
    0.9000000000E+06    0.5563546523E+00    0.6240337258E-03    0.2347184380E-01    0.1237002467E+00    0.6618243138E+00
    0.1100000000E+07    0.5563509708E+00    0.5659853322E-03    0.2343259290E-01    0.1237442482E+00    0.6619538590E+00
    0.1300000000E+07    0.5563435459E+00    0.5217969569E-03    0.2339972006E-01    0.1237799331E+00    0.6620550119E+00
    0.1500000000E+07    0.5563345172E+00    0.4866951711E-03    0.2337143484E-01    0.1238099237E+00    0.6621372577E+00
    0.1700000000E+07    0.5563248667E+00    0.4579325732E-03    0.2334660969E-01    0.1238357759E+00    0.6622061154E+00
    0.1900000000E+07    0.5563150758E+00    0.4338008036E-03    0.2332448811E-01    0.1238584871E+00    0.6622650538E+00
    0.2100000000E+07    0.5563053884E+00    0.4131741703E-03    0.2330453774E-01    0.1238787342E+00    0.6623163824E+00
    0.2300000000E+07    0.5562959285E+00    0.3952766250E-03    0.2328636963E-01    0.1238969972E+00    0.6623617097E+00
    0.2500000000E+07    0.5562867564E+00    0.3795534068E-03    0.2326969091E-01    0.1239136288E+00    0.6624021967E+00
    0.2700000000E+07    0.5562778975E+00    0.3655959639E-03    0.2325427553E-01    0.1239288954E+00    0.6624387066E+00
    0.2900000000E+07    0.5562693581E+00    0.3530958428E-03    0.2323994534E-01    0.1239430033E+00    0.6624718970E+00
    0.3100000000E+07    0.5562611339E+00    0.3418151949E-03    0.2322655743E-01    0.1239561156E+00    0.6625022796E+00
    0.3300000000E+07    0.5562532144E+00    0.3315672581E-03    0.2321399542E-01    0.1239683631E+00    0.6625302596E+00
    0.3500000000E+07    0.5562455865E+00    0.3222030544E-03    0.2320216325E-01    0.1239798525E+00    0.6625561629E+00
    0.3700000000E+07    0.5562382355E+00    0.3136020910E-03    0.2319098072E-01    0.1239906720E+00    0.6625802552E+00
    0.3900000000E+07    0.5562311467E+00    0.3056657159E-03    0.2318038017E-01    0.1240008952E+00    0.6626027559E+00
    0.4100000000E+07    0.5562243052E+00    0.2983122742E-03    0.2317030400E-01    0.1240105843E+00    0.6626238477E+00
    0.4300000000E+07    0.5562176969E+00    0.2914735173E-03    0.2316070276E-01    0.1240197922E+00    0.6626436846E+00
    0.4500000000E+07    0.5562113085E+00    0.2850918971E-03    0.2315153369E-01    0.1240285644E+00    0.6626623976E+00
    0.4700000000E+07    0.5562051273E+00    0.2791185003E-03    0.2314275956E-01    0.1240369401E+00    0.6626800984E+00
    0.4900000000E+07    0.5561991416E+00    0.2735114497E-03    0.2313434775E-01    0.1240449536E+00    0.6626968836E+00
    0.1000000000E+07    0.5563534939E+00    0.5928508571E-03    0.2345126974E-01    0.1237235174E+00    0.6618934774E+00
    0.3000000000E+07    0.5562652072E+00    0.3473157750E-03    0.2323314141E-01    0.1239496751E+00    0.6624874119E+00
    0.5000000000E+07    0.5561962185E+00    0.2708338280E-03    0.2313026861E-01    0.1240488341E+00    0.6627049594E+00
    0.7000000000E+07    0.5561457291E+00    0.2298998894E-03    0.2306223568E-01    0.1241130840E+00    0.6628339365E+00
    0.9000000000E+07    0.5561061668E+00    0.2034137046E-03    0.2301132871E-01    0.1241606887E+00    0.6629241294E+00
    0.1100000000E+08    0.5560736843E+00    0.1844722345E-03    0.2297064130E-01    0.1241985179E+00    0.6629928466E+00
    0.1300000000E+08    0.5560461414E+00    0.1700556854E-03    0.2293675180E-01    0.1242299089E+00    0.6630480365E+00
    0.1500000000E+08    0.5560222362E+00    0.1586051738E-03    0.2290771296E-01    0.1242567372E+00    0.6630939751E+00
    0.1700000000E+08    0.5560011200E+00    0.1492236026E-03    0.2288231026E-01    0.1242801620E+00    0.6631332131E+00
    0.1900000000E+08    0.5559822096E+00    0.1413532244E-03    0.2285973490E-01    0.1243009503E+00    0.6631673886E+00
    0.2100000000E+08    0.5559650873E+00    0.1346265668E-03    0.2283942107E-01    0.1243196359E+00    0.6631976127E+00
    0.2300000000E+08    0.5559494435E+00    0.1287903230E-03    0.2282095741E-01    0.1243366054E+00    0.6632246723E+00
    0.2500000000E+08    0.5559350429E+00    0.1236634332E-03    0.2280403548E-01    0.1243521477E+00    0.6632491439E+00
    0.2700000000E+08    0.5559217020E+00    0.1191125685E-03    0.2278841803E-01    0.1243664842E+00    0.6632714618E+00
