  Pressure (Pa) 22mC5-400 (mol/kg) 2mC6-400 (mol/kg) 3mC6-400 (mol/kg) 23mC5-400 (mol/kg) C7-400 (mol/kg)
    0.1000000000E+01    0.2111610283E-02    0.5544964897E-02    0.1579925546E-02    0.4634703879E-03    0.1709167236E-02
    0.3000000000E+01    0.6221791802E-02    0.1616745090E-01    0.4633322739E-02    0.1365616607E-02    0.5012814575E-02
    0.5000000000E+01    0.1018956767E-01    0.2620606484E-01    0.7553185466E-02    0.2236526618E-02    0.8172588589E-02
    0.7000000000E+01    0.1402413546E-01    0.3570407191E-01    0.1034876833E-01    0.3078217617E-02    0.1119844790E-01
    0.9000000000E+01    0.1773389132E-01    0.4470064854E-01    0.1302847573E-01    0.3892531051E-02    0.1409943686E-01
    0.1100000000E+02    0.2132651602E-01    0.5323134982E-01    0.1559995790E-01    0.4681151484E-02    0.1688378878E-01
    0.1300000000E+02    0.2480905018E-01    0.6132851471E-01    0.1807019413E-01    0.5445623091E-02    0.1955901539E-01
    0.1500000000E+02    0.2818796011E-01    0.6902161821E-01    0.2044556521E-01    0.6187364100E-02    0.2213198470E-01
    0.1700000000E+02    0.3146919570E-01    0.7633757854E-01    0.2273191666E-01    0.6907679484E-02    0.2460898899E-01
    0.1900000000E+02    0.3465824145E-01    0.8330102587E-01    0.2493461406E-01    0.7607772153E-02    0.2699580431E-01
    0.2100000000E+02    0.3776016151E-01    0.8993453800E-01    0.2705859166E-01    0.8288752826E-02    0.2929774271E-01
    0.2300000000E+02    0.4077963956E-01    0.9625884764E-01    0.2910839517E-01    0.8951648790E-02    0.3151969829E-01
    0.2500000000E+02    0.4372101430E-01    0.1022930253E+00    0.3108821957E-01    0.9597411665E-02    0.3366618777E-01
    0.2700000000E+02    0.4658831093E-01    0.1080546409E+00    0.3300194251E-01    0.1022692432E-01    0.3574138653E-01
    0.2900000000E+02    0.4938526929E-01    0.1135599070E+00    0.3485315402E-01    0.1084100704E-01    0.3774916045E-01
    0.3100000000E+02    0.5211536901E-01    0.1188238061E+00    0.3664518288E-01    0.1144042303E-01    0.3969309432E-01
    0.3300000000E+02    0.5478185198E-01    0.1238602037E+00    0.3838112016E-01    0.1202588338E-01    0.4157651715E-01
    0.3500000000E+02    0.5738774259E-01    0.1286819499E+00    0.4006384026E-01    0.1259805145E-01    0.4340252479E-01
    0.3700000000E+02    0.5993586591E-01    0.1333009689E+00    0.4169601971E-01    0.1315754691E-01    0.4517400014E-01
    0.3900000000E+02    0.6242886402E-01    0.1377283409E+00    0.4328015404E-01    0.1370494927E-01    0.4689363134E-01
    0.4100000000E+02    0.6486921082E-01    0.1419743739E+00    0.4481857302E-01    0.1424080118E-01    0.4856392809E-01
    0.4300000000E+02    0.6725922537E-01    0.1460486695E+00    0.4631345425E-01    0.1476561131E-01    0.5018723636E-01
    0.4500000000E+02    0.6960108401E-01    0.1499601817E+00    0.4776683557E-01    0.1527985703E-01    0.5176575163E-01
    0.4700000000E+02    0.7189683130E-01    0.1537172697E+00    0.4918062615E-01    0.1578398682E-01    0.5330153092E-01
    0.4900000000E+02    0.7414839002E-01    0.1573277463E+00    0.5055661663E-01    0.1627842243E-01    0.5479650362E-01
    0.1000000000E+02    0.1954439084E-01    0.4902214140E-01    0.1432729393E-01    0.4289953270E-02    0.1550570702E-01
    0.3000000000E+02    0.5075846854E-01    0.1162211359E+00    0.3575636778E-01    0.1114250276E-01    0.3872889361E-01
    0.5000000000E+02    0.7525816848E-01    0.1590803080E+00    0.5123096625E-01    0.1652212992E-01    0.5552925798E-01
    0.7000000000E+02    0.9552172972E-01    0.1879803740E+00    0.6309177706E-01    0.2097242118E-01    0.6842816619E-01
    0.9000000000E+02    0.1128968420E+00    0.2082181435E+00    0.7257701333E-01    0.2478900074E-01    0.7876022653E-01
    0.1100000000E+03    0.1281848119E+00    0.2227615641E+00    0.8040650966E-01    0.2814764845E-01    0.8730176657E-01
    0.1300000000E+03    0.1418952099E+00    0.2333938502E+00    0.8702915737E-01    0.3116015133E-01    0.9453717965E-01
    0.1500000000E+03    0.1543695843E+00    0.2412459408E+00    0.9274051207E-01    0.3390143895E-01    0.1007855707E+00
    0.1700000000E+03    0.1658467720E+00    0.2470667225E+00    0.9774379066E-01    0.3642390920E-01    0.1062664652E+00
    0.1900000000E+03    0.1764997255E+00    0.2513698692E+00    0.1021837560E+00    0.3876550650E-01    0.1111363251E+00
    0.2100000000E+03    0.1864574212E+00    0.2545181790E+00    0.1061666160E+00    0.4095452775E-01    0.1155099996E+00
    0.2300000000E+03    0.1958184865E+00    0.2567742867E+00    0.1097722579E+00    0.4301261160E-01    0.1194739194E+00
    0.2500000000E+03    0.2046599985E+00    0.2583323588E+00    0.1130620685E+00    0.4495666882E-01    0.1230945312E+00
    0.2700000000E+03    0.2130433519E+00    0.2593385674E+00    0.1160840983E+00    0.4680016952E-01    0.1264238717E+00
    0.2900000000E+03    0.2210182816E+00    0.2599046979E+00    0.1188765720E+00    0.4855402565E-01    0.1295033560E+00
    0.3100000000E+03    0.2286256879E+00    0.2601174215E+00    0.1214703343E+00    0.5022721086E-01    0.1323664189E+00
    0.3300000000E+03    0.2358996637E+00    0.2600447546E+00    0.1238905919E+00    0.5182720525E-01    0.1350403960E+00
    0.3500000000E+03    0.2428689770E+00    0.2597406455E+00    0.1261581784E+00    0.5336032063E-01    0.1375478909E+00
    0.3700000000E+03    0.2495581737E+00    0.2592482903E+00    0.1282904888E+00    0.5483194243E-01    0.1399077846E+00
    0.3900000000E+03    0.2559884094E+00    0.2586025663E+00    0.1303021814E+00    0.5624671229E-01    0.1421359948E+00
    0.4100000000E+03    0.2621780876E+00    0.2578318441E+00    0.1322057120E+00    0.5760866800E-01    0.1442460530E+00
    0.4300000000E+03    0.2681433531E+00    0.2569593548E+00    0.1340117452E+00    0.5892135181E-01    0.1462495497E+00
    0.4500000000E+03    0.2738984797E+00    0.2560042324E+00    0.1357294762E+00    0.6018789547E-01    0.1481564829E+00
    0.4700000000E+03    0.2794561771E+00    0.2549823183E+00    0.1373668838E+00    0.6141108758E-01    0.1499755313E+00
    0.4900000000E+03    0.2848278365E+00    0.2539067879E+00    0.1389309325E+00    0.6259342747E-01    0.1517142734E+00
    0.1000000000E+03    0.1207648781E+00    0.2160704627E+00    0.7666608608E-01    0.2651748401E-01    0.8321959310E-01
    0.3000000000E+03    0.2248656544E+00    0.2600506085E+00    0.1201966012E+00    0.4940020390E-01    0.1309601068E+00
    0.5000000000E+03    0.2874471508E+00    0.2533524282E+00    0.1396873869E+00    0.6316999064E-01    0.1525556410E+00
    0.7000000000E+03    0.3321190533E+00    0.2413313927E+00    0.1521201671E+00    0.7300688936E-01    0.1664252267E+00
    0.9000000000E+03    0.3658002017E+00    0.2296900277E+00    0.1612139643E+00    0.8042908239E-01    0.1766221837E+00
    0.1100000000E+04    0.3919573376E+00    0.2193974265E+00    0.1683646393E+00    0.8619746657E-01    0.1846735735E+00
    0.1300000000E+04    0.4127051236E+00    0.2104764667E+00    0.1742441141E+00    0.9077633614E-01    0.1913167885E+00
    0.1500000000E+04    0.4294480380E+00    0.2027472877E+00    0.1792269863E+00    0.9447416637E-01    0.1969640391E+00
    0.1700000000E+04    0.4431612723E+00    0.1960094222E+00    0.1835434582E+00    0.9750521837E-01    0.2018692421E+00
    0.1900000000E+04    0.4545414629E+00    0.1900869351E+00    0.1873451650E+00    0.1000226014E+00    0.2062000052E+00
    0.2100000000E+04    0.4640970046E+00    0.1848357330E+00    0.1907373183E+00    0.1021380872E+00    0.2100728422E+00
    0.2300000000E+04    0.4722055701E+00    0.1801404930E+00    0.1937959262E+00    0.1039347330E+00    0.2135720708E+00
    0.2500000000E+04    0.4791521379E+00    0.1759094276E+00    0.1965776995E+00    0.1054752296E+00    0.2167607008E+00
    0.2700000000E+04    0.4851547947E+00    0.1720693205E+00    0.1991260815E+00    0.1068075663E+00    0.2196870711E+00
    0.2900000000E+04    0.4903826028E+00    0.1685614267E+00    0.2014750901E+00    0.1079689555E+00    0.2223890846E+00
    0.3100000000E+04    0.4949681848E+00    0.1653382554E+00    0.2036518623E+00    0.1089885972E+00    0.2248970154E+00
    0.3300000000E+04    0.4990167261E+00    0.1623610956E+00    0.2056783920E+00    0.1098896568E+00    0.2272354298E+00
    0.3500000000E+04    0.5026125027E+00    0.1595981264E+00    0.2075727525E+00    0.1106907002E+00    0.2294245375E+00
    0.3700000000E+04    0.5058236778E+00    0.1570229724E+00    0.2093499750E+00    0.1114067477E+00    0.2314811648E+00
    0.3900000000E+04    0.5087058674E+00    0.1546135954E+00    0.2110226943E+00    0.1120500585E+00    0.2334194697E+00
    0.4100000000E+04    0.5113048212E+00    0.1523514395E+00    0.2126016313E+00    0.1126307198E+00    0.2352514776E+00
    0.4300000000E+04    0.5136584606E+00    0.1502207665E+00    0.2140959605E+00    0.1131570949E+00    0.2369874887E+00
    0.4500000000E+04    0.5157984412E+00    0.1482081358E+00    0.2155135927E+00    0.1136361676E+00    0.2386363926E+00
    0.4700000000E+04    0.5177513641E+00    0.1463019947E+00    0.2168613960E+00    0.1140738081E+00    0.2402059141E+00
    0.4900000000E+04    0.5195397222E+00    0.1444923524E+00    0.2181453710E+00    0.1144749815E+00    0.2417028077E+00
    0.1000000000E+04    0.3796657024E+00    0.2243649421E+00    0.1649803823E+00    0.8348628684E-01    0.1808592629E+00
    0.3000000000E+04    0.4927485414E+00    0.1669168513E+00    0.2025835269E+00    0.1084949245E+00    0.2236656592E+00
    0.5000000000E+04    0.5203782819E+00    0.1436209579E+00    0.2187650957E+00    0.1146632382E+00    0.2424259035E+00
    0.7000000000E+04    0.5319225902E+00    0.1296429228E+00    0.2288078775E+00    0.1172678298E+00    0.2542022686E+00
    0.9000000000E+04    0.5380995861E+00    0.1198105170E+00    0.2359382000E+00    0.1186771769E+00    0.2626375733E+00
    0.1100000000E+05    0.5419014896E+00    0.1123052730E+00    0.2413840352E+00    0.1195547529E+00    0.2691279755E+00
    0.1300000000E+05    0.5444608384E+00    0.1062843915E+00    0.2457409583E+00    0.1201525639E+00    0.2743542945E+00
    0.1500000000E+05    0.5462939916E+00    0.1012893656E+00    0.2493412001E+00    0.1205859258E+00    0.2786980421E+00
    0.1700000000E+05    0.5476679938E+00    0.9704346129E-01    0.2523880720E+00    0.1209146991E+00    0.2823936173E+00
    0.1900000000E+05    0.5487341299E+00    0.9336706200E-01    0.2550145247E+00    0.1211729255E+00    0.2855948460E+00
    0.2100000000E+05    0.5495842308E+00    0.9013714450E-01    0.2573119604E+00    0.1213813486E+00    0.2884078250E+00
    0.2300000000E+05    0.5502771378E+00    0.8726588037E-01    0.2593457291E+00    0.1215533123E+00    0.2909086379E+00
    0.2500000000E+05    0.5508522326E+00    0.8468846434E-01    0.2611640540E+00    0.1216977833E+00    0.2931535848E+00
    0.2700000000E+05    0.5513368345E+00    0.8235577491E-01    0.2628034581E+00    0.1218210068E+00    0.2951854177E+00
    0.2900000000E+05    0.5517504717E+00    0.8022973571E-01    0.2642922138E+00    0.1219274648E+00    0.2970373121E+00
    0.3100000000E+05    0.5521074631E+00    0.7828026768E-01    0.2656526169E+00    0.1220204575E+00    0.2987354922E+00
    0.3300000000E+05    0.5524185402E+00    0.7648322037E-01    0.2669025342E+00    0.1221024680E+00    0.3003010192E+00
    0.3500000000E+05    0.5526919002E+00    0.7481892838E-01    0.2680564846E+00    0.1221754011E+00    0.3017510446E+00
    0.3700000000E+05    0.5529339099E+00    0.7327117950E-01    0.2691264119E+00    0.1222407422E+00    0.3030997067E+00
    0.3900000000E+05    0.5531495875E+00    0.7182646182E-01    0.2701222494E+00    0.1222996670E+00    0.3043587869E+00
    0.4100000000E+05    0.5533429405E+00    0.7047340400E-01    0.2710523386E+00    0.1223531182E+00    0.3055381974E+00
    0.4300000000E+05    0.5535172074E+00    0.6920235253E-01    0.2719237458E+00    0.1224018609E+00    0.3066463505E+00
    0.4500000000E+05    0.5536750328E+00    0.6800504757E-01    0.2727425044E+00    0.1224465223E+00    0.3076904417E+00
    0.4700000000E+05    0.5538185970E+00    0.6687437131E-01    0.2735138029E+00    0.1224876219E+00    0.3086766693E+00
    0.4900000000E+05    0.5539497137E+00    0.6580415015E-01    0.2742421324E+00    0.1225255933E+00    0.3096104075E+00
    0.1000000000E+05    0.5402048679E+00    0.1158325060E+00    0.2388257959E+00    0.1191618602E+00    0.2660735099E+00
    0.3000000000E+05    0.5519353078E+00    0.7923455931E-01    0.2649872534E+00    0.1219754732E+00    0.2979041959E+00
    0.5000000000E+05    0.5540110891E+00    0.6528999983E-01    0.2745914259E+00    0.1225435224E+00    0.3100590815E+00
    0.7000000000E+05    0.5548511569E+00    0.5717293941E-01    0.2800506046E+00    0.1228022629E+00    0.3171534165E+00
    0.9000000000E+05    0.5552982959E+00    0.5164885920E-01    0.2837008577E+00    0.1229560598E+00    0.3219992434E+00
    0.1100000000E+06    0.5555723932E+00    0.4755785466E-01    0.2863656447E+00    0.1230607216E+00    0.3256022727E+00
    0.1300000000E+06    0.5557556213E+00    0.4436166549E-01    0.2884221702E+00    0.1231380199E+00    0.3284285981E+00
    0.1500000000E+06    0.5558854956E+00    0.4177030152E-01    0.2900715418E+00    0.1231983138E+00    0.3307292262E+00
    0.1700000000E+06    0.5559815189E+00    0.3961128083E-01    0.2914323281E+00    0.1232472093E+00    0.3326534740E+00
    0.1900000000E+06    0.5560548038E+00    0.3777447698E-01    0.2925796571E+00    0.1232880278E+00    0.3342967253E+00
    0.2100000000E+06    0.5561121308E+00    0.3618571339E-01    0.2935637905E+00    0.1233228749E+00    0.3357232744E+00
    0.2300000000E+06    0.5561578631E+00    0.3479289138E-01    0.2944198151E+00    0.1233531568E+00    0.3369783196E+00
    0.2500000000E+06    0.5561949299E+00    0.3355816410E-01    0.2951730776E+00    0.1233798531E+00    0.3380947280E+00
    0.2700000000E+06    0.5562253679E+00    0.3245326401E-01    0.2958424119E+00    0.1234036696E+00    0.3390970747E+00
    0.2900000000E+06    0.5562506344E+00    0.3145658134E-01    0.2964421471E+00    0.1234251297E+00    0.3400041677E+00
    0.3100000000E+06    0.5562717983E+00    0.3055126587E-01    0.2969834061E+00    0.1234446305E+00    0.3408306899E+00
    0.3300000000E+06    0.5562896603E+00    0.2972395276E-01    0.2974749739E+00    0.1234624800E+00    0.3415883011E+00
    0.3500000000E+06    0.5563048313E+00    0.2896388313E-01    0.2979238937E+00    0.1234789213E+00    0.3422863987E+00
    0.3700000000E+06    0.5563177848E+00    0.2826228235E-01    0.2983358883E+00    0.1234941489E+00    0.3429326564E+00
    0.3900000000E+06    0.5563288930E+00    0.2761191096E-01    0.2987156616E+00    0.1235083211E+00    0.3435334132E+00
    0.4100000000E+06    0.5563384524E+00    0.2700673425E-01    0.2990671211E+00    0.1235215678E+00    0.3440939594E+00
    0.4300000000E+06    0.5563467016E+00    0.2644167508E-01    0.2993935433E+00    0.1235339972E+00    0.3446187515E+00
    0.4500000000E+06    0.5563538347E+00    0.2591242614E-01    0.2996976988E+00    0.1235456999E+00    0.3451115746E+00
    0.4700000000E+06    0.5563600110E+00    0.2541530547E-01    0.2999819485E+00    0.1235567528E+00    0.3455756684E+00
    0.4900000000E+06    0.5563653625E+00    0.2494714384E-01    0.3002483184E+00    0.1235672213E+00    0.3460138245E+00
    0.1000000000E+06    0.5554502569E+00    0.4946613713E-01    0.2851269686E+00    0.1230127720E+00    0.3239198056E+00
    0.3000000000E+06    0.5562616739E+00    0.3099340787E-01    0.2967194903E+00    0.1234351039E+00    0.3404267108E+00
    0.5000000000E+06    0.5563677640E+00    0.2472305028E-01    0.3003753546E+00    0.1235722545E+00    0.3462239453E+00
    0.7000000000E+06    0.5563915260E+00    0.2125420511E-01    0.3022990582E+00    0.1236525464E+00    0.3495130612E+00
    0.9000000000E+06    0.5563929311E+00    0.1896546790E-01    0.3035165393E+00    0.1237089643E+00    0.3517288237E+00
    0.1100000000E+07    0.5563863801E+00    0.1730659976E-01    0.3043669243E+00    0.1237523484E+00    0.3533639154E+00
    0.1300000000E+07    0.5563767100E+00    0.1603133321E-01    0.3049988370E+00    0.1237875519E+00    0.3546411241E+00
    0.1500000000E+07    0.5563658608E+00    0.1501045140E-01    0.3054888575E+00    0.1238171533E+00    0.3556784314E+00
    0.1700000000E+07    0.5563546939E+00    0.1416865929E-01    0.3058808882E+00    0.1238426824E+00    0.3565451676E+00
    0.1900000000E+07    0.5563436133E+00    0.1345867325E-01    0.3062020891E+00    0.1238651197E+00    0.3572852120E+00
    0.2100000000E+07    0.5563328108E+00    0.1284908140E-01    0.3064702537E+00    0.1238851306E+00    0.3579279277E+00
    0.2300000000E+07    0.5563223736E+00    0.1231807841E-01    0.3066975725E+00    0.1239031873E+00    0.3584938381E+00
    0.2500000000E+07    0.5563123352E+00    0.1184998362E-01    0.3068927029E+00    0.1239196364E+00    0.3589977979E+00
    0.2700000000E+07    0.5563027013E+00    0.1143318879E-01    0.3070619779E+00    0.1239347404E+00    0.3594508717E+00
    0.2900000000E+07    0.5562934628E+00    0.1105888928E-01    0.3072101461E+00    0.1239487020E+00    0.3598615011E+00
    0.3100000000E+07    0.5562846035E+00    0.1072026783E-01    0.3073408438E+00    0.1239616817E+00    0.3602362592E+00
    0.3300000000E+07    0.5562761036E+00    0.1041195147E-01    0.3074569063E+00    0.1239738084E+00    0.3605803546E+00
    0.3500000000E+07    0.5562679423E+00    0.1012963978E-01    0.3075605793E+00    0.1239851871E+00    0.3608979775E+00
    0.3700000000E+07    0.5562600989E+00    0.9869843863E-02    0.3076536665E+00    0.1239959047E+00    0.3611925448E+00
    0.3900000000E+07    0.5562525535E+00    0.9629699095E-02    0.3077376340E+00    0.1240060337E+00    0.3614668754E+00
    0.4100000000E+07    0.5562452870E+00    0.9406828214E-02    0.3078136871E+00    0.1240156353E+00    0.3617233194E+00
    0.4300000000E+07    0.5562382817E+00    0.9199239421E-02    0.3078828259E+00    0.1240247617E+00    0.3619638552E+00
    0.4500000000E+07    0.5562315214E+00    0.9005249417E-02    0.3079458877E+00    0.1240334577E+00    0.3621901618E+00
    0.4700000000E+07    0.5562249907E+00    0.8823424438E-02    0.3080035794E+00    0.1240417621E+00    0.3624036755E+00
    0.4900000000E+07    0.5562186756E+00    0.8652534536E-02    0.3080565020E+00    0.1240497085E+00    0.3626056336E+00
    0.1000000000E+07    0.5563902426E+00    0.1807663521E-01    0.3039758886E+00    0.1237319056E+00    0.3526015083E+00
    0.3000000000E+07    0.5562889870E+00    0.1088548344E-01    0.3072774857E+00    0.1239553059E+00    0.3600530112E+00
    0.5000000000E+07    0.5562155948E+00    0.8570852620E-02    0.3080813385E+00    0.1240535569E+00    0.3627026202E+00
    0.7000000000E+07    0.5561626591E+00    0.7316065188E-02    0.3084207242E+00    0.1241173157E+00    0.3642343299E+00
    0.9000000000E+07    0.5561214745E+00    0.6497899355E-02    0.3085906773E+00    0.1241646026E+00    0.3652841453E+00
    0.1100000000E+08    0.5560878100E+00    0.5909652438E-02    0.3086808590E+00    0.1242022059E+00    0.3660709014E+00
    0.1300000000E+08    0.5560593541E+00    0.5460118384E-02    0.3087278758E+00    0.1242334263E+00    0.3666940403E+00
    0.1500000000E+08    0.5560347147E+00    0.5101922082E-02    0.3087494048E+00    0.1242601205E+00    0.3672065291E+00
    0.1700000000E+08    0.5560129904E+00    0.4807669661E-02    0.3087549713E+00    0.1242834367E+00    0.3676396813E+00
    0.1900000000E+08    0.5559935652E+00    0.4560263772E-02    0.3087501222E+00    0.1243041351E+00    0.3680134349E+00
    0.2100000000E+08    0.5559759991E+00    0.4348403501E-02    0.3087382795E+00    0.1243227449E+00    0.3683412112E+00
    0.2300000000E+08    0.5559599675E+00    0.4164277483E-02    0.3087216494E+00    0.1243396496E+00    0.3686324446E+00
    0.2500000000E+08    0.5559452238E+00    0.4002288974E-02    0.3087017057E+00    0.1243551357E+00    0.3688940019E+00
    0.2700000000E+08    0.5559315765E+00    0.3858307992E-02    0.3086794603E+00    0.1243694233E+00    0.3691310251E+00
