  Pressure (Pa) 22mC5-400 (mol/kg) 2mC6-400 (mol/kg) 3mC6-400 (mol/kg) 23mC5-400 (mol/kg) C7-400 (mol/kg)
    0.1000000000E+01    0.2119725456E-02    0.1583796581E-02    0.3151841451E-02    0.4652507316E-03    0.5114594408E-02
    0.3000000000E+01    0.6292112213E-02    0.4615199325E-02    0.9197725482E-02    0.1381043958E-02    0.1492737537E-01
    0.5000000000E+01    0.1037777422E-01    0.7476719085E-02    0.1492310837E-01    0.2277816961E-02    0.2422241275E-01
    0.7000000000E+01    0.1437980644E-01    0.1018114377E-01    0.2035328719E-01    0.3156248397E-02    0.3304050925E-01
    0.9000000000E+01    0.1830115467E-01    0.1273998875E-01    0.2551095288E-01    0.4016984219E-02    0.4141826733E-01
    0.1100000000E+02    0.2214462442E-01    0.1516365416E-01    0.3041651784E-01    0.4860639616E-02    0.4938861690E-01
    0.1300000000E+02    0.2591288909E-01    0.1746155922E-01    0.3508839538E-01    0.5687800817E-02    0.5698126543E-01
    0.1500000000E+02    0.2960849770E-01    0.1964225742E-01    0.3954323890E-01    0.6499026775E-02    0.6422308345E-01
    0.1700000000E+02    0.3323388196E-01    0.2171353558E-01    0.4379614757E-01    0.7294850728E-02    0.7113843585E-01
    0.1900000000E+02    0.3679136300E-01    0.2368249948E-01    0.4786084387E-01    0.8075781661E-02    0.7774946792E-01
    0.2100000000E+02    0.4028315753E-01    0.2555564816E-01    0.5174982719E-01    0.8842305667E-02    0.8407635297E-01
    0.2300000000E+02    0.4371138365E-01    0.2733893853E-01    0.5547450745E-01    0.9594887220E-02    0.9013750754E-01
    0.2500000000E+02    0.4707806629E-01    0.2903784179E-01    0.5904532145E-01    0.1033397036E-01    0.9594977895E-01
    0.2700000000E+02    0.5038514225E-01    0.3065739288E-01    0.6247183468E-01    0.1105997981E-01    0.1015286094E+00
    0.2900000000E+02    0.5363446495E-01    0.3220223388E-01    0.6576283058E-01    0.1177332200E-01    0.1068881798E+00
    0.3100000000E+02    0.5682780890E-01    0.3367665232E-01    0.6892638904E-01    0.1247438607E-01    0.1120415363E+00
    0.3300000000E+02    0.5996687381E-01    0.3508461495E-01    0.7196995560E-01    0.1316354475E-01    0.1170007019E+00
    0.3500000000E+02    0.6305328853E-01    0.3642979774E-01    0.7490040270E-01    0.1384115524E-01    0.1217767751E+00
    0.3700000000E+02    0.6608861471E-01    0.3771561249E-01    0.7772408388E-01    0.1450756000E-01    0.1263800172E+00
    0.3900000000E+02    0.6907435020E-01    0.3894523051E-01    0.8044688199E-01    0.1516308750E-01    0.1308199303E+00
    0.4100000000E+02    0.7201193235E-01    0.4012160380E-01    0.8307425208E-01    0.1580805294E-01    0.1351053263E+00
    0.4300000000E+02    0.7490274096E-01    0.4124748397E-01    0.8561125976E-01    0.1644275891E-01    0.1392443884E+00
    0.4500000000E+02    0.7774810122E-01    0.4232543918E-01    0.8806261537E-01    0.1706749602E-01    0.1432447269E+00
    0.4700000000E+02    0.8054928634E-01    0.4335786945E-01    0.9043270473E-01    0.1768254349E-01    0.1471134283E+00
    0.4900000000E+02    0.8330752011E-01    0.4434702035E-01    0.9272561669E-01    0.1828816970E-01    0.1508570997E+00
    0.1000000000E+02    0.2023245427E-01    0.1396810864E-01    0.2799405325E-01    0.4440909673E-02    0.4545244074E-01
    0.3000000000E+02    0.5523802633E-01    0.3294799085E-01    0.6736006003E-01    0.1212536513E-01    0.1094898606E+00
    0.5000000000E+02    0.8467089974E-01    0.4482602862E-01    0.9384433385E-01    0.1858753086E-01    0.1526839927E+00
    0.7000000000E+02    0.1099470624E+00    0.5258029894E-01    0.1129707547E+00    0.2413792738E-01    0.1839571444E+00
    0.9000000000E+02    0.1320242239E+00    0.5774628144E-01    0.1274865056E+00    0.2898658557E-01    0.2077505749E+00
    0.1100000000E+03    0.1515741132E+00    0.6119971639E-01    0.1389147948E+00    0.3328082485E-01    0.2265289396E+00
    0.1300000000E+03    0.1690825973E+00    0.6347662379E-01    0.1481697250E+00    0.3712720625E-01    0.2417725910E+00
    0.1500000000E+03    0.1849105200E+00    0.6492261220E-01    0.1558339663E+00    0.4060487305E-01    0.2544259418E+00
    0.1700000000E+03    0.1993321027E+00    0.6576957258E-01    0.1622970141E+00    0.4377397153E-01    0.2651208326E+00
    0.1900000000E+03    0.2125599868E+00    0.6617805391E-01    0.1678294492E+00    0.4668114263E-01    0.2742965670E+00
    0.2100000000E+03    0.2247620360E+00    0.6626205438E-01    0.1726253162E+00    0.4936320670E-01    0.2822684489E+00
    0.2300000000E+03    0.2360728945E+00    0.6610420748E-01    0.1768275413E+00    0.5184969825E-01    0.2892689110E+00
    0.2500000000E+03    0.2466021157E+00    0.6576544272E-01    0.1805438232E+00    0.5416464868E-01    0.2954732412E+00
    0.2700000000E+03    0.2564399931E+00    0.6529132896E-01    0.1838569257E+00    0.5632786506E-01    0.3010162532E+00
    0.2900000000E+03    0.2656618179E+00    0.6471635281E-01    0.1868315478E+00    0.5835586394E-01    0.3060034206E+00
    0.3100000000E+03    0.2743310377E+00    0.6406687188E-01    0.1895190336E+00    0.6026256415E-01    0.3105185126E+00
    0.3300000000E+03    0.2825016362E+00    0.6336319467E-01    0.1919606751E+00    0.6205980861E-01    0.3146289521E+00
    0.3500000000E+03    0.2902199476E+00    0.6262107144E-01    0.1941900772E+00    0.6375776243E-01    0.3183896541E+00
    0.3700000000E+03    0.2975260595E+00    0.6185277959E-01    0.1962348822E+00    0.6536522054E-01    0.3218458253E+00
    0.3900000000E+03    0.3044549089E+00    0.6106792494E-01    0.1981180475E+00    0.6688984807E-01    0.3250350401E+00
    0.4100000000E+03    0.3110371478E+00    0.6027404059E-01    0.1998588066E+00    0.6833837023E-01    0.3279888029E+00
    0.4300000000E+03    0.3172998334E+00    0.5947703945E-01    0.2014734019E+00    0.6971672374E-01    0.3307337393E+00
    0.4500000000E+03    0.3232669842E+00    0.5868155977E-01    0.2029756501E+00    0.7103017872E-01    0.3332925158E+00
    0.4700000000E+03    0.3289600310E+00    0.5789123118E-01    0.2043773830E+00    0.7228343765E-01    0.3356845577E+00
    0.4900000000E+03    0.3343981865E+00    0.5710888137E-01    0.2056887951E+00    0.7348071643E-01    0.3379266152E+00
    0.1000000000E+03    0.1420812072E+00    0.5964785020E-01    0.1335193926E+00    0.3119557916E-01    0.2176578572E+00
    0.3000000000E+03    0.2700619312E+00    0.6439953420E-01    0.1882083978E+00    0.5932359271E-01    0.3083154300E+00
    0.5000000000E+03    0.3370271535E+00    0.5672140341E-01    0.2063134383E+00    0.7405956436E-01    0.3389960155E+00
    0.7000000000E+03    0.3796483158E+00    0.4970068403E-01    0.2156949807E+00    0.8344890629E-01    0.3551947171E+00
    0.9000000000E+03    0.4092196350E+00    0.4415906432E-01    0.2215398643E+00    0.8997039821E-01    0.3654586886E+00
    0.1100000000E+04    0.4308541576E+00    0.3983203131E-01    0.2255734765E+00    0.9474667696E-01    0.3726533648E+00
    0.1300000000E+04    0.4472958016E+00    0.3640744589E-01    0.2285451929E+00    0.9838045507E-01    0.3780321653E+00
    0.1500000000E+04    0.4601641944E+00    0.3364679568E-01    0.2308364859E+00    0.1012276342E+00    0.3822374051E+00
    0.1700000000E+04    0.4704777605E+00    0.3138030991E-01    0.2326633826E+00    0.1035120943E+00    0.3856351192E+00
    0.1900000000E+04    0.4789076243E+00    0.2948806381E-01    0.2341579946E+00    0.1053814256E+00    0.3884505021E+00
    0.2100000000E+04    0.4859127704E+00    0.2788445181E-01    0.2354059600E+00    0.1069366042E+00    0.3908303719E+00
    0.2300000000E+04    0.4918168528E+00    0.2650737262E-01    0.2364653883E+00    0.1082488607E+00    0.3928749049E+00
    0.2500000000E+04    0.4968540797E+00    0.2531098114E-01    0.2373771907E+00    0.1093697595E+00    0.3946550089E+00
    0.2700000000E+04    0.5011977513E+00    0.2426084642E-01    0.2381710595E+00    0.1103374697E+00    0.3962224149E+00
    0.2900000000E+04    0.5049786145E+00    0.2333068623E-01    0.2388691010E+00    0.1111807989E+00    0.3976158334E+00
    0.3100000000E+04    0.5082970145E+00    0.2250013349E-01    0.2394881348E+00    0.1119218646E+00    0.3988648632E+00
    0.3300000000E+04    0.5112311437E+00    0.2175318400E-01    0.2400411996E+00    0.1125779082E+00    0.3999925610E+00
    0.3500000000E+04    0.5138427658E+00    0.2107710032E-01    0.2405385691E+00    0.1131625535E+00    0.4010171801E+00
    0.3700000000E+04    0.5161812677E+00    0.2046162560E-01    0.2409884553E+00    0.1136866985E+00    0.4019533782E+00
    0.3900000000E+04    0.5182865793E+00    0.1989841131E-01    0.2413975055E+00    0.1141591579E+00    0.4028130748E+00
    0.4100000000E+04    0.5201913099E+00    0.1938059482E-01    0.2417711619E+00    0.1145871329E+00    0.4036060721E+00
    0.4300000000E+04    0.5219223358E+00    0.1890248350E-01    0.2421139256E+00    0.1149765611E+00    0.4043405128E+00
    0.4500000000E+04    0.5235019951E+00    0.1845931560E-01    0.2424295533E+00    0.1153323793E+00    0.4050232227E+00
    0.4700000000E+04    0.5249489977E+00    0.1804707708E-01    0.2427212070E+00    0.1156587241E+00    0.4056599711E+00
    0.4900000000E+04    0.5262791266E+00    0.1766235999E-01    0.2429915678E+00    0.1159590865E+00    0.4062556712E+00
    0.1000000000E+04    0.4208219753E+00    0.4186471346E-01    0.2237237447E+00    0.9253122183E-01    0.3693406288E+00
    0.3000000000E+04    0.5066902931E+00    0.2290404680E-01    0.2391876041E+00    0.1115629397E+00    0.3982568261E+00
    0.5000000000E+04    0.5269046321E+00    0.1747939494E-01    0.2431194923E+00    0.1161004688E+00    0.4065394685E+00
    0.7000000000E+04    0.5356684769E+00    0.1473920280E-01    0.2449730028E+00    0.1180931651E+00    0.4108258061E+00
    0.9000000000E+04    0.5405215751E+00    0.1301563712E-01    0.2460586597E+00    0.1192110220E+00    0.4135521304E+00
    0.1100000000E+05    0.5435922838E+00    0.1180135456E-01    0.2467716636E+00    0.1199275456E+00    0.4154839539E+00
    0.1300000000E+05    0.5457055833E+00    0.1088488371E-01    0.2472744114E+00    0.1204270791E+00    0.4169473179E+00
    0.1500000000E+05    0.5472466305E+00    0.1016050099E-01    0.2476464867E+00    0.1207960641E+00    0.4181073086E+00
    0.1700000000E+05    0.5484189118E+00    0.9568685058E-02    0.2479316667E+00    0.1210803697E+00    0.4190575470E+00
    0.1900000000E+05    0.5493398890E+00    0.9072998036E-02    0.2481560953E+00    0.1213065899E+00    0.4198555780E+00
    0.2100000000E+05    0.5500820438E+00    0.8649699661E-02    0.2483363786E+00    0.1214912071E+00    0.4205389715E+00
    0.2300000000E+05    0.5506924957E+00    0.8282559539E-02    0.2484835840E+00    0.1216449832E+00    0.4211334359E+00
    0.2500000000E+05    0.5512031867E+00    0.7960047767E-02    0.2486053771E+00    0.1217752458E+00    0.4216572378E+00
    0.2700000000E+05    0.5516365282E+00    0.7673713480E-02    0.2487072383E+00    0.1218871585E+00    0.4221237625E+00
    0.2900000000E+05    0.5520087039E+00    0.7417199534E-02    0.2487931905E+00    0.1219844665E+00    0.4225430745E+00
    0.3100000000E+05    0.5523316891E+00    0.7185617679E-02    0.2488662539E+00    0.1220699533E+00    0.4229229084E+00
    0.3300000000E+05    0.5526145335E+00    0.6975137905E-02    0.2489287398E+00    0.1221457313E+00    0.4232693209E+00
    0.3500000000E+05    0.5528642017E+00    0.6782710165E-02    0.2489824468E+00    0.1222134336E+00    0.4235871321E+00
    0.3700000000E+05    0.5530861402E+00    0.6605870779E-02    0.2490287955E+00    0.1222743426E+00    0.4238802335E+00
    0.3900000000E+05    0.5532846690E+00    0.6442604617E-02    0.2490689224E+00    0.1223294800E+00    0.4241518065E+00
    0.4100000000E+05    0.5534632580E+00    0.6291244985E-02    0.2491037473E+00    0.1223796702E+00    0.4244044814E+00
    0.4300000000E+05    0.5536247263E+00    0.6150399586E-02    0.2491340222E+00    0.1224255855E+00    0.4246404546E+00
    0.4500000000E+05    0.5537713871E+00    0.6018894881E-02    0.2491603680E+00    0.1224677802E+00    0.4248615771E+00
    0.4700000000E+05    0.5539051568E+00    0.5895733671E-02    0.2491833015E+00    0.1225067154E+00    0.4250694212E+00
    0.4900000000E+05    0.5540276359E+00    0.5780062337E-02    0.2492032559E+00    0.1225427779E+00    0.4252653330E+00
    0.1000000000E+05    0.5422127329E+00    0.1236169177E-01    0.2464487354E+00    0.1196044973E+00    0.4145914750E+00
    0.3000000000E+05    0.5521757226E+00    0.7298552508E-02    0.2488311750E+00    0.1220285424E+00    0.4227375143E+00
    0.5000000000E+05    0.5540850710E+00    0.5724801460E-02    0.2492122327E+00    0.1225598361E+00    0.4253591831E+00
    0.7000000000E+05    0.5548782494E+00    0.4877962142E-02    0.2493000868E+00    0.1228082064E+00    0.4268224059E+00
    0.9000000000E+05    0.5553063628E+00    0.4327659619E-02    0.2492986955E+00    0.1229577889E+00    0.4278065231E+00
    0.1100000000E+06    0.5555711705E+00    0.3932796905E-02    0.2492626161E+00    0.1230603890E+00    0.4285353595E+00
    0.1300000000E+06    0.5557493373E+00    0.3631458905E-02    0.2492116935E+00    0.1231365611E+00    0.4291079731E+00
    0.1500000000E+06    0.5558762560E+00    0.3391591166E-02    0.2491544509E+00    0.1231961954E+00    0.4295761686E+00
    0.1700000000E+06    0.5559704758E+00    0.3194700047E-02    0.2490949323E+00    0.1232446865E+00    0.4299701587E+00
    0.1900000000E+06    0.5560426320E+00    0.3029261871E-02    0.2490351737E+00    0.1232852504E+00    0.4303089777E+00
    0.2100000000E+06    0.5560992463E+00    0.2887669307E-02    0.2489762294E+00    0.1233199353E+00    0.4306053305E+00
    0.2300000000E+06    0.5561445325E+00    0.2764669314E-02    0.2489186437E+00    0.1233501144E+00    0.4308680859E+00
    0.2500000000E+06    0.5561813297E+00    0.2656501253E-02    0.2488626839E+00    0.1233767472E+00    0.4311036617E+00
    0.2700000000E+06    0.5562116173E+00    0.2560391982E-02    0.2488084624E+00    0.1234005269E+00    0.4313168401E+00
    0.2900000000E+06    0.5562368157E+00    0.2474245306E-02    0.2487560041E+00    0.1234219684E+00    0.4315112729E+00
    0.3100000000E+06    0.5562579690E+00    0.2396443098E-02    0.2487052838E+00    0.1234414636E+00    0.4316898076E+00
    0.3300000000E+06    0.5562758608E+00    0.2325713518E-02    0.2486562488E+00    0.1234593167E+00    0.4318547039E+00
    0.3500000000E+06    0.5562910902E+00    0.2261041101E-02    0.2486088317E+00    0.1234757680E+00    0.4320077833E+00
    0.3700000000E+06    0.5563041223E+00    0.2201603852E-02    0.2485629585E+00    0.1234910103E+00    0.4321505337E+00
    0.3900000000E+06    0.5563153234E+00    0.2146728238E-02    0.2485185529E+00    0.1235052004E+00    0.4322841855E+00
    0.4100000000E+06    0.5563249854E+00    0.2095856363E-02    0.2484755393E+00    0.1235184673E+00    0.4324097668E+00
    0.4300000000E+06    0.5563333439E+00    0.2048521605E-02    0.2484338446E+00    0.1235309184E+00    0.4325281447E+00
    0.4500000000E+06    0.5563405905E+00    0.2004330251E-02    0.2483933989E+00    0.1235426438E+00    0.4326400571E+00
    0.4700000000E+06    0.5563468828E+00    0.1962947456E-02    0.2483541360E+00    0.1235537201E+00    0.4327461366E+00
    0.4900000000E+06    0.5563523514E+00    0.1924086378E-02    0.2483159936E+00    0.1235642124E+00    0.4328469295E+00
    0.1000000000E+06    0.5554529328E+00    0.4115679831E-02    0.2492833491E+00    0.1230133052E+00    0.4281950621E+00
    0.3000000000E+06    0.5562478439E+00    0.2434387536E-02    0.2487304295E+00    0.1234319386E+00    0.4316023746E+00
    0.5000000000E+06    0.5563548116E+00    0.1905522837E-02    0.2482973241E+00    0.1235692574E+00    0.4328954943E+00
    0.7000000000E+06    0.5563796718E+00    0.1621268087E-02    0.2479704831E+00    0.1236497737E+00    0.4336775619E+00
    0.9000000000E+06    0.5563819621E+00    0.1436851682E-02    0.2477088444E+00    0.1237063724E+00    0.4342320740E+00
    0.1100000000E+07    0.5563761141E+00    0.1304713875E-02    0.2474906309E+00    0.1237498993E+00    0.4346590156E+00
    0.1300000000E+07    0.5563670135E+00    0.1203992588E-02    0.2473033487E+00    0.1237852176E+00    0.4350048095E+00
    0.1500000000E+07    0.5563566360E+00    0.1123896674E-02    0.2471392168E+00    0.1238149133E+00    0.4352946523E+00
    0.1700000000E+07    0.5563458675E+00    0.1058206240E-02    0.2469930694E+00    0.1238405214E+00    0.4355436905E+00
    0.1900000000E+07    0.5563351290E+00    0.1003049170E-02    0.2468613025E+00    0.1238630259E+00    0.4357617132E+00
    0.2100000000E+07    0.5563246243E+00    0.9558714943E-03    0.2467413019E+00    0.1238830949E+00    0.4359553999E+00
    0.2300000000E+07    0.5563144493E+00    0.9149110213E-03    0.2466311101E+00    0.1239012023E+00    0.4361295041E+00
    0.2500000000E+07    0.5563046443E+00    0.8789071050E-03    0.2465292233E+00    0.1239176962E+00    0.4362875249E+00
    0.2700000000E+07    0.5562952197E+00    0.8469307339E-03    0.2464344609E+00    0.1239328398E+00    0.4364321105E+00
    0.2900000000E+07    0.5562861705E+00    0.8182800930E-03    0.2463458785E+00    0.1239468371E+00    0.4365653115E+00
    0.3100000000E+07    0.5562774834E+00    0.7924137217E-03    0.2462627090E+00    0.1239598490E+00    0.4366887471E+00
    0.3300000000E+07    0.5562691411E+00    0.7689062469E-03    0.2461843206E+00    0.1239720049E+00    0.4368037177E+00
    0.3500000000E+07    0.5562611247E+00    0.7474181986E-03    0.2461101866E+00    0.1239834102E+00    0.4369112829E+00
    0.3700000000E+07    0.5562534152E+00    0.7276749000E-03    0.2460398633E+00    0.1239941521E+00    0.4370123169E+00
    0.3900000000E+07    0.5562459940E+00    0.7094513738E-03    0.2459729732E+00    0.1240043035E+00    0.4371075496E+00
    0.4100000000E+07    0.5562388431E+00    0.6925613370E-03    0.2459091928E+00    0.1240139258E+00    0.4371975960E+00
    0.4300000000E+07    0.5562319459E+00    0.6768490369E-03    0.2458482423E+00    0.1240230714E+00    0.4372829793E+00
    0.4500000000E+07    0.5562252868E+00    0.6621830987E-03    0.2457898785E+00    0.1240317852E+00    0.4373641481E+00
    0.4700000000E+07    0.5562188513E+00    0.6484518251E-03    0.2457338882E+00    0.1240401062E+00    0.4374414899E+00
    0.4900000000E+07    0.5562126258E+00    0.6355595586E-03    0.2456800837E+00    0.1240480682E+00    0.4375153417E+00
    0.1000000000E+07    0.5563796445E+00    0.1365893134E-02    0.2475952368E+00    0.1237293891E+00    0.4344578817E+00
    0.3000000000E+07    0.5562817827E+00    0.8050277727E-03    0.2463036594E+00    0.1239534575E+00    0.4366281623E+00
    0.5000000000E+07    0.5562095880E+00    0.6294018322E-03    0.2456539485E+00    0.1240519239E+00    0.4375510523E+00
    0.7000000000E+07    0.5561573170E+00    0.5351744148E-03    0.2452140992E+00    0.1241157923E+00    0.4381374935E+00
    0.9000000000E+07    0.5561165713E+00    0.4741056550E-03    0.2448805173E+00    0.1241631456E+00    0.4385662275E+00
    0.1100000000E+08    0.5560832250E+00    0.4303793845E-03    0.2446114650E+00    0.1242007928E+00    0.4389035440E+00
    0.1300000000E+08    0.5560550135E+00    0.3970664384E-03    0.2443858541E+00    0.1242320439E+00    0.4391812718E+00
    0.1500000000E+08    0.5560305696E+00    0.3705857805E-03    0.2441915186E+00    0.1242587602E+00    0.4394171241E+00
    0.1700000000E+08    0.5560090065E+00    0.3488747235E-03    0.2440207924E+00    0.1242820928E+00    0.4396219617E+00
    0.1900000000E+08    0.5559897170E+00    0.3306498518E-03    0.2438685288E+00    0.1243028034E+00    0.4398029193E+00
    0.2100000000E+08    0.5559722673E+00    0.3150650204E-03    0.2437311036E+00    0.1243214224E+00    0.4399649321E+00
    0.2300000000E+08    0.5559563370E+00    0.3015366196E-03    0.2436058672E+00    0.1243383339E+00    0.4401115544E+00
    0.2500000000E+08    0.5559416825E+00    0.2896472755E-03    0.2434908234E+00    0.1243538250E+00    0.4402454297E+00
    0.2700000000E+08    0.5559281145E+00    0.2790894957E-03    0.2433844304E+00    0.1243681162E+00    0.4403685767E+00
