  Pressure (Pa) 22mC5-400 (mol/kg) 2mC6-400 (mol/kg) 3mC6-400 (mol/kg) 23mC5-400 (mol/kg) C7-400 (mol/kg)
    0.1000000000E+01    0.2114089023E-02    0.4747462231E-02    0.3678624953E-02    0.1856056404E-03    0.1705539041E-02
    0.3000000000E+01    0.6243159145E-02    0.1381210198E-01    0.1074373010E-01    0.5481214307E-03    0.4981752605E-02
    0.5000000000E+01    0.1024647342E-01    0.2234192514E-01    0.1744588093E-01    0.8996036330E-03    0.8090397065E-02
    0.7000000000E+01    0.1413117214E-01    0.3037933275E-01    0.2381396146E-01    0.1240678643E-02    0.1104478951E-01
    0.9000000000E+01    0.1790384744E-01    0.3796240239E-01    0.2987383057E-01    0.1571924772E-02    0.1385685329E-01
    0.1100000000E+02    0.2157059527E-01    0.4512542630E-01    0.3564870961E-01    0.1893876805E-02    0.1653729647E-01
    0.1300000000E+02    0.2513706156E-01    0.5189937091E-01    0.4115951181E-01    0.2207030051E-02    0.1909576358E-01
    0.1500000000E+02    0.2860848328E-01    0.5831227060E-01    0.4642512342E-01    0.2511843949E-02    0.2154096509E-01
    0.1700000000E+02    0.3198972515E-01    0.6438956672E-01    0.5146264470E-01    0.2808745278E-02    0.2388078838E-01
    0.1900000000E+02    0.3528531241E-01    0.7015440042E-01    0.5628759718E-01    0.3098131039E-02    0.2612239323E-01
    0.2100000000E+02    0.3849946016E-01    0.7562786656E-01    0.6091410273E-01    0.3380371029E-02    0.2827229432E-01
    0.2300000000E+02    0.4163609974E-01    0.8082923468E-01    0.6535503869E-01    0.3655810149E-02    0.3033643268E-01
    0.2500000000E+02    0.4469890243E-01    0.8577614180E-01    0.6962217282E-01    0.3924770489E-02    0.3232023783E-01
    0.2700000000E+02    0.4769130084E-01    0.9048476128E-01    0.7372628096E-01    0.4187553201E-02    0.3422868205E-01
    0.2900000000E+02    0.5061650815E-01    0.9496995108E-01    0.7767725005E-01    0.4444440189E-02    0.3606632780E-01
    0.3100000000E+02    0.5347753559E-01    0.9924538440E-01    0.8148416850E-01    0.4695695638E-02    0.3783736939E-01
    0.3300000000E+02    0.5627720822E-01    0.1033236649E+00    0.8515540574E-01    0.4941567403E-02    0.3954566958E-01
    0.3500000000E+02    0.5901817925E-01    0.1072164290E+00    0.8869868240E-01    0.5182288263E-02    0.4119479202E-01
    0.3700000000E+02    0.6170294309E-01    0.1109344362E+00    0.9212113245E-01    0.5418077066E-02    0.4278802977E-01
    0.3900000000E+02    0.6433384716E-01    0.1144876498E+00    0.9542935827E-01    0.5649139764E-02    0.4432843078E-01
    0.4100000000E+02    0.6691310272E-01    0.1178853091E+00    0.9862947961E-01    0.5875670366E-02    0.4581882040E-01
    0.4300000000E+02    0.6944279474E-01    0.1211359929E+00    0.1017271773E+00    0.6097851798E-02    0.4726182149E-01
    0.4500000000E+02    0.7192489086E-01    0.1242476778E+00    0.1047277320E+00    0.6315856698E-02    0.4865987245E-01
    0.4700000000E+02    0.7436124968E-01    0.1272277895E+00    0.1076360594E+00    0.6529848133E-02    0.5001524323E-01
    0.4900000000E+02    0.7675362829E-01    0.1300832489E+00    0.1104567414E+00    0.6739980269E-02    0.5133004977E-01
    0.1000000000E+02    0.1975009938E-01    0.4159441162E-01    0.3279553618E-01    0.1734030713E-02    0.1521290136E-01
    0.3000000000E+02    0.5205486360E-01    0.9713307576E-01    0.7959817653E-01    0.4570755997E-02    0.3695992532E-01
    0.5000000000E+02    0.7793384807E-01    0.1314662693E+00    0.1118355628E+00    0.6843644992E-02    0.5197286378E-01
    0.7000000000E+02    0.9958924360E-01    0.1539413645E+00    0.1357111033E+00    0.8745908966E-02    0.6311548327E-01
    0.9000000000E+02    0.1182840344E+00    0.1691938858E+00    0.1543029037E+00    0.1038836277E-01    0.7180986826E-01
    0.1100000000E+03    0.1347985695E+00    0.1797715555E+00    0.1693199876E+00    0.1183947761E-01    0.7884616884E-01
    0.1300000000E+03    0.1496435419E+00    0.1871829916E+00    0.1817916716E+00    0.1314406556E-01    0.8470061830E-01
    0.1500000000E+03    0.1631688473E+00    0.1923736708E+00    0.1923774105E+00    0.1433283011E-01    0.8967853739E-01
    0.1700000000E+03    0.1756233626E+00    0.1959632365E+00    0.2015207321E+00    0.1542761084E-01    0.9398541384E-01
    0.1900000000E+03    0.1871897269E+00    0.1983727384E+00    0.2095318733E+00    0.1644443518E-01    0.9776507660E-01
    0.2100000000E+03    0.1980055673E+00    0.1998969399E+00    0.2166349716E+00    0.1739538076E-01    0.1011215057E+00
    0.2300000000E+03    0.2081769829E+00    0.2007474146E+00    0.2229964140E+00    0.1828975857E-01    0.1041319395E+00
    0.2500000000E+03    0.2177874065E+00    0.2010792753E+00    0.2287426010E+00    0.1913489054E-01    0.1068550911E+00
    0.2700000000E+03    0.2269036032E+00    0.2010083241E+00    0.2339714838E+00    0.1993663592E-01    0.1093364871E+00
    0.2900000000E+03    0.2355798358E+00    0.2006223797E+00    0.2387602911E+00    0.2069975679E-01    0.1116120445E+00
    0.3100000000E+03    0.2438608232E+00    0.1999889519E+00    0.2431708438E+00    0.2142817770E-01    0.1137105318E+00
    0.3300000000E+03    0.2517838836E+00    0.1991605582E+00    0.2472532978E+00    0.2212517373E-01    0.1156553029E+00
    0.3500000000E+03    0.2593805155E+00    0.1981784791E+00    0.2510488338E+00    0.2279350919E-01    0.1174655442E+00
    0.3700000000E+03    0.2666775819E+00    0.1970754593E+00    0.2545916277E+00    0.2343554161E-01    0.1191571873E+00
    0.3900000000E+03    0.2736982105E+00    0.1958776798E+00    0.2579103166E+00    0.2405330070E-01    0.1207435896E+00
    0.4100000000E+03    0.2804624875E+00    0.1946062201E+00    0.2610291074E+00    0.2464854923E-01    0.1222360483E+00
    0.4300000000E+03    0.2869879974E+00    0.1932781540E+00    0.2639686248E+00    0.2522283046E-01    0.1236441943E+00
    0.4500000000E+03    0.2932902491E+00    0.1919073833E+00    0.2667465695E+00    0.2577750547E-01    0.1249762974E+00
    0.4700000000E+03    0.2993830145E+00    0.1905052768E+00    0.2693782340E+00    0.2631378289E-01    0.1262395065E+00
    0.4900000000E+03    0.3052786004E+00    0.1890811656E+00    0.2718769114E+00    0.2683274281E-01    0.1274400388E+00
    0.1000000000E+03    0.1267771969E+00    0.1749556575E+00    0.1621827321E+00    0.1113462279E-01    0.7550033054E-01
    0.3000000000E+03    0.2397672501E+00    0.2003330177E+00    0.2410094768E+00    0.2106808665E-01    0.1126818519E+00
    0.5000000000E+03    0.3081559516E+00    0.1883633142E+00    0.2730800690E+00    0.2708603592E-01    0.1280185273E+00
    0.7000000000E+03    0.3575473901E+00    0.1741244076E+00    0.2923419932E+00    0.3143548868E-01    0.1373191937E+00
    0.9000000000E+03    0.3953057833E+00    0.1614044203E+00    0.3057946702E+00    0.3476278097E-01    0.1438642957E+00
    0.1100000000E+04    0.4250331205E+00    0.1505781735E+00    0.3159801289E+00    0.3738411127E-01    0.1488512444E+00
    0.1300000000E+04    0.4489115144E+00    0.1414298218E+00    0.3240906408E+00    0.3949108995E-01    0.1528440726E+00
    0.1500000000E+04    0.4683981631E+00    0.1336648525E+00    0.3307759024E+00    0.4121171317E-01    0.1561512945E+00
    0.1700000000E+04    0.4845165774E+00    0.1270196350E+00    0.3364269401E+00    0.4263591136E-01    0.1589592157E+00
    0.1900000000E+04    0.4980080521E+00    0.1212796133E+00    0.3412963901E+00    0.4382883785E-01    0.1613885701E+00
    0.2100000000E+04    0.5094212516E+00    0.1162752222E+00    0.3455563987E+00    0.4483872938E-01    0.1635218528E+00
    0.2300000000E+04    0.5191693026E+00    0.1118734272E+00    0.3493292306E+00    0.4570191691E-01    0.1654178037E+00
    0.2500000000E+04    0.5275678629E+00    0.1079696704E+00    0.3527046561E+00    0.4644616736E-01    0.1671196530E+00
    0.2700000000E+04    0.5348612718E+00    0.1044812959E+00    0.3557504067E+00    0.4709297982E-01    0.1686600893E+00
    0.2900000000E+04    0.5412409087E+00    0.1013424592E+00    0.3585187612E+00    0.4765919794E-01    0.1700643957E+00
    0.3100000000E+04    0.5468583071E+00    0.9850026522E-01    0.3610508563E+00    0.4815816189E-01    0.1713525057E+00
    0.3300000000E+04    0.5518346605E+00    0.9591185404E-01    0.3633796019E+00    0.4860054362E-01    0.1725403959E+00
    0.3500000000E+04    0.5562678054E+00    0.9354220066E-01    0.3655317077E+00    0.4899496052E-01    0.1736410558E+00
    0.3700000000E+04    0.5602374111E+00    0.9136244616E-01    0.3675291262E+00    0.4934843163E-01    0.1746651794E+00
    0.3900000000E+04    0.5638088808E+00    0.8934862397E-01    0.3693901020E+00    0.4966672059E-01    0.1756216689E+00
    0.4100000000E+04    0.5670363142E+00    0.8748068078E-01    0.3711299495E+00    0.4995459610E-01    0.1765180085E+00
    0.4300000000E+04    0.5699647786E+00    0.8574171805E-01    0.3727616385E+00    0.5021603174E-01    0.1773605458E+00
    0.4500000000E+04    0.5726320669E+00    0.8411740000E-01    0.3742962410E+00    0.5045436056E-01    0.1781547080E+00
    0.4700000000E+04    0.5750700696E+00    0.8259548789E-01    0.3757432785E+00    0.5067239578E-01    0.1789051684E+00
    0.4900000000E+04    0.5773058539E+00    0.8116547085E-01    0.3771109932E+00    0.5087252576E-01    0.1796159782E+00
    0.1000000000E+04    0.4110149387E+00    0.1557636492E+00    0.3112032477E+00    0.3614778411E-01    0.1465088031E+00
    0.3000000000E+04    0.5441366941E+00    0.9988716704E-01    0.3598121186E+00    0.4791636524E-01    0.1707218970E+00
    0.5000000000E+04    0.5783552682E+00    0.8048203706E-01    0.3777673842E+00    0.5096652534E-01    0.1799576359E+00
    0.7000000000E+04    0.5928698658E+00    0.6997245005E-01    0.3880697910E+00    0.5227231805E-01    0.1853697360E+00
    0.9000000000E+04    0.6006865129E+00    0.6307129539E-01    0.3950122909E+00    0.5298247878E-01    0.1890784685E+00
    0.1100000000E+05    0.6055147728E+00    0.5805557282E-01    0.4001140411E+00    0.5342562991E-01    0.1918430619E+00
    0.1300000000E+05    0.6087727528E+00    0.5417758626E-01    0.4040740455E+00    0.5372778688E-01    0.1940161795E+00
    0.1500000000E+05    0.6111105618E+00    0.5105219470E-01    0.4072665166E+00    0.5394690384E-01    0.1957881578E+00
    0.1700000000E+05    0.6128655411E+00    0.4845722854E-01    0.4099128952E+00    0.5411315175E-01    0.1972724426E+00
    0.1900000000E+05    0.6142292215E+00    0.4625384153E-01    0.4121539562E+00    0.5424371810E-01    0.1985416262E+00
    0.2100000000E+05    0.6153180425E+00    0.4434993469E-01    0.4140841613E+00    0.5434908753E-01    0.1996447124E+00
    0.2300000000E+05    0.6162066989E+00    0.4268154042E-01    0.4157696332E+00    0.5443600908E-01    0.2006161954E+00
    0.2500000000E+05    0.6169452270E+00    0.4120257299E-01    0.4172582591E+00    0.5450901966E-01    0.2014811880E+00
    0.2700000000E+05    0.6175683619E+00    0.3987882443E-01    0.4185857050E+00    0.5457127988E-01    0.2022584863E+00
    0.2900000000E+05    0.6181009475E+00    0.3868426623E-01    0.4197791655E+00    0.5462505844E-01    0.2029624896E+00
    0.3100000000E+05    0.6185612102E+00    0.3759867509E-01    0.4208597939E+00    0.5467202565E-01    0.2036044482E+00
    0.3300000000E+05    0.6189628164E+00    0.3660605444E-01    0.4218443296E+00    0.5471343850E-01    0.2041933034E+00
    0.3500000000E+05    0.6193162096E+00    0.3569355361E-01    0.4227462188E+00    0.5475026098E-01    0.2047362666E+00
    0.3700000000E+05    0.6196295045E+00    0.3485070846E-01    0.4235764053E+00    0.5478324487E-01    0.2052392304E+00
    0.3900000000E+05    0.6199090997E+00    0.3406889582E-01    0.4243439004E+00    0.5481298511E-01    0.2057070657E+00
    0.4100000000E+05    0.6201601069E+00    0.3334093388E-01    0.4250562020E+00    0.5483995873E-01    0.2061438398E+00
    0.4300000000E+05    0.6203866585E+00    0.3266078420E-01    0.4257196066E+00    0.5486455276E-01    0.2065529807E+00
    0.4500000000E+05    0.6205921302E+00    0.3202332616E-01    0.4263394470E+00    0.5488708452E-01    0.2069374019E+00
    0.4700000000E+05    0.6207793064E+00    0.3142418378E-01    0.4269202740E+00    0.5490781672E-01    0.2072995978E+00
    0.4900000000E+05    0.6209505038E+00    0.3085959106E-01    0.4274659984E+00    0.5492696873E-01    0.2076417193E+00
    0.1000000000E+05    0.6033584945E+00    0.6038682682E-01    0.3977387213E+00    0.5322715789E-01    0.1905513326E+00
    0.3000000000E+05    0.6183391766E+00    0.3812893406E-01    0.4203324492E+00    0.5464930686E-01    0.2032906193E+00
    0.5000000000E+05    0.6210307302E+00    0.3058921420E-01    0.4277267723E+00    0.5493601103E-01    0.2078058449E+00
    0.7000000000E+05    0.6221365989E+00    0.2639256876E-01    0.4317227123E+00    0.5506644686E-01    0.2103803224E+00
    0.9000000000E+05    0.6227347423E+00    0.2361055227E-01    0.4343103682E+00    0.5514392778E-01    0.2121209827E+00
    0.1100000000E+06    0.6231076521E+00    0.2158690240E-01    0.4361559772E+00    0.5519663431E-01    0.2134092737E+00
    0.1300000000E+06    0.6233613826E+00    0.2002679836E-01    0.4375545790E+00    0.5523555114E-01    0.2144181164E+00
    0.1500000000E+06    0.6235445851E+00    0.1877502098E-01    0.4386596002E+00    0.5526590197E-01    0.2152392681E+00
    0.1700000000E+06    0.6236826767E+00    0.1774085723E-01    0.4395597398E+00    0.5529051232E-01    0.2159267411E+00
    0.1900000000E+06    0.6237902140E+00    0.1686719658E-01    0.4403103034E+00    0.5531105578E-01    0.2165147703E+00
    0.2100000000E+06    0.6238761252E+00    0.1611601504E-01    0.4409477921E+00    0.5532859297E-01    0.2170262964E+00
    0.2300000000E+06    0.6239461859E+00    0.1546086620E-01    0.4414973903E+00    0.5534383220E-01    0.2174773729E+00
    0.2500000000E+06    0.6240042949E+00    0.1488269928E-01    0.4419771055E+00    0.5535726670E-01    0.2178796325E+00
    0.2700000000E+06    0.6240531777E+00    0.1436738958E-01    0.4424001966E+00    0.5536925183E-01    0.2182417489E+00
    0.2900000000E+06    0.6240947955E+00    0.1390420900E-01    0.4427766686E+00    0.5538005102E-01    0.2185703462E+00
    0.3100000000E+06    0.6241305950E+00    0.1348484060E-01    0.4431142305E+00    0.5538986426E-01    0.2188705869E+00
    0.3300000000E+06    0.6241616662E+00    0.1310272203E-01    0.4434189292E+00    0.5539884657E-01    0.2191465653E+00
    0.3500000000E+06    0.6241888455E+00    0.1275259539E-01    0.4436955828E+00    0.5540712022E-01    0.2194015783E+00
    0.3700000000E+06    0.6242127851E+00    0.1243019091E-01    0.4439480832E+00    0.5541478320E-01    0.2196383161E+00
    0.3900000000E+06    0.6242340009E+00    0.1213199969E-01    0.4441796123E+00    0.5542191509E-01    0.2198589999E+00
    0.4100000000E+06    0.6242529062E+00    0.1185510740E-01    0.4443927998E+00    0.5542858132E-01    0.2200654830E+00
    0.4300000000E+06    0.6242698356E+00    0.1159707040E-01    0.4445898402E+00    0.5543483629E-01    0.2202593264E+00
    0.4500000000E+06    0.6242850634E+00    0.1135582200E-01    0.4447725811E+00    0.5544072563E-01    0.2204418558E+00
    0.4700000000E+06    0.6242988158E+00    0.1112960072E-01    0.4449425901E+00    0.5544628800E-01    0.2206142062E+00
    0.4900000000E+06    0.6243112813E+00    0.1091689453E-01    0.4451012070E+00    0.5545155638E-01    0.2207773558E+00
    0.1000000000E+06    0.6229406917E+00    0.2252705558E-01    0.4353027036E+00    0.5517248938E-01    0.2128081422E+00
    0.3000000000E+06    0.6241133474E+00    0.1368949348E-01    0.4429499023E+00    0.5538507031E-01    0.2187237338E+00
    0.5000000000E+06    0.6243170821E+00    0.1081519431E-01    0.4451766100E+00    0.5545408935E-01    0.2208557500E+00
    0.7000000000E+06    0.6243932809E+00    0.9250326217E-02    0.4462971172E+00    0.5549449921E-01    0.2220979085E+00
    0.9000000000E+06    0.6244296518E+00    0.8227310551E-02    0.4469817059E+00    0.5552289643E-01    0.2229541115E+00
    0.1100000000E+07    0.6244490515E+00    0.7490425466E-02    0.4474452408E+00    0.5554473505E-01    0.2235986498E+00
    0.1300000000E+07    0.6244599041E+00    0.6926512627E-02    0.4477798611E+00    0.5556245687E-01    0.2241110415E+00
    0.1500000000E+07    0.6244659778E+00    0.6476672141E-02    0.4480322231E+00    0.5557735937E-01    0.2245337809E+00
    0.1700000000E+07    0.6244691832E+00    0.6106791117E-02    0.4482286808E+00    0.5559021232E-01    0.2248920613E+00
    0.1900000000E+07    0.6244705787E+00    0.5795550737E-02    0.4483853255E+00    0.5560150911E-01    0.2252019635E+00
    0.2100000000E+07    0.6244707899E+00    0.5528844335E-02    0.4485125742E+00    0.5561158463E-01    0.2254743363E+00
    0.2300000000E+07    0.6244702058E+00    0.5296912004E-02    0.4486174854E+00    0.5562067644E-01    0.2257168211E+00
    0.2500000000E+07    0.6244690780E+00    0.5092755170E-02    0.4487050204E+00    0.5562895908E-01    0.2259349898E+00
    0.2700000000E+07    0.6244675744E+00    0.4911205670E-02    0.4487787729E+00    0.5563656451E-01    0.2261330220E+00
    0.2900000000E+07    0.6244658103E+00    0.4748352076E-02    0.4488414124E+00    0.5564359493E-01    0.2263141280E+00
    0.3100000000E+07    0.6244638662E+00    0.4601171687E-02    0.4488949645E+00    0.5565013103E-01    0.2264808234E+00
    0.3300000000E+07    0.6244617995E+00    0.4467286322E-02    0.4489409951E+00    0.5565623767E-01    0.2266351144E+00
    0.3500000000E+07    0.6244596516E+00    0.4344795492E-02    0.4489807338E+00    0.5566196776E-01    0.2267786242E+00
    0.3700000000E+07    0.6244574528E+00    0.4232159534E-02    0.4490151600E+00    0.5566736499E-01    0.2269126842E+00
    0.3900000000E+07    0.6244552254E+00    0.4128115925E-02    0.4490450633E+00    0.5567246587E-01    0.2270383986E+00
    0.4100000000E+07    0.6244529860E+00    0.4031618180E-02    0.4490710877E+00    0.5567730124E-01    0.2271566933E+00
    0.4300000000E+07    0.6244507468E+00    0.3941790457E-02    0.4490937633E+00    0.5568189736E-01    0.2272683512E+00
    0.4500000000E+07    0.6244485170E+00    0.3857893325E-02    0.4491135305E+00    0.5568627678E-01    0.2273740405E+00
    0.4700000000E+07    0.6244463035E+00    0.3779297560E-02    0.4491307582E+00    0.5569045899E-01    0.2274743353E+00
    0.4900000000E+07    0.6244441114E+00    0.3705463860E-02    0.4491457576E+00    0.5569446100E-01    0.2275697324E+00
    0.1000000000E+07    0.6244407811E+00    0.7832008162E-02    0.4472337957E+00    0.5553444435E-01    0.2232966279E+00
    0.3000000000E+07    0.6244648567E+00    0.4672964222E-02    0.4488692174E+00    0.5564692039E-01    0.2263991414E+00
    0.5000000000E+07    0.6244430245E+00    0.3670184856E-02    0.4491525059E+00    0.5569639916E-01    0.2276157319E+00
    0.7000000000E+07    0.6244228850E+00    0.3129191475E-02    0.4492176335E+00    0.5572851090E-01    0.2283593835E+00
    0.9000000000E+07    0.6244057806E+00    0.2777384263E-02    0.4492133081E+00    0.5575232810E-01    0.2288896445E+00
    0.1100000000E+08    0.6243911480E+00    0.2524878463E-02    0.4491811107E+00    0.5577126856E-01    0.2292993834E+00
    0.1300000000E+08    0.6243784280E+00    0.2332151947E-02    0.4491366387E+00    0.5578699449E-01    0.2296320825E+00
    0.1500000000E+08    0.6243672025E+00    0.2178725410E-02    0.4490867598E+00    0.5580044075E-01    0.2299114764E+00
    0.1700000000E+08    0.6243571679E+00    0.2052778369E-02    0.4490348067E+00    0.5581218567E-01    0.2301518918E+00
    0.1900000000E+08    0.6243481008E+00    0.1946943684E-02    0.4489824952E+00    0.5582261207E-01    0.2303626179E+00
    0.2100000000E+08    0.6243398340E+00    0.1856357401E-02    0.4489307363E+00    0.5583198648E-01    0.2305500086E+00
    0.2300000000E+08    0.6243322392E+00    0.1777660643E-02    0.4488800153E+00    0.5584050202E-01    0.2307185956E+00
    0.2500000000E+08    0.6243252164E+00    0.1708448734E-02    0.4488305823E+00    0.5584830303E-01    0.2308717203E+00
    0.2700000000E+08    0.6243186859E+00    0.1646948409E-02    0.4487825534E+00    0.5585550028E-01    0.2310119152E+00
