  Pressure (Pa) 22mC5-400 (mol/kg) 2mC6-400 (mol/kg) 3mC6-400 (mol/kg) 23mC5-400 (mol/kg) C7-400 (mol/kg)
    0.1000000000E+01    0.2116653132E-02    0.2384347742E-02    0.5281593149E-03    0.9291537045E-03    0.3428149917E-02
    0.3000000000E+01    0.6265259201E-02    0.6996798100E-02    0.1557498442E-02    0.2750308043E-02    0.1011009511E-01
    0.5000000000E+01    0.1030530381E-01    0.1141064222E-01    0.2552440296E-02    0.4523842436E-02    0.1656973458E-01
    0.7000000000E+01    0.1424174626E-01    0.1563682501E-01    0.3514760248E-02    0.6251931895E-02    0.2281852653E-01
    0.9000000000E+01    0.1807924028E-01    0.1968553178E-01    0.4446112268E-02    0.7936617422E-02    0.2886714623E-01
    0.1100000000E+02    0.2182215714E-01    0.2356625204E-01    0.5348039164E-02    0.9579816168E-02    0.3472555199E-01
    0.1300000000E+02    0.2547460680E-01    0.2728783686E-01    0.6221981799E-02    0.1118333068E-01    0.4040304457E-01
    0.1500000000E+02    0.2904045711E-01    0.3085855082E-01    0.7069287402E-02    0.1274885732E-01    0.4590832079E-01
    0.1700000000E+02    0.3252335136E-01    0.3428611898E-01    0.7891217078E-02    0.1427799400E-01    0.5124952194E-01
    0.1900000000E+02    0.3592672440E-01    0.3757776942E-01    0.8688952612E-02    0.1577224720E-01    0.5643427762E-01
    0.2100000000E+02    0.3925381729E-01    0.4074027189E-01    0.9463602628E-02    0.1723303843E-01    0.6146974549E-01
    0.2300000000E+02    0.4250769083E-01    0.4377997291E-01    0.1021620819E-01    0.1866171013E-01    0.6636264734E-01
    0.2500000000E+02    0.4569123793E-01    0.4670282778E-01    0.1094774789E-01    0.2005953113E-01    0.7111930193E-01
    0.2700000000E+02    0.4880719500E-01    0.4951442964E-01    0.1165914248E-01    0.2142770161E-01    0.7574565491E-01
    0.2900000000E+02    0.5185815238E-01    0.5222003618E-01    0.1235125912E-01    0.2276735771E-01    0.8024730601E-01
    0.3100000000E+02    0.5484656403E-01    0.5482459386E-01    0.1302491520E-01    0.2407957573E-01    0.8462953403E-01
    0.3300000000E+02    0.5777475639E-01    0.5733276020E-01    0.1368088193E-01    0.2536537607E-01    0.8889731959E-01
    0.3500000000E+02    0.6064493660E-01    0.5974892418E-01    0.1431988753E-01    0.2662572681E-01    0.9305536597E-01
    0.3700000000E+02    0.6345920006E-01    0.6207722491E-01    0.1494262019E-01    0.2786154702E-01    0.9710811830E-01
    0.3900000000E+02    0.6621953749E-01    0.6432156882E-01    0.1554973086E-01    0.2907370984E-01    0.1010597811E+00
    0.4100000000E+02    0.6892784137E-01    0.6648564549E-01    0.1614183566E-01    0.3026304535E-01    0.1049143343E+00
    0.4300000000E+02    0.7158591199E-01    0.6857294213E-01    0.1671951827E-01    0.3143034320E-01    0.1086755485E+00
    0.4500000000E+02    0.7419546302E-01    0.7058675701E-01    0.1728333200E-01    0.3257635503E-01    0.1123469980E+00
    0.4700000000E+02    0.7675812669E-01    0.7253021182E-01    0.1783380176E-01    0.3370179679E-01    0.1159320743E+00
    0.4900000000E+02    0.7927545861E-01    0.7440626309E-01    0.1837142588E-01    0.3480735079E-01    0.1194339968E+00
    0.1000000000E+02    0.1996225809E-01    0.2164632271E-01    0.4900661515E-02    0.8763287400E-02    0.3181952980E-01
    0.3000000000E+02    0.5336002813E-01    0.5353464851E-01    0.1269034548E-01    0.2342683143E-01    0.8245302988E-01
    0.5000000000E+02    0.8051759145E-01    0.7531989376E-01    0.1863556970E-01    0.3535287440E-01    0.1211547374E+00
    0.7000000000E+02    0.1033067403E+00    0.9066201558E-01    0.2334738741E-01    0.4536241327E-01    0.1518717347E+00
    0.9000000000E+02    0.1228914064E+00    0.1016965992E+00    0.2719118802E-01    0.5396599155E-01    0.1769654243E+00
    0.1100000000E+03    0.1400352999E+00    0.1097440062E+00    0.3039929112E-01    0.6149861522E-01    0.1979379488E+00
    0.1300000000E+03    0.1552619633E+00    0.1156588189E+00    0.3312672706E-01    0.6818994771E-01    0.2157921882E+00
    0.1500000000E+03    0.1689436387E+00    0.1200150502E+00    0.3548107729E-01    0.7420328664E-01    0.2312244049E+00
    0.1700000000E+03    0.1813533121E+00    0.1232102376E+00    0.3753944877E-01    0.7965839096E-01    0.2447338622E+00
    0.1900000000E+03    0.1926965802E+00    0.1255268420E+00    0.3935862780E-01    0.8464545830E-01    0.2566884162E+00
    0.2100000000E+03    0.2031319122E+00    0.1271699608E+00    0.4098141449E-01    0.8923401283E-01    0.2673654470E+00
    0.2300000000E+03    0.2127839593E+00    0.1282913050E+00    0.4244071784E-01    0.9347874342E-01    0.2769783274E+00
    0.2500000000E+03    0.2217525479E+00    0.1290049041E+00    0.4376228553E-01    0.9742344837E-01    0.2856940727E+00
    0.2700000000E+03    0.2301189079E+00    0.1293976607E+00    0.4496657269E-01    0.1011037680E+00    0.2936454253E+00
    0.2900000000E+03    0.2379500842E+00    0.1295366086E+00    0.4607005137E-01    0.1045491194E+00    0.3009393266E+00
    0.3100000000E+03    0.2453021226E+00    0.1294740041E+00    0.4708614740E-01    0.1077840945E+00    0.3076629790E+00
    0.3300000000E+03    0.2522224115E+00    0.1292509619E+00    0.4802592305E-01    0.1108294871E+00    0.3138882638E+00
    0.3500000000E+03    0.2587514327E+00    0.1289000943E+00    0.4889858271E-01    0.1137030606E+00    0.3196750160E+00
    0.3700000000E+03    0.2649240879E+00    0.1284474538E+00    0.4971185323E-01    0.1164201310E+00    0.3250734866E+00
    0.3900000000E+03    0.2707707197E+00    0.1279139826E+00    0.5047227365E-01    0.1189940136E+00    0.3301262198E+00
    0.4100000000E+03    0.2763179053E+00    0.1273166060E+00    0.5118541893E-01    0.1214363718E+00    0.3348695025E+00
    0.4300000000E+03    0.2815890820E+00    0.1266690671E+00    0.5185607439E-01    0.1237574914E+00    0.3393344949E+00
    0.4500000000E+03    0.2866050448E+00    0.1259825697E+00    0.5248837333E-01    0.1259664992E+00    0.3435481225E+00
    0.4700000000E+03    0.2913843476E+00    0.1252662776E+00    0.5308590654E-01    0.1280715384E+00    0.3475337864E+00
    0.4900000000E+03    0.2959436271E+00    0.1245277069E+00    0.5365181022E-01    0.1300799113E+00    0.3513119334E+00
    0.1000000000E+03    0.1317313778E+00    0.1060320728E+00    0.2886363456E-01    0.5784991050E-01    0.1878952502E+00
    0.3000000000E+03    0.2416828539E+00    0.1295277045E+00    0.4658828207E-01    0.1061915255E+00    0.3043676253E+00
    0.5000000000E+03    0.2981454998E+00    0.1241520426E+00    0.5392377455E-01    0.1310499292E+00    0.3531288855E+00
    0.7000000000E+03    0.3336017725E+00    0.1164881414E+00    0.5822196635E-01    0.1466790821E+00    0.3819639362E+00
    0.9000000000E+03    0.3578633346E+00    0.1095572076E+00    0.6114824362E-01    0.1573864366E+00    0.4017484026E+00
    0.1100000000E+04    0.3753858452E+00    0.1036606551E+00    0.6331472630E-01    0.1651290234E+00    0.4164958791E+00
    0.1300000000E+04    0.3885515170E+00    0.9866618484E-01    0.6500683262E-01    0.1709536604E+00    0.4280846428E+00
    0.1500000000E+04    0.3987544529E+00    0.9439740278E-01    0.6637837351E-01    0.1754732384E+00    0.4375302700E+00
    0.1700000000E+04    0.4068621384E+00    0.9070478443E-01    0.6752077027E-01    0.1790693001E+00    0.4454382587E+00
    0.1900000000E+04    0.4134401333E+00    0.8747234208E-01    0.6849235396E-01    0.1819907014E+00    0.4521960599E+00
    0.2100000000E+04    0.4188712836E+00    0.8461182847E-01    0.6933239719E-01    0.1844059734E+00    0.4580652404E+00
    0.2300000000E+04    0.4234230063E+00    0.8205594916E-01    0.7006847930E-01    0.1864328850E+00    0.4632299569E+00
    0.2500000000E+04    0.4272871490E+00    0.7975286995E-01    0.7072063682E-01    0.1881559611E+00    0.4678243261E+00
    0.2700000000E+04    0.4306045601E+00    0.7766215474E-01    0.7130383885E-01    0.1896372834E+00    0.4719487775E+00
    0.2900000000E+04    0.4334807531E+00    0.7575183816E-01    0.7182953335E-01    0.1909233793E+00    0.4756802871E+00
    0.3100000000E+04    0.4359961904E+00    0.7399632278E-01    0.7230665120E-01    0.1920497448E+00    0.4790790341E+00
    0.3300000000E+04    0.4382132078E+00    0.7237485928E-01    0.7274227978E-01    0.1930438914E+00    0.4821928732E+00
    0.3500000000E+04    0.4401807850E+00    0.7087043681E-01    0.7314212779E-01    0.1939274453E+00    0.4850604263E+00
    0.3700000000E+04    0.4419378990E+00    0.6946896319E-01    0.7351085379E-01    0.1947176237E+00    0.4877132707E+00
    0.3900000000E+04    0.4435159248E+00    0.6815865174E-01    0.7385230357E-01    0.1954282922E+00    0.4901775225E+00
    0.4100000000E+04    0.4449403822E+00    0.6692955710E-01    0.7416968473E-01    0.1960707334E+00    0.4924750029E+00
    0.4300000000E+04    0.4462322268E+00    0.6577321963E-01    0.7446569738E-01    0.1966542166E+00    0.4946241129E+00
    0.4500000000E+04    0.4474088160E+00    0.6468239005E-01    0.7474263345E-01    0.1971864226E+00    0.4966404979E+00
    0.4700000000E+04    0.4484846424E+00    0.6365081376E-01    0.7500245308E-01    0.1976737676E+00    0.4985375606E+00
    0.4900000000E+04    0.4494718953E+00    0.6267306047E-01    0.7524684426E-01    0.1981216505E+00    0.5003268610E+00
    0.1000000000E+04    0.3672868561E+00    0.1064850708E+00    0.6230424017E-01    0.1615491885E+00    0.4096056867E+00
    0.3000000000E+04    0.4347793096E+00    0.7485612611E-01    0.7207368444E-01    0.1915046500E+00    0.4774180177E+00
    0.5000000000E+04    0.4499355955E+00    0.6220286184E-01    0.7536371900E-01    0.1983322510E+00    0.5011842882E+00
    0.7000000000E+04    0.4563920949E+00    0.5473602455E-01    0.7716172962E-01    0.2012852594E+00    0.5145360915E+00
    0.9000000000E+04    0.4599313693E+00    0.4960308912E-01    0.7833229323E-01    0.2029290387E+00    0.5234281144E+00
    0.1100000000E+05    0.4621547249E+00    0.4577282990E-01    0.7916937130E-01    0.2039776828E+00    0.5299142766E+00
    0.1300000000E+05    0.4636761359E+00    0.4276284985E-01    0.7980444984E-01    0.2047064042E+00    0.5349241461E+00
    0.1500000000E+05    0.4647801670E+00    0.4031123339E-01    0.8030637654E-01    0.2052434176E+00    0.5389494717E+00
    0.1700000000E+05    0.4656163544E+00    0.3826110122E-01    0.8071515121E-01    0.2056564479E+00    0.5422786024E+00
    0.1900000000E+05    0.4662706533E+00    0.3651166830E-01    0.8105580566E-01    0.2059846262E+00    0.5450935208E+00
    0.2100000000E+05    0.4667959204E+00    0.3499468235E-01    0.8134490622E-01    0.2062521406E+00    0.5475156174E+00
    0.2300000000E+05    0.4672264154E+00    0.3366197868E-01    0.8159390684E-01    0.2064747508E+00    0.5496294447E+00
    0.2500000000E+05    0.4675853033E+00    0.3247842290E-01    0.8181101044E-01    0.2066631681E+00    0.5514959821E+00
    0.2700000000E+05    0.4678887996E+00    0.3141767732E-01    0.8200226422E-01    0.2068249296E+00    0.5531604840E+00
    0.2900000000E+05    0.4681485895E+00    0.3045954214E-01    0.8217223554E-01    0.2069654950E+00    0.5546573495E+00
    0.3100000000E+05    0.4683733032E+00    0.2958822105E-01    0.8232444598E-01    0.2070889175E+00    0.5560132637E+00
    0.3300000000E+05    0.4685694506E+00    0.2879115269E-01    0.8246165936E-01    0.2071982706E+00    0.5572492944E+00
    0.3500000000E+05    0.4687420333E+00    0.2805820150E-01    0.8258607855E-01    0.2072959279E+00    0.5583823291E+00
    0.3700000000E+05    0.4688949567E+00    0.2738108380E-01    0.8269948336E-01    0.2073837523E+00    0.5594260876E+00
    0.3900000000E+05    0.4690313134E+00    0.2675295216E-01    0.8280332911E-01    0.2074632269E+00    0.5603918488E+00
    0.4100000000E+05    0.4691535842E+00    0.2616808874E-01    0.8289881860E-01    0.2075355473E+00    0.5612889836E+00
    0.4300000000E+05    0.4692637814E+00    0.2562167535E-01    0.8298695559E-01    0.2076016886E+00    0.5621253513E+00
    0.4500000000E+05    0.4693635543E+00    0.2510961843E-01    0.8306858497E-01    0.2076624540E+00    0.5629076010E+00
    0.4700000000E+05    0.4694542672E+00    0.2462841402E-01    0.8314442357E-01    0.2077185113E+00    0.5636414007E+00
    0.4900000000E+05    0.4695370583E+00    0.2417504240E-01    0.8321508392E-01    0.2077704206E+00    0.5643316170E+00
    0.1000000000E+05    0.4611575698E+00    0.4756260522E-01    0.7878219009E-01    0.2035053850E+00    0.5268991301E+00
    0.3000000000E+05    0.4682648827E+00    0.3001387986E-01    0.8225037303E-01    0.2070291379E+00    0.5553514965E+00
    0.5000000000E+05    0.4695757882E+00    0.2395796182E-01    0.8324863982E-01    0.2077949705E+00    0.5646617183E+00
    0.7000000000E+05    0.4701025950E+00    0.2059273532E-01    0.8374407426E-01    0.2081521265E+00    0.5697497629E+00
    0.9000000000E+05    0.4703773335E+00    0.1836817310E-01    0.8404271169E-01    0.2083669567E+00    0.5730874780E+00
    0.1100000000E+06    0.4705411347E+00    0.1675433534E-01    0.8424225519E-01    0.2085141941E+00    0.5754995015E+00
    0.1300000000E+06    0.4706470277E+00    0.1551310766E-01    0.8438440467E-01    0.2086234453E+00    0.5773510984E+00
    0.1500000000E+06    0.4707192308E+00    0.1451925127E-01    0.8449017517E-01    0.2087089418E+00    0.5788325632E+00
    0.1700000000E+06    0.4707703014E+00    0.1369967323E-01    0.8457138157E-01    0.2087784408E+00    0.5800542059E+00
    0.1900000000E+06    0.4708073621E+00    0.1300842214E-01    0.8463520501E-01    0.2088365638E+00    0.5810850260E+00
    0.2100000000E+06    0.4708347334E+00    0.1241494688E-01    0.8468627364E-01    0.2088862528E+00    0.5819707214E+00
    0.2300000000E+06    0.4708551759E+00    0.1189802729E-01    0.8472770985E-01    0.2089294798E+00    0.5827429376E+00
    0.2500000000E+06    0.4708705285E+00    0.1144239689E-01    0.8476169896E-01    0.2089676220E+00    0.5834243869E+00
    0.2700000000E+06    0.4708820586E+00    0.1103675036E-01    0.8478981728E-01    0.2090016741E+00    0.5840318572E+00
    0.2900000000E+06    0.4708906651E+00    0.1067251070E-01    0.8481323091E-01    0.2090323750E+00    0.5845780651E+00
    0.3100000000E+06    0.4708970003E+00    0.1034303566E-01    0.8483282113E-01    0.2090602868E+00    0.5850728471E+00
    0.3300000000E+06    0.4709015481E+00    0.1004308953E-01    0.8484926637E-01    0.2090858456E+00    0.5855239490E+00
    0.3500000000E+06    0.4709046735E+00    0.9768481278E-02    0.8486309728E-01    0.2091093960E+00    0.5859375664E+00
    0.3700000000E+06    0.4709066561E+00    0.9515810537E-02    0.8487473484E-01    0.2091312145E+00    0.5863187232E+00
    0.3900000000E+06    0.4709077132E+00    0.9282285241E-02    0.8488451713E-01    0.2091515259E+00    0.5866715422E+00
    0.4100000000E+06    0.4709080156E+00    0.9065588270E-02    0.8489271872E-01    0.2091705150E+00    0.5869994442E+00
    0.4300000000E+06    0.4709076988E+00    0.8863778193E-02    0.8489956477E-01    0.2091883358E+00    0.5873052945E+00
    0.4500000000E+06    0.4709068719E+00    0.8675214278E-02    0.8490524162E-01    0.2092051174E+00    0.5875915141E+00
    0.4700000000E+06    0.4709056228E+00    0.8498499035E-02    0.8490990468E-01    0.2092209695E+00    0.5878601650E+00
    0.4900000000E+06    0.4709040234E+00    0.8332433654E-02    0.8491368455E-01    0.2092359853E+00    0.5881130161E+00
    0.1000000000E+06    0.4704687680E+00    0.1750359390E-01    0.8415155784E-01    0.2084466376E+00    0.5743804591E+00
    0.3000000000E+06    0.4708940831E+00    0.1050378292E-01    0.8482345754E-01    0.2090466498E+00    0.5848313585E+00
    0.5000000000E+06    0.4709031112E+00    0.8253065599E-02    0.8491527851E-01    0.2092432053E+00    0.5882340023E+00
    0.7000000000E+06    0.4708763762E+00    0.7034544215E-02    0.8492035038E-01    0.2093584233E+00    0.5901050763E+00
    0.9000000000E+06    0.4708447564E+00    0.6240888413E-02    0.8490018551E-01    0.2094394087E+00    0.5913414623E+00
    0.1100000000E+07    0.4708140193E+00    0.5670777707E-02    0.8487117299E-01    0.2095016885E+00    0.5922413878E+00
    0.1300000000E+07    0.4707854079E+00    0.5235436464E-02    0.8483912819E-01    0.2095522230E+00    0.5929369560E+00
    0.1500000000E+07    0.4707590558E+00    0.4888779322E-02    0.8480643944E-01    0.2095947131E+00    0.5934970803E+00
    0.1700000000E+07    0.4707348002E+00    0.4604172696E-02    0.8477416194E-01    0.2096313550E+00    0.5939617839E+00
    0.1900000000E+07    0.4707124121E+00    0.4365002026E-02    0.8474276911E-01    0.2096635567E+00    0.5943561562E+00
    0.2100000000E+07    0.4706916670E+00    0.4160290524E-02    0.8471246073E-01    0.2096922740E+00    0.5946968524E+00
    0.2300000000E+07    0.4706723643E+00    0.3982454057E-02    0.8468330189E-01    0.2097181847E+00    0.5949954332E+00
    0.2500000000E+07    0.4706543313E+00    0.3826060801E-02    0.8465528995E-01    0.2097417872E+00    0.5952602161E+00
    0.2700000000E+07    0.4706374205E+00    0.3687103925E-02    0.8462838854E-01    0.2097634579E+00    0.5954973631E+00
    0.2900000000E+07    0.4706215065E+00    0.3562553912E-02    0.8460254533E-01    0.2097834885E+00    0.5957115533E+00
    0.3100000000E+07    0.4706064825E+00    0.3450071694E-02    0.8457770160E-01    0.2098021093E+00    0.5959064142E+00
    0.3300000000E+07    0.4705922572E+00    0.3347818477E-02    0.8455379733E-01    0.2098195053E+00    0.5960848090E+00
    0.3500000000E+07    0.4705787520E+00    0.3254325939E-02    0.8453077397E-01    0.2098358275E+00    0.5962490326E+00
    0.3700000000E+07    0.4705658991E+00    0.3168405381E-02    0.8450857579E-01    0.2098512006E+00    0.5964009505E+00
    0.3900000000E+07    0.4705536394E+00    0.3089082718E-02    0.8448715053E-01    0.2098657287E+00    0.5965420965E+00
    0.4100000000E+07    0.4705419215E+00    0.3015551050E-02    0.8446644958E-01    0.2098794998E+00    0.5966737460E+00
    0.4300000000E+07    0.4705307002E+00    0.2947135452E-02    0.8444642801E-01    0.2098925889E+00    0.5967969696E+00
    0.4500000000E+07    0.4705199356E+00    0.2883266429E-02    0.8442704434E-01    0.2099050601E+00    0.5969126736E+00
    0.4700000000E+07    0.4705095924E+00    0.2823459624E-02    0.8440826039E-01    0.2099169692E+00    0.5970216315E+00
    0.4900000000E+07    0.4704996392E+00    0.2767300106E-02    0.8439004099E-01    0.2099283647E+00    0.5971245081E+00
    0.1000000000E+07    0.4708291562E+00    0.5934882907E-02    0.8488629944E-01    0.2094723419E+00    0.5918230904E+00
    0.3000000000E+07    0.4706138893E+00    0.3504929226E-02    0.8459000229E-01    0.2097929626E+00    0.5958112057E+00
    0.5000000000E+07    0.4704947999E+00    0.2740474313E-02    0.8438113277E-01    0.2099338833E+00    0.5971738488E+00
    0.7000000000E+07    0.4704130179E+00    0.2329802931E-02    0.8422598616E-01    0.2100252995E+00    0.5979475101E+00
    0.9000000000E+07    0.4703507321E+00    0.2063496124E-02    0.8410257529E-01    0.2100930831E+00    0.5984715843E+00
    0.1100000000E+08    0.4703004271E+00    0.1872760642E-02    0.8399999991E-01    0.2101469763E+00    0.5988609482E+00
    0.1300000000E+08    0.4702582327E+00    0.1727426050E-02    0.8391215497E-01    0.2101917159E+00    0.5991672334E+00
    0.1500000000E+08    0.4702218942E+00    0.1611889662E-02    0.8383528474E-01    0.2102299650E+00    0.5994177139E+00
    0.1700000000E+08    0.4701899827E+00    0.1517160158E-02    0.8376691410E-01    0.2102633711E+00    0.5996284069E+00
    0.1900000000E+08    0.4701615359E+00    0.1437641235E-02    0.8370532481E-01    0.2102930242E+00    0.5998094544E+00
    0.2100000000E+08    0.4701358744E+00    0.1369642390E-02    0.8364927478E-01    0.2103196835E+00    0.5999676508E+00
    0.2300000000E+08    0.4701125010E+00    0.1310617702E-02    0.8359783650E-01    0.2103438986E+00    0.6001077524E+00
    0.2500000000E+08    0.4700910408E+00    0.1258746169E-02    0.8355029883E-01    0.2103660807E+00    0.6002332082E+00
    0.2700000000E+08    0.4700712041E+00    0.1212686048E-02    0.8350610430E-01    0.2103865449E+00    0.6003465925E+00
