  Pressure (Pa) 22mC5-400 (mol/kg) 2mC6-400 (mol/kg) 3mC6-400 (mol/kg) 23mC5-400 (mol/kg) C7-400 (mol/kg)
    0.1000000000E+01    0.2119149313E-02    0.1590022349E-02    0.3167641146E-02    0.6511741478E-03    0.1713369117E-02
    0.3000000000E+01    0.6287048248E-02    0.4668470761E-02    0.9333511828E-02    0.1931906895E-02    0.5048884707E-02
    0.5000000000E+01    0.1036403229E-01    0.7617570617E-02    0.1528369172E-01    0.3184724929E-02    0.8268249864E-02
    0.7000000000E+01    0.1435348547E-01    0.1044421527E-01    0.2102964624E-01    0.4410667105E-02    0.1137762971E-01
    0.9000000000E+01    0.1825862191E-01    0.1315483087E-01    0.2658203652E-01    0.5610720111E-02    0.1438275721E-01
    0.1100000000E+02    0.2208249625E-01    0.1575541517E-01    0.3195078884E-01    0.6785821693E-02    0.1728897047E-01
    0.1300000000E+02    0.2582801342E-01    0.1825157249E-01    0.3714515703E-01    0.7936863640E-02    0.2010124627E-01
    0.1500000000E+02    0.2949793770E-01    0.2064854534E-01    0.4217377859E-01    0.9064694564E-02    0.2282423017E-01
    0.1700000000E+02    0.3309490107E-01    0.2295124297E-01    0.4704472527E-01    0.1017012247E-01    0.2546226369E-01
    0.1900000000E+02    0.3662141107E-01    0.2516426730E-01    0.5176554877E-01    0.1125391716E-01    0.2801940888E-01
    0.2100000000E+02    0.4007985799E-01    0.2729193643E-01    0.5634332206E-01    0.1231681244E-01    0.3049947048E-01
    0.2300000000E+02    0.4347252169E-01    0.2933830606E-01    0.6078467682E-01    0.1335950825E-01    0.3290601606E-01
    0.2500000000E+02    0.4680157789E-01    0.3130718892E-01    0.6509583743E-01    0.1438267252E-01    0.3524239426E-01
    0.2700000000E+02    0.5006910404E-01    0.3320217260E-01    0.6928265186E-01    0.1538694302E-01    0.3751175138E-01
    0.2900000000E+02    0.5327708479E-01    0.3502663574E-01    0.7335061974E-01    0.1637292908E-01    0.3971704650E-01
    0.3100000000E+02    0.5642741716E-01    0.3678376287E-01    0.7730491806E-01    0.1734121306E-01    0.4186106524E-01
    0.3300000000E+02    0.5952191528E-01    0.3847655803E-01    0.8115042450E-01    0.1829235194E-01    0.4394643231E-01
    0.3500000000E+02    0.6256231491E-01    0.4010785724E-01    0.8489173886E-01    0.1922687860E-01    0.4597562304E-01
    0.3700000000E+02    0.6555027761E-01    0.4168033991E-01    0.8853320262E-01    0.2014530315E-01    0.4795097386E-01
    0.3900000000E+02    0.6848739469E-01    0.4319653944E-01    0.9207891688E-01    0.2104811415E-01    0.4987469198E-01
    0.4100000000E+02    0.7137519087E-01    0.4465885283E-01    0.9553275885E-01    0.2193577971E-01    0.5174886421E-01
    0.4300000000E+02    0.7421512778E-01    0.4606954967E-01    0.9889839693E-01    0.2280874857E-01    0.5357546509E-01
    0.4500000000E+02    0.7700860714E-01    0.4743078035E-01    0.1021793047E+00    0.2366745107E-01    0.5535636438E-01
    0.4700000000E+02    0.7975697386E-01    0.4874458368E-01    0.1053787736E+00    0.2451230013E-01    0.5709333395E-01
    0.4900000000E+02    0.8246151887E-01    0.5001289392E-01    0.1084999250E+00    0.2534369209E-01    0.5878805413E-01
    0.1000000000E+02    0.2018053188E-01    0.1446851782E-01    0.2928877398E-01    0.6201333050E-02    0.1584790897E-01
    0.3000000000E+02    0.5485934175E-01    0.3591342447E-01    0.7534166598E-01    0.1685924844E-01    0.4079654774E-01
    0.5000000000E+02    0.8379774757E-01    0.5063056662E-01    0.1100320632E+00    0.2575446119E-01    0.5962007221E-01
    0.7000000000E+02    0.1084984964E+00    0.6099567123E-01    0.1372082008E+00    0.3334833385E-01    0.7438965620E-01
    0.9000000000E+02    0.1299644366E+00    0.6841894155E-01    0.1591453289E+00    0.3994876748E-01    0.8633054772E-01
    0.1100000000E+03    0.1488913476E+00    0.7378540099E-01    0.1772767738E+00    0.4576939344E-01    0.9621502657E-01
    0.1300000000E+03    0.1657780417E+00    0.7767516397E-01    0.1925515617E+00    0.5096337205E-01    0.1045547021E+00
    0.1500000000E+03    0.1809922898E+00    0.8048199784E-01    0.2056237918E+00    0.5564363116E-01    0.1117023766E+00
    0.1700000000E+03    0.1948119139E+00    0.8248094988E-01    0.2169594498E+00    0.5989548157E-01    0.1179095196E+00
    0.1900000000E+03    0.2074512970E+00    0.8386878517E-01    0.2268998431E+00    0.6378475577E-01    0.1233604126E+00
    0.2100000000E+03    0.2190790031E+00    0.8478913436E-01    0.2357009274E+00    0.6736321774E-01    0.1281933233E+00
    0.2300000000E+03    0.2298297996E+00    0.8534866063E-01    0.2435585903E+00    0.7067225406E-01    0.1325141243E+00
    0.2500000000E+03    0.2398130511E+00    0.8562775329E-01    0.2506254226E+00    0.7374545117E-01    0.1364053284E+00
    0.2700000000E+03    0.2491187032E+00    0.8568777803E-01    0.2570221473E+00    0.7661043258E-01    0.1399322490E+00
    0.2900000000E+03    0.2578216268E+00    0.8557610021E-01    0.2628455969E+00    0.7929019284E-01    0.1431473000E+00
    0.3100000000E+03    0.2659848264E+00    0.8532963235E-01    0.2681743982E+00    0.8180408267E-01    0.1460930617E+00
    0.3300000000E+03    0.2736618458E+00    0.8497738249E-01    0.2730730999E+00    0.8416854753E-01    0.1488045080E+00
    0.3500000000E+03    0.2808985966E+00    0.8454231272E-01    0.2775952209E+00    0.8639768921E-01    0.1513106504E+00
    0.3700000000E+03    0.2877347668E+00    0.8404271342E-01    0.2817855352E+00    0.8850369831E-01    0.1536357719E+00
    0.3900000000E+03    0.2942049186E+00    0.8349323197E-01    0.2856818080E+00    0.9049719133E-01    0.1558003642E+00
    0.4100000000E+03    0.3003393534E+00    0.8290565149E-01    0.2893161318E+00    0.9238747630E-01    0.1578218493E+00
    0.4300000000E+03    0.3061648002E+00    0.8228948637E-01    0.2927159661E+00    0.9418276422E-01    0.1597151412E+00
    0.4500000000E+03    0.3117049697E+00    0.8165244196E-01    0.2959049550E+00    0.9589033904E-01    0.1614930879E+00
    0.4700000000E+03    0.3169810023E+00    0.8100077242E-01    0.2989035763E+00    0.9751669546E-01    0.1631668218E+00
    0.4900000000E+03    0.3220118361E+00    0.8033956148E-01    0.3017296617E+00    0.9906765175E-01    0.1647460419E+00
    0.1000000000E+03    0.1397104064E+00    0.7131759001E-01    0.1686188568E+00    0.4294585145E-01    0.9149323814E-01
    0.3000000000E+03    0.2619671477E+00    0.8546774133E-01    0.2655675045E+00    0.8056678293E-01    0.1446514995E+00
    0.5000000000E+03    0.3244406948E+00    0.8000670217E-01    0.3030829575E+00    0.9981651128E-01    0.1655029047E+00
    0.7000000000E+03    0.3635103215E+00    0.7351398964E-01    0.3240191998E+00    0.1118692621E+00    0.1772731396E+00
    0.9000000000E+03    0.3902527907E+00    0.6792635390E-01    0.3377356466E+00    0.1201287925E+00    0.1850624521E+00
    0.1100000000E+04    0.4096162167E+00    0.6331881447E-01    0.3475758045E+00    0.1261162812E+00    0.1907015444E+00
    0.1300000000E+04    0.4242157876E+00    0.5951155358E-01    0.3550603628E+00    0.1306360631E+00    0.1950267062E+00
    0.1500000000E+04    0.4355728728E+00    0.5632592308E-01    0.3609906711E+00    0.1341562582E+00    0.1984804343E+00
    0.1700000000E+04    0.4446319797E+00    0.5362173207E-01    0.3658334188E+00    0.1369676114E+00    0.2013214217E+00
    0.1900000000E+04    0.4520088118E+00    0.5129436257E-01    0.3698808628E+00    0.1392597317E+00    0.2037122618E+00
    0.2100000000E+04    0.4581206387E+00    0.4926622085E-01    0.3733264122E+00    0.1411611724E+00    0.2057609296E+00
    0.2300000000E+04    0.4632594678E+00    0.4747928131E-01    0.3763037438E+00    0.1427619326E+00    0.2075423018E+00
    0.2500000000E+04    0.4676352631E+00    0.4588957578E-01    0.3789085496E+00    0.1441267515E+00    0.2091101499E+00
    0.2700000000E+04    0.4714025527E+00    0.4446329878E-01    0.3812113431E+00    0.1453032949E+00    0.2105042193E+00
    0.2900000000E+04    0.4746773925E+00    0.4317407884E-01    0.3832653621E+00    0.1463273760E+00    0.2117546071E+00
    0.3100000000E+04    0.4775485092E+00    0.4200105762E-01    0.3851116417E+00    0.1472263861E+00    0.2128845791E+00
    0.3300000000E+04    0.4800848136E+00    0.4092752328E-01    0.3867823808E+00    0.1480216076E+00    0.2139124418E+00
    0.3500000000E+04    0.4823405834E+00    0.3993992576E-01    0.3883032401E+00    0.1487298106E+00    0.2148528244E+00
    0.3700000000E+04    0.4843591137E+00    0.3902715762E-01    0.3896949507E+00    0.1493643777E+00    0.2157175771E+00
    0.3900000000E+04    0.4861753345E+00    0.3818002173E-01    0.3909744650E+00    0.1499361100E+00    0.2165164150E+00
    0.4100000000E+04    0.4878177192E+00    0.3739083216E-01    0.3921557959E+00    0.1504538161E+00    0.2172573889E+00
    0.4300000000E+04    0.4893096974E+00    0.3665311126E-01    0.3932506391E+00    0.1509247471E+00    0.2179472349E+00
    0.4500000000E+04    0.4906707146E+00    0.3596135705E-01    0.3942688417E+00    0.1513549237E+00    0.2185916379E+00
    0.4700000000E+04    0.4919170379E+00    0.3531086259E-01    0.3952187610E+00    0.1517493847E+00    0.2191954343E+00
    0.4900000000E+04    0.4930623742E+00    0.3469757440E-01    0.3961075408E+00    0.1521123776E+00    0.2197627675E+00
    0.1000000000E+04    0.4006586912E+00    0.6551026522E-01    0.3430211075E+00    0.1233455931E+00    0.1880853242E+00
    0.3000000000E+04    0.4761587146E+00    0.4257417199E-01    0.3842122808E+00    0.1467910631E+00    0.2123334020E+00
    0.5000000000E+04    0.4936008761E+00    0.3440376652E-01    0.3965309584E+00    0.1522832217E+00    0.2200338966E+00
    0.7000000000E+04    0.5011394770E+00    0.2983172822E-01    0.4029127044E+00    0.1546903953E+00    0.2241978124E+00
    0.9000000000E+04    0.5053094675E+00    0.2678433662E-01    0.4069348605E+00    0.1560407556E+00    0.2269167831E+00
    0.1100000000E+05    0.5079460225E+00    0.2455642295E-01    0.4097480942E+00    0.1569066193E+00    0.2288781822E+00
    0.1300000000E+05    0.5097592821E+00    0.2283123464E-01    0.4118481806E+00    0.1575105083E+00    0.2303835373E+00
    0.1500000000E+05    0.5110805751E+00    0.2144172123E-01    0.4134876027E+00    0.1579567382E+00    0.2315888612E+00
    0.1700000000E+05    0.5120849029E+00    0.2029000055E-01    0.4148098939E+00    0.1583006688E+00    0.2325841304E+00
    0.1900000000E+05    0.5128732715E+00    0.1931426725E-01    0.4159033061E+00    0.1585744042E+00    0.2334254058E+00
    0.2100000000E+05    0.5135080040E+00    0.1847324854E-01    0.4168253939E+00    0.1587978473E+00    0.2341497041E+00
    0.2300000000E+05    0.5140296128E+00    0.1773815520E-01    0.4176154578E+00    0.1589839976E+00    0.2347825976E+00
    0.2500000000E+05    0.5144655591E+00    0.1708819177E-01    0.4183013433E+00    0.1591417085E+00    0.2353424064E+00
    0.2700000000E+05    0.5148351084E+00    0.1650790028E-01    0.4189033867E+00    0.1592772204E+00    0.2358426514E+00
    0.2900000000E+05    0.5151521711E+00    0.1598551178E-01    0.4194368221E+00    0.1593950607E+00    0.2362935633E+00
    0.3100000000E+05    0.5154270390E+00    0.1551188206E-01    0.4199133097E+00    0.1594985949E+00    0.2367030487E+00
    0.3300000000E+05    0.5156674884E+00    0.1507978106E-01    0.4203419409E+00    0.1595903778E+00    0.2370773298E+00
    0.3500000000E+05    0.5158795028E+00    0.1468340472E-01    0.4207299195E+00    0.1596723846E+00    0.2374213813E+00
    0.3700000000E+05    0.5160677604E+00    0.1431803131E-01    0.4210830349E+00    0.1597461669E+00    0.2377392357E+00
    0.3900000000E+05    0.5162359713E+00    0.1397977405E-01    0.4214059980E+00    0.1598129608E+00    0.2380342020E+00
    0.4100000000E+05    0.5163871148E+00    0.1366539970E-01    0.4217026852E+00    0.1598737639E+00    0.2383090255E+00
    0.4300000000E+05    0.5165236107E+00    0.1337219325E-01    0.4219763183E+00    0.1599293900E+00    0.2385660058E+00
    0.4500000000E+05    0.5166474442E+00    0.1309785542E-01    0.4222295989E+00    0.1599805100E+00    0.2388070863E+00
    0.4700000000E+05    0.5167602594E+00    0.1284042395E-01    0.4224648116E+00    0.1600276821E+00    0.2390339225E+00
    0.4900000000E+05    0.5168634292E+00    0.1259821241E-01    0.4226839020E+00    0.1600713745E+00    0.2392479350E+00
    0.1000000000E+05    0.5067617421E+00    0.2559278138E-01    0.4084533203E+00    0.1565161972E+00    0.2279684017E+00
    0.3000000000E+05    0.5152943443E+00    0.1574309224E-01    0.4196815652E+00    0.1594484406E+00    0.2365030618E+00
    0.5000000000E+05    0.5169117654E+00    0.1248235048E-01    0.4227879323E+00    0.1600920420E+00    0.2393505224E+00
    0.7000000000E+05    0.5175754220E+00    0.1069521676E-01    0.4243253084E+00    0.1603929738E+00    0.2409548494E+00
    0.9000000000E+05    0.5179288941E+00    0.9522620981E-02    0.4252580385E+00    0.1605742084E+00    0.2420378452E+00
    0.1100000000E+06    0.5181444437E+00    0.8676006594E-02    0.4258880711E+00    0.1606985109E+00    0.2428410942E+00
    0.1300000000E+06    0.5182872772E+00    0.8027050333E-02    0.4263430310E+00    0.1607907891E+00    0.2434724464E+00
    0.1500000000E+06    0.5183873779E+00    0.7508730814E-02    0.4266869023E+00    0.1608630284E+00    0.2439886150E+00
    0.1700000000E+06    0.5184603954E+00    0.7082133747E-02    0.4269555631E+00    0.1609217665E+00    0.2444227978E+00
    0.1900000000E+06    0.5185152650E+00    0.6722892363E-02    0.4271707996E+00    0.1609709005E+00    0.2447959647E+00
    0.2100000000E+06    0.5185574423E+00    0.6414858066E-02    0.4273466553E+00    0.1610129123E+00    0.2451221387E+00
    0.2300000000E+06    0.5185904370E+00    0.6146843933E-02    0.4274926143E+00    0.1610494660E+00    0.2454111224E+00
    0.2500000000E+06    0.5186166027E+00    0.5910819526E-02    0.4276153254E+00    0.1610817240E+00    0.2456700162E+00
    0.2700000000E+06    0.5186375734E+00    0.5700849290E-02    0.4277195949E+00    0.1611105262E+00    0.2459041147E+00
    0.2900000000E+06    0.5186545158E+00    0.5512437472E-02    0.4278089873E+00    0.1611364965E+00    0.2461174637E+00
    0.3100000000E+06    0.5186682833E+00    0.5342107426E-02    0.4278862045E+00    0.1611601096E+00    0.2463132182E+00
    0.3300000000E+06    0.5186795137E+00    0.5187122164E-02    0.4279533327E+00    0.1611817339E+00    0.2464938833E+00
    0.3500000000E+06    0.5186886917E+00    0.5045293283E-02    0.4280120097E+00    0.1612016605E+00    0.2466614781E+00
    0.3700000000E+06    0.5186961920E+00    0.4914847014E-02    0.4280635394E+00    0.1612201230E+00    0.2468176523E+00
    0.3900000000E+06    0.5187023080E+00    0.4794328237E-02    0.4281089729E+00    0.1612373112E+00    0.2469637700E+00
    0.4100000000E+06    0.5187072723E+00    0.4682530346E-02    0.4281491673E+00    0.1612533815E+00    0.2471009707E+00
    0.4300000000E+06    0.5187112715E+00    0.4578443131E-02    0.4281848284E+00    0.1612684640E+00    0.2472302159E+00
    0.4500000000E+06    0.5187144568E+00    0.4481213435E-02    0.4282165430E+00    0.1612826677E+00    0.2473523232E+00
    0.4700000000E+06    0.5187169516E+00    0.4390115044E-02    0.4282448026E+00    0.1612960853E+00    0.2474679937E+00
    0.4900000000E+06    0.5187188575E+00    0.4304525349E-02    0.4282700221E+00    0.1613087957E+00    0.2475778327E+00
    0.1000000000E+06    0.5180485905E+00    0.9068655412E-02    0.4256007364E+00    0.1606414688E+00    0.2424659725E+00
    0.3000000000E+06    0.5186617523E+00    0.5425198047E-02    0.4278489752E+00    0.1611485726E+00    0.2462173706E+00
    0.5000000000E+06    0.5187196166E+00    0.4263625444E-02    0.4282816042E+00    0.1613149074E+00    0.2476307324E+00
    0.7000000000E+06    0.5187183546E+00    0.3636150649E-02    0.4284166708E+00    0.1614124579E+00    0.2484803582E+00
    0.9000000000E+06    0.5187033783E+00    0.3227834075E-02    0.4284532986E+00    0.1614810461E+00    0.2490800193E+00
    0.1100000000E+07    0.5186848113E+00    0.2934649354E-02    0.4284480472E+00    0.1615338041E+00    0.2495400625E+00
    0.1300000000E+07    0.5186657162E+00    0.2710811875E-02    0.4284226289E+00    0.1615766199E+00    0.2499115747E+00
    0.1500000000E+07    0.5186471422E+00    0.2532582133E-02    0.4283868986E+00    0.1616126251E+00    0.2502222115E+00
    0.1700000000E+07    0.5186294455E+00    0.2386251612E-02    0.4283458298E+00    0.1616436784E+00    0.2504885583E+00
    0.1900000000E+07    0.5186127178E+00    0.2263273490E-02    0.4283021176E+00    0.1616709715E+00    0.2507213113E+00
    0.2100000000E+07    0.5185969453E+00    0.2158003418E-02    0.4282572953E+00    0.1616953135E+00    0.2509277546E+00
    0.2300000000E+07    0.5185820730E+00    0.2066542748E-02    0.4282122629E+00    0.1617172782E+00    0.2511130634E+00
    0.2500000000E+07    0.5185680325E+00    0.1986099855E-02    0.4281675581E+00    0.1617372875E+00    0.2512810407E+00
    0.2700000000E+07    0.5185547535E+00    0.1914615818E-02    0.4281235028E+00    0.1617556603E+00    0.2514345603E+00
    0.2900000000E+07    0.5185421693E+00    0.1850534099E-02    0.4280802866E+00    0.1617726435E+00    0.2515758447E+00
    0.3100000000E+07    0.5185302189E+00    0.1792653014E-02    0.4280380165E+00    0.1617884322E+00    0.2517066466E+00
    0.3300000000E+07    0.5185188470E+00    0.1740027951E-02    0.4279967466E+00    0.1618031831E+00    0.2518283719E+00
    0.3500000000E+07    0.5185080040E+00    0.1691904645E-02    0.4279564971E+00    0.1618170241E+00    0.2519421648E+00
    0.3700000000E+07    0.5184976459E+00    0.1647672488E-02    0.4279172666E+00    0.1618300607E+00    0.2520489684E+00
    0.3900000000E+07    0.5184877332E+00    0.1606831117E-02    0.4278790398E+00    0.1618423813E+00    0.2521495694E+00
    0.4100000000E+07    0.5184782308E+00    0.1568966047E-02    0.4278417923E+00    0.1618540602E+00    0.2522446299E+00
    0.4300000000E+07    0.5184691074E+00    0.1533730585E-02    0.4278054949E+00    0.1618651611E+00    0.2523347129E+00
    0.4500000000E+07    0.5184603347E+00    0.1500832188E-02    0.4277701151E+00    0.1618757383E+00    0.2524203006E+00
    0.4700000000E+07    0.5184518877E+00    0.1470022041E-02    0.4277356189E+00    0.1618858391E+00    0.2525018092E+00
    0.4900000000E+07    0.5184437436E+00    0.1441086986E-02    0.4277019721E+00    0.1618955044E+00    0.2525796002E+00
    0.1000000000E+07    0.5186942775E+00    0.3070458139E-02    0.4284541350E+00    0.1615089429E+00    0.2493235181E+00
    0.3000000000E+07    0.5185361185E+00    0.1820882639E-02    0.4280590289E+00    0.1617806766E+00    0.2516424611E+00
    0.5000000000E+07    0.5184397786E+00    0.1427264173E-02    0.4276854567E+00    0.1619001852E+00    0.2526172020E+00
    0.7000000000E+07    0.5183723284E+00    0.1215527113E-02    0.4273920495E+00    0.1619777319E+00    0.2532334729E+00
    0.9000000000E+07    0.5183205165E+00    0.1078069917E-02    0.4271524222E+00    0.1620352405E+00    0.2536826462E+00
    0.1100000000E+08    0.5182784667E+00    0.9795268814E-03    0.4269500223E+00    0.1620809695E+00    0.2540353085E+00
    0.1300000000E+08    0.5182430856E+00    0.9043787904E-03    0.4267747505E+00    0.1621189345E+00    0.2543252262E+00
    0.1500000000E+08    0.5182125476E+00    0.8445954163E-03    0.4266200995E+00    0.1621513940E+00    0.2545711393E+00
    0.1700000000E+08    0.5181856862E+00    0.7955468106E-03    0.4264816518E+00    0.1621797450E+00    0.2547845134E+00
    0.1900000000E+08    0.5181617111E+00    0.7543498568E-03    0.4263562759E+00    0.1622049120E+00    0.2549728670E+00
    0.2100000000E+08    0.5181400619E+00    0.7191024227E-03    0.4262416721E+00    0.1622275390E+00    0.2551413931E+00
    0.2300000000E+08    0.5181203270E+00    0.6884917623E-03    0.4261361020E+00    0.1622480921E+00    0.2552938269E+00
    0.2500000000E+08    0.5181021953E+00    0.6615785498E-03    0.4260382191E+00    0.1622669200E+00    0.2554329435E+00
    0.2700000000E+08    0.5180854257E+00    0.6376704225E-03    0.4259469592E+00    0.1622842903E+00    0.2555608602E+00
