  Pressure (Pa) 22mC5-400 (mol/kg) 2mC6-400 (mol/kg) 3mC6-400 (mol/kg) 23mC5-400 (mol/kg) C7-400 (mol/kg)
    0.1000000000E+01    0.2118096599E-02    0.2377850285E-02    0.3156703668E-02    0.4648933858E-03    0.3414960370E-02
    0.3000000000E+01    0.6277886188E-02    0.6941045620E-02    0.9239331545E-02    0.1377922965E-02    0.9996346300E-02
    0.5000000000E+01    0.1033941175E-01    0.1126283387E-01    0.1503314411E-01    0.2269400699E-02    0.1626666713E-01
    0.7000000000E+01    0.1430678493E-01    0.1536004722E-01    0.2055889414E-01    0.3140228234E-02    0.2224824152E-01
    0.9000000000E+01    0.1818388481E-01    0.1924799308E-01    0.2583537752E-01    0.3991256224E-02    0.2796128524E-01
    0.1100000000E+02    0.2197437413E-01    0.2294062475E-01    0.3087965917E-01    0.4823287885E-02    0.3342415369E-01
    0.1300000000E+02    0.2568171417E-01    0.2645068943E-01    0.3570726827E-01    0.5637082258E-02    0.3865355174E-01
    0.1500000000E+02    0.2930917841E-01    0.2978985704E-01    0.4033236763E-01    0.6433357205E-02    0.4366471563E-01
    0.1700000000E+02    0.3285986511E-01    0.3296883268E-01    0.4476790116E-01    0.7212792167E-02    0.4847157140E-01
    0.1900000000E+02    0.3633670891E-01    0.3599745518E-01    0.4902572261E-01    0.7976030706E-02    0.5308687316E-01
    0.2100000000E+02    0.3974249147E-01    0.3888478366E-01    0.5311670827E-01    0.8723682843E-02    0.5752232427E-01
    0.2300000000E+02    0.4307985138E-01    0.4163917385E-01    0.5705085602E-01    0.9456327219E-02    0.6178868367E-01
    0.2500000000E+02    0.4635129321E-01    0.4426834548E-01    0.6083737251E-01    0.1017451310E-01    0.6589585961E-01
    0.2700000000E+02    0.4955919597E-01    0.4677944206E-01    0.6448475021E-01    0.1087876220E-01    0.6985299243E-01
    0.2900000000E+02    0.5270582089E-01    0.4917908393E-01    0.6800083554E-01    0.1156957042E-01    0.7366852778E-01
    0.3100000000E+02    0.5579331864E-01    0.5147341550E-01    0.7139288940E-01    0.1224740942E-01    0.7735028165E-01
    0.3300000000E+02    0.5882373604E-01    0.5366814748E-01    0.7466764098E-01    0.1291272808E-01    0.8090549825E-01
    0.3500000000E+02    0.6179902228E-01    0.5576859455E-01    0.7783133572E-01    0.1356595387E-01    0.8434090151E-01
    0.3700000000E+02    0.6472103467E-01    0.5777970924E-01    0.8088977824E-01    0.1420749412E-01    0.8766274121E-01
    0.3900000000E+02    0.6759154405E-01    0.5970611233E-01    0.8384837066E-01    0.1483773719E-01    0.9087683423E-01
    0.4100000000E+02    0.7041223979E-01    0.6155212015E-01    0.8671214706E-01    0.1545705357E-01    0.9398860155E-01
    0.4300000000E+02    0.7318473441E-01    0.6332176933E-01    0.8948580445E-01    0.1606579692E-01    0.9700310154E-01
    0.4500000000E+02    0.7591056797E-01    0.6501883903E-01    0.9217373061E-01    0.1666430499E-01    0.9992505993E-01
    0.4700000000E+02    0.7859121210E-01    0.6664687119E-01    0.9478002927E-01    0.1725290052E-01    0.1027588968E+00
    0.4900000000E+02    0.8122807376E-01    0.6820918877E-01    0.9730854283E-01    0.1783189209E-01    0.1055087512E+00
    0.1000000000E+02    0.2008973491E-01    0.2111789981E-01    0.2838553910E-01    0.4409598157E-02    0.3072291089E-01
    0.3000000000E+02    0.5425683038E-01    0.5033904688E-01    0.6971193396E-01    0.1191008250E-01    0.7552566187E-01
    0.5000000000E+02    0.8253050905E-01    0.6896668728E-01    0.9854476459E-01    0.1811787913E-01    0.1068534069E+00
    0.7000000000E+02    0.1065787011E+00    0.8133179662E-01    0.1199504473E+00    0.2339878313E-01    0.1301616318E+00
    0.9000000000E+02    0.1274716132E+00    0.8973073368E-01    0.1365630793E+00    0.2798751292E-01    0.1482888736E+00
    0.1100000000E+03    0.1459289094E+00    0.9549141298E-01    0.1498913983E+00    0.3204191189E-01    0.1628621705E+00
    0.1300000000E+03    0.1624535890E+00    0.9943185004E-01    0.1608638625E+00    0.3567230627E-01    0.1748835074E+00
    0.1500000000E+03    0.1774088053E+00    0.1020808622E+00    0.1700843976E+00    0.3895835135E-01    0.1850051014E+00
    0.1700000000E+03    0.1910641042E+00    0.1037935687E+00    0.1779635659E+00    0.4195917181E-01    0.1936706558E+00
    0.1900000000E+03    0.2036243996E+00    0.1048158920E+00    0.1847907113E+00    0.4471971646E-01    0.2011930886E+00
    0.2100000000E+03    0.2152487674E+00    0.1053225011E+00    0.1907759487E+00    0.4727488009E-01    0.2077997900E+00
    0.2300000000E+03    0.2260630034E+00    0.1054401053E+00    0.1960757675E+00    0.4965225782E-01    0.2136602311E+00
    0.2500000000E+03    0.2361682365E+00    0.1052622748E+00    0.2008092688E+00    0.5187403408E-01    0.2189034803E+00
    0.2700000000E+03    0.2456469719E+00    0.1048591606E+00    0.2050688131E+00    0.5395830822E-01    0.2236296947E+00
    0.2900000000E+03    0.2545674193E+00    0.1042840382E+00    0.2089272065E+00    0.5592004390E-01    0.2279178791E+00
    0.3100000000E+03    0.2629866503E+00    0.1035778148E+00    0.2124426754E+00    0.5777176147E-01    0.2318312586E+00
    0.3300000000E+03    0.2709529386E+00    0.1027721966E+00    0.2156623866E+00    0.5952405149E-01    0.2354210831E+00
    0.3500000000E+03    0.2785075220E+00    0.1018919541E+00    0.2186249879E+00    0.6118596109E-01    0.2387293732E+00
    0.3700000000E+03    0.2856859463E+00    0.1009565683E+00    0.2213624748E+00    0.6276528878E-01    0.2417909391E+00
    0.3900000000E+03    0.2925191036E+00    0.9998144371E-01    0.2239015828E+00    0.6426881224E-01    0.2446348869E+00
    0.4100000000E+03    0.2990340435E+00    0.9897881456E-01    0.2262648415E+00    0.6570246630E-01    0.2472857596E+00
    0.4300000000E+03    0.3052546144E+00    0.9795842855E-01    0.2284713836E+00    0.6707148346E-01    0.2497644127E+00
    0.4500000000E+03    0.3112019742E+00    0.9692806893E-01    0.2305375716E+00    0.6838050612E-01    0.2520886934E+00
    0.4700000000E+03    0.3168950023E+00    0.9589395669E-01    0.2324774899E+00    0.6963367679E-01    0.2542739734E+00
    0.4900000000E+03    0.3223506339E+00    0.9486106312E-01    0.2343033348E+00    0.7083471149E-01    0.2563335723E+00
    0.1000000000E+03    0.1369692924E+00    0.9288107692E-01    0.1435699963E+00    0.3007373474E-01    0.1559466321E+00
    0.3000000000E+03    0.2588364866E+00    0.1039451469E+00    0.2107246331E+00    0.5685895285E-01    0.2299179721E+00
    0.5000000000E+03    0.3249942548E+00    0.9434634654E-01    0.2351768527E+00    0.7141673747E-01    0.2573199269E+00
    0.7000000000E+03    0.3684364630E+00    0.8472575254E-01    0.2486354024E+00    0.8098572639E-01    0.2726116779E+00
    0.9000000000E+03    0.3992364068E+00    0.7680287574E-01    0.2574118805E+00    0.8777662594E-01    0.2827025869E+00
    0.1100000000E+04    0.4221016321E+00    0.7043074502E-01    0.2636965017E+00    0.9282295418E-01    0.2900051138E+00
    0.1300000000E+04    0.4396497058E+00    0.6526923523E-01    0.2684728194E+00    0.9669961122E-01    0.2956086019E+00
    0.1500000000E+04    0.4534735855E+00    0.6102778936E-01    0.2722558240E+00    0.9975659610E-01    0.3000863143E+00
    0.1700000000E+04    0.4645997190E+00    0.5748803612E-01    0.2753444019E+00    0.1022195210E+00    0.3037725131E+00
    0.1900000000E+04    0.4737175798E+00    0.5449018836E-01    0.2779253661E+00    0.1042399870E+00    0.3068770362E+00
    0.2100000000E+04    0.4813057616E+00    0.5191719236E-01    0.2801222130E+00    0.1059232646E+00    0.3095391730E+00
    0.2300000000E+04    0.4877056628E+00    0.4968238160E-01    0.2820202492E+00    0.1073444739E+00    0.3118555156E+00
    0.2500000000E+04    0.4931665576E+00    0.4772069077E-01    0.2836805240E+00    0.1085584834E+00    0.3138954477E+00
    0.2700000000E+04    0.4978741847E+00    0.4598255023E-01    0.2851480189E+00    0.1096061909E+00    0.3157102740E+00
    0.2900000000E+04    0.5019694369E+00    0.4442964826E-01    0.2864566956E+00    0.1105186306E+00    0.3173388635E+00
    0.3100000000E+04    0.5055609012E+00    0.4303196650E-01    0.2876327336E+00    0.1113197290E+00    0.3188112775E+00
    0.3300000000E+04    0.5087334663E+00    0.4176568187E-01    0.2886966773E+00    0.1120281974E+00    0.3201511826E+00
    0.3500000000E+04    0.5115543511E+00    0.4061166211E-01    0.2896649022E+00    0.1126588575E+00    0.3213775009E+00
    0.3700000000E+04    0.5140774042E+00    0.3955437263E-01    0.2905506397E+00    0.1132235872E+00    0.3225055679E+00
    0.3900000000E+04    0.5163462220E+00    0.3858107149E-01    0.2913647115E+00    0.1137320061E+00    0.3235479628E+00
    0.4100000000E+04    0.5183964422E+00    0.3768120922E-01    0.2921160640E+00    0.1141919809E+00    0.3245151147E+00
    0.4300000000E+04    0.5202574560E+00    0.3684597581E-01    0.2928121655E+00    0.1146100014E+00    0.3254157537E+00
    0.4500000000E+04    0.5219537006E+00    0.3606795498E-01    0.2934593049E+00    0.1149914657E+00    0.3262572514E+00
    0.4700000000E+04    0.5235056469E+00    0.3534085733E-01    0.2940628201E+00    0.1153408975E+00    0.3270458811E+00
    0.4900000000E+04    0.5249305635E+00    0.3465931252E-01    0.2946272746E+00    0.1156621139E+00    0.3277870203E+00
    0.1000000000E+04    0.4114653168E+00    0.7344450898E-01    0.2607884336E+00    0.9047491925E-01    0.2866169739E+00
    0.3000000000E+04    0.5038223623E+00    0.4371301899E-01    0.2870598981E+00    0.1109318236E+00    0.3180929857E+00
    0.5000000000E+04    0.5256000554E+00    0.3433415451E-01    0.2948961031E+00    0.1158131740E+00    0.3281412560E+00
    0.7000000000E+04    0.5349329263E+00    0.2938179457E-01    0.2989397293E+00    0.1179310991E+00    0.3335845183E+00
    0.9000000000E+04    0.5400535044E+00    0.2618356632E-01    0.3014766907E+00    0.1191078507E+00    0.3371407124E+00
    0.1100000000E+05    0.5432708039E+00    0.2389029528E-01    0.3032426390E+00    0.1198566637E+00    0.3397058522E+00
    0.1300000000E+05    0.5454730122E+00    0.2213738437E-01    0.3045544829E+00    0.1203757875E+00    0.3416737820E+00
    0.1500000000E+05    0.5470719957E+00    0.2073851177E-01    0.3055735233E+00    0.1207575418E+00    0.3432485624E+00
    0.1700000000E+05    0.5482841025E+00    0.1958697981E-01    0.3063913845E+00    0.1210506274E+00    0.3445479968E+00
    0.1900000000E+05    0.5492336095E+00    0.1861657457E-01    0.3070643473E+00    0.1212831388E+00    0.3456455368E+00
    0.2100000000E+05    0.5499968846E+00    0.1778367171E-01    0.3076290763E+00    0.1214724142E+00    0.3465897070E+00
    0.2300000000E+05    0.5506233953E+00    0.1705816738E-01    0.3081105782E+00    0.1216297330E+00    0.3474140429E+00
    0.2500000000E+05    0.5511465701E+00    0.1641850606E-01    0.3085265495E+00    0.1217627501E+00    0.3481425753E+00
    0.2700000000E+05    0.5515897992E+00    0.1584878061E-01    0.3088898978E+00    0.1218768450E+00    0.3487930432E+00
    0.2900000000E+05    0.5519699319E+00    0.1533695373E-01    0.3092102798E+00    0.1219759094E+00    0.3493788702E+00
    0.3100000000E+05    0.5522994089E+00    0.1487372106E-01    0.3094950767E+00    0.1220628293E+00    0.3499104311E+00
    0.3300000000E+05    0.5525876135E+00    0.1445175872E-01    0.3097500360E+00    0.1221397910E+00    0.3503958904E+00
    0.3500000000E+05    0.5528417543E+00    0.1406521016E-01    0.3099797054E+00    0.1222084810E+00    0.3508417754E+00
    0.3700000000E+05    0.5530674595E+00    0.1370932708E-01    0.3101877347E+00    0.1222702220E+00    0.3512533767E+00
    0.3900000000E+05    0.5532691868E+00    0.1338021260E-01    0.3103770897E+00    0.1223260661E+00    0.3516350356E+00
    0.4100000000E+05    0.5534505121E+00    0.1307463373E-01    0.3105502072E+00    0.1223768609E+00    0.3519903529E+00
    0.4300000000E+05    0.5536143367E+00    0.1278988218E-01    0.3107091099E+00    0.1224232969E+00    0.3523223445E+00
    0.4500000000E+05    0.5537630389E+00    0.1252366929E-01    0.3108554914E+00    0.1224659429E+00    0.3526335591E+00
    0.4700000000E+05    0.5538985868E+00    0.1227404566E-01    0.3109907817E+00    0.1225052712E+00    0.3529261670E+00
    0.4900000000E+05    0.5540226225E+00    0.1203933891E-01    0.3111161971E+00    0.1225416779E+00    0.3532020305E+00
    0.1000000000E+05    0.5418278007E+00    0.2495268186E-01    0.3024309349E+00    0.1195196375E+00    0.3385161205E+00
    0.3000000000E+05    0.5521403563E+00    0.1509976035E-01    0.3093567348E+00    0.1220207371E+00    0.3496508796E+00
    0.5000000000E+05    0.5540807635E+00    0.1192712026E-01    0.3111755332E+00    0.1225588922E+00    0.3533341943E+00
    0.7000000000E+05    0.5548820305E+00    0.1020028710E-01    0.3120325669E+00    0.1228090530E+00    0.3553942220E+00
    0.9000000000E+05    0.5553130794E+00    0.9071086921E-02    0.3125274368E+00    0.1229592870E+00    0.3567762755E+00
    0.1100000000E+06    0.5555791055E+00    0.8257500546E-02    0.3128449917E+00    0.1230621586E+00    0.3577959247E+00
    0.1300000000E+06    0.5557577874E+00    0.7634762176E-02    0.3130622128E+00    0.1231384464E+00    0.3585936726E+00
    0.1500000000E+06    0.5558848955E+00    0.7137920209E-02    0.3132171417E+00    0.1231981241E+00    0.3592432119E+00
    0.1700000000E+06    0.5559791422E+00    0.6729347571E-02    0.3133308097E+00    0.1232466225E+00    0.3597875740E+00
    0.1900000000E+06    0.5560512406E+00    0.6385523303E-02    0.3134158094E+00    0.1232871749E+00    0.3602538772E+00
    0.2100000000E+06    0.5561077526E+00    0.6090879926E-02    0.3134801452E+00    0.1233218382E+00    0.3606602161E+00
    0.2300000000E+06    0.5561529135E+00    0.5834644593E-02    0.3135291480E+00    0.1233519905E+00    0.3610192134E+00
    0.2500000000E+06    0.5561895746E+00    0.5609090955E-02    0.3135665031E+00    0.1233785941E+00    0.3613399940E+00
    0.2700000000E+06    0.5562197223E+00    0.5408512501E-02    0.3135948371E+00    0.1234023436E+00    0.3616293498E+00
    0.2900000000E+06    0.5562447809E+00    0.5228589764E-02    0.3136160709E+00    0.1234237550E+00    0.3618924607E+00
    0.3100000000E+06    0.5562657970E+00    0.5065984309E-02    0.3136316396E+00    0.1234432207E+00    0.3621333602E+00
    0.3300000000E+06    0.5562835556E+00    0.4918069266E-02    0.3136426356E+00    0.1234610449E+00    0.3623552449E+00
    0.3500000000E+06    0.5562986563E+00    0.4782745221E-02    0.3136499038E+00    0.1234774684E+00    0.3625606877E+00
    0.3700000000E+06    0.5563115647E+00    0.4658311217E-02    0.3136541072E+00    0.1234926839E+00    0.3627517874E+00
    0.3900000000E+06    0.5563226470E+00    0.4543372371E-02    0.3136557722E+00    0.1235068483E+00    0.3629302771E+00
    0.4100000000E+06    0.5563321953E+00    0.4436772417E-02    0.3136553215E+00    0.1235200906E+00    0.3630976025E+00
    0.4300000000E+06    0.5563404448E+00    0.4337543586E-02    0.3136530977E+00    0.1235325181E+00    0.3632549817E+00
    0.4500000000E+06    0.5563475871E+00    0.4244868795E-02    0.3136493814E+00    0.1235442210E+00    0.3634034494E+00
    0.4700000000E+06    0.5563537795E+00    0.4158052719E-02    0.3136444037E+00    0.1235552756E+00    0.3635438917E+00
    0.4900000000E+06    0.5563591524E+00    0.4076499378E-02    0.3136383564E+00    0.1235657472E+00    0.3636770726E+00
    0.1000000000E+06    0.5554603860E+00    0.8634661863E-02    0.3127022289E+00    0.1230149672E+00    0.3573203640E+00
    0.3000000000E+06    0.5562557401E+00    0.5145300748E-02    0.3136244884E+00    0.1234337103E+00    0.3620154704E+00
    0.5000000000E+06    0.5563615663E+00    0.4037532754E-02    0.3136349829E+00    0.1235707822E+00    0.3637411506E+00
    0.7000000000E+06    0.5563856693E+00    0.3440088362E-02    0.3135391220E+00    0.1236511348E+00    0.3647645242E+00
    0.9000000000E+06    0.5563874256E+00    0.3051702905E-02    0.3134234176E+00    0.1237076185E+00    0.3654800463E+00
    0.1100000000E+07    0.5563811766E+00    0.2773031464E-02    0.3133073412E+00    0.1237510593E+00    0.3660250583E+00
    0.1300000000E+07    0.5563717608E+00    0.2560394976E-02    0.3131962581E+00    0.1237863100E+00    0.3664626688E+00
    0.1500000000E+07    0.5563611267E+00    0.2391162640E-02    0.3130915208E+00    0.1238159510E+00    0.3668268335E+00
    0.1700000000E+07    0.5563501441E+00    0.2252273842E-02    0.3129931738E+00    0.1238415135E+00    0.3671378122E+00
    0.1900000000E+07    0.5563392232E+00    0.2135589629E-02    0.3129008264E+00    0.1238639794E+00    0.3674086135E+00
    0.2100000000E+07    0.5563285607E+00    0.2035737205E-02    0.3128139649E+00    0.1238840150E+00    0.3676480617E+00
    0.2300000000E+07    0.5563182473E+00    0.1949006803E-02    0.3127320691E+00    0.1239020931E+00    0.3678624043E+00
    0.2500000000E+07    0.5563083195E+00    0.1872742876E-02    0.3126546555E+00    0.1239185612E+00    0.3680562184E+00
    0.2700000000E+07    0.5562987850E+00    0.1804987408E-02    0.3125812893E+00    0.1239336819E+00    0.3682329529E+00
    0.2900000000E+07    0.5562896366E+00    0.1744260524E-02    0.3125115857E+00    0.1239476584E+00    0.3683952680E+00
    0.3100000000E+07    0.5562808593E+00    0.1689419984E-02    0.3124452063E+00    0.1239606516E+00    0.3685452567E+00
    0.3300000000E+07    0.5562724346E+00    0.1639568096E-02    0.3123818536E+00    0.1239727903E+00    0.3686845940E+00
    0.3500000000E+07    0.5562643425E+00    0.1593988198E-02    0.3123212661E+00    0.1239841800E+00    0.3688146404E+00
    0.3700000000E+07    0.5562565631E+00    0.1552100228E-02    0.3122632132E+00    0.1239949075E+00    0.3689365152E+00
    0.3900000000E+07    0.5562490770E+00    0.1513428938E-02    0.3122074912E+00    0.1240050455E+00    0.3690511501E+00
    0.4100000000E+07    0.5562418658E+00    0.1477580708E-02    0.3121539190E+00    0.1240146554E+00    0.3691593282E+00
    0.4300000000E+07    0.5562349122E+00    0.1444226345E-02    0.3121023358E+00    0.1240237895E+00    0.3692617142E+00
    0.4500000000E+07    0.5562282003E+00    0.1413088116E-02    0.3120525976E+00    0.1240324925E+00    0.3693588765E+00
    0.4700000000E+07    0.5562217151E+00    0.1383929830E-02    0.3120045755E+00    0.1240408033E+00    0.3694513050E+00
    0.4900000000E+07    0.5562154428E+00    0.1356549174E-02    0.3119581535E+00    0.1240487558E+00    0.3695394249E+00
    0.1000000000E+07    0.5563848946E+00    0.2902095706E-02    0.3133649403E+00    0.1237305893E+00    0.3657689466E+00
    0.3000000000E+07    0.5562852027E+00    0.1716165441E-02    0.3124780000E+00    0.1239542692E+00    0.3684716901E+00
    0.5000000000E+07    0.5562123826E+00    0.1343469990E-02    0.3119355094E+00    0.1240526070E+00    0.3695819869E+00
    0.7000000000E+07    0.5561597641E+00    0.1143214555E-02    0.3115458762E+00    0.1241164059E+00    0.3702766034E+00
    0.9000000000E+07    0.5561187880E+00    0.1013310271E-02    0.3112409296E+00    0.1241637143E+00    0.3707794983E+00
    0.1100000000E+08    0.5560852739E+00    0.9202357557E-03    0.3109899353E+00    0.1242013296E+00    0.3711724404E+00
    0.1300000000E+08    0.5560569330E+00    0.8492909854E-03    0.3107764046E+00    0.1242325567E+00    0.3714942741E+00
    0.1500000000E+08    0.5560323849E+00    0.7928735588E-03    0.3105904487E+00    0.1242592541E+00    0.3717664436E+00
    0.1700000000E+08    0.5560107357E+00    0.7466020584E-03    0.3104256607E+00    0.1242825715E+00    0.3720020138E+00
    0.1900000000E+08    0.5559913732E+00    0.7077491139E-03    0.3102776477E+00    0.1243032695E+00    0.3722095216E+00
    0.2100000000E+08    0.5559738607E+00    0.6745159091E-03    0.3101432640E+00    0.1243218779E+00    0.3723948464E+00
    0.2300000000E+08    0.5559578755E+00    0.6456613449E-03    0.3100201781E+00    0.1243387803E+00    0.3725622058E+00
    0.2500000000E+08    0.5559431725E+00    0.6202975823E-03    0.3099066132E+00    0.1243542637E+00    0.3727147259E+00
    0.2700000000E+08    0.5559295612E+00    0.5977703561E-03    0.3098011835E+00    0.1243685480E+00    0.3728547875E+00
