  Pressure (Pa) 22mC5-400 (mol/kg) 2mC6-400 (mol/kg) 3mC6-400 (mol/kg) 23mC5-400 (mol/kg) C7-400 (mol/kg)
    0.1000000000E+01    0.2115423105E-02    0.3960371536E-02    0.3682136224E-02    0.2785840837E-03    0.1707160773E-02
    0.3000000000E+01    0.6254682363E-02    0.1154534072E-01    0.1077358075E-01    0.8236991181E-03    0.4995540756E-02
    0.5000000000E+01    0.1027721780E-01    0.1871077600E-01    0.1752432677E-01    0.1353452832E-02    0.8126634627E-02
    0.7000000000E+01    0.1418909483E-01    0.2548760178E-01    0.2395963497E-01    0.1868643349E-02    0.1111208809E-01
    0.9000000000E+01    0.1799595265E-01    0.3190381007E-01    0.3010229954E-01    0.2370012715E-02    0.1396241055E-01
    0.1100000000E+02    0.2170304122E-01    0.3798480065E-01    0.3597294314E-01    0.2858251762E-02    0.1668711098E-01
    0.1300000000E+02    0.2531525446E-01    0.4375367468E-01    0.4159027057E-01    0.3334004474E-02    0.1929481468E-01
    0.1500000000E+02    0.2883716010E-01    0.4923148913E-01    0.4697128751E-01    0.3797871917E-02    0.2179336405E-01
    0.1700000000E+02    0.3227302657E-01    0.5443747805E-01    0.5213149005E-01    0.4250415777E-02    0.2418990587E-01
    0.1900000000E+02    0.3562684727E-01    0.5938924552E-01    0.5708502930E-01    0.4692161551E-02    0.2649096710E-01
    0.2100000000E+02    0.3890236253E-01    0.6410293457E-01    0.6184485490E-01    0.5123601436E-02    0.2870252102E-01
    0.2300000000E+02    0.4210307950E-01    0.6859337543E-01    0.6642284052E-01    0.5545196949E-02    0.3083004498E-01
    0.2500000000E+02    0.4523229013E-01    0.7287421608E-01    0.7082989385E-01    0.5957381290E-02    0.3287857111E-01
    0.2700000000E+02    0.4829308760E-01    0.7695803738E-01    0.7507605347E-01    0.6360561504E-02    0.3485273092E-01
    0.2900000000E+02    0.5128838119E-01    0.8085645512E-01    0.7917057412E-01    0.6755120440E-02    0.3675679462E-01
    0.3100000000E+02    0.5422090990E-01    0.8458021040E-01    0.8312200223E-01    0.7141418538E-02    0.3859470585E-01
    0.3300000000E+02    0.5709325478E-01    0.8813925019E-01    0.8693824274E-01    0.7519795456E-02    0.4037011256E-01
    0.3500000000E+02    0.5990785030E-01    0.9154279896E-01    0.9062661860E-01    0.7890571566E-02    0.4208639432E-01
    0.3700000000E+02    0.6266699471E-01    0.9479942284E-01    0.9419392367E-01    0.8254049311E-02    0.4374668679E-01
    0.3900000000E+02    0.6537285951E-01    0.9791708696E-01    0.9764646993E-01    0.8610514460E-02    0.4535390341E-01
    0.4100000000E+02    0.6802749815E-01    0.1009032070E+00    0.1009901298E+00    0.8960237246E-02    0.4691075494E-01
    0.4300000000E+02    0.7063285408E-01    0.1037646952E+00    0.1042303739E+00    0.9303473426E-02    0.4841976685E-01
    0.4500000000E+02    0.7319076802E-01    0.1065080025E+00    0.1073723053E+00    0.9640465243E-02    0.4988329506E-01
    0.4700000000E+02    0.7570298480E-01    0.1091391558E+00    0.1104206897E+00    0.9971442318E-02    0.5130353998E-01
    0.4900000000E+02    0.7817115958E-01    0.1116637920E+00    0.1133799836E+00    0.1029662247E-01    0.5268255927E-01
    0.1000000000E+02    0.1986165424E-01    0.3498471304E-01    0.3307041268E-01    0.2615732229E-02    0.1533990498E-01
    0.3000000000E+02    0.5276232628E-01    0.8273952615E-01    0.8116366638E-01    0.6949280396E-02    0.3768378470E-01
    0.5000000000E+02    0.7938922535E-01    0.1128878287E+00    0.1148275357E+00    0.1045710374E-01    0.5335721614E-01
    0.7000000000E+02    0.1017808233E+00    0.1328943614E+00    0.1399851606E+00    0.1340746356E-01    0.6509420217E-01
    0.9000000000E+02    0.1211467706E+00    0.1465954051E+00    0.1596736576E+00    0.1595955678E-01    0.7429763721E-01
    0.1100000000E+03    0.1382533776E+00    0.1561541305E+00    0.1756177376E+00    0.1821423846E-01    0.8176475194E-01
    0.1300000000E+03    0.1536117391E+00    0.1628763633E+00    0.1888731782E+00    0.2023877682E-01    0.8798390091E-01
    0.1500000000E+03    0.1675772334E+00    0.1675927999E+00    0.2001246179E+00    0.2207994672E-01    0.9327197664E-01
    0.1700000000E+03    0.1804056333E+00    0.1708543310E+00    0.2098367843E+00    0.2377141383E-01    0.9784422319E-01
    0.1900000000E+03    0.1922864537E+00    0.1730388550E+00    0.2183370698E+00    0.2533812326E-01    0.1018523730E+00
    0.2100000000E+03    0.2033636540E+00    0.1744129639E+00    0.2258633302E+00    0.2679902417E-01    0.1054067314E+00
    0.2300000000E+03    0.2137489758E+00    0.1751692051E+00    0.2325929145E+00    0.2816882517E-01    0.1085895946E+00
    0.2500000000E+03    0.2235308116E+00    0.1754494558E+00    0.2386610203E+00    0.2945916153E-01    0.1114637374E+00
    0.2700000000E+03    0.2327802666E+00    0.1753600654E+00    0.2441727037E+00    0.3067939312E-01    0.1140779688E+00
    0.2900000000E+03    0.2415554035E+00    0.1749819412E+00    0.2492109745E+00    0.3183716297E-01    0.1164708780E+00
    0.3100000000E+03    0.2499042775E+00    0.1743774311E+00    0.2538423936E+00    0.3293879689E-01    0.1186734256E+00
    0.3300000000E+03    0.2578671490E+00    0.1735951218E+00    0.2581210319E+00    0.3398959459E-01    0.1207107773E+00
    0.3500000000E+03    0.2654781232E+00    0.1726732471E+00    0.2620913282E+00    0.3499404561E-01    0.1226036276E+00
    0.3700000000E+03    0.2727663846E+00    0.1716421514E+00    0.2657901877E+00    0.3595599173E-01    0.1243691725E+00
    0.3900000000E+03    0.2797571387E+00    0.1705260965E+00    0.2692485495E+00    0.3687875099E-01    0.1260218361E+00
    0.4100000000E+03    0.2864723397E+00    0.1693446054E+00    0.2724925734E+00    0.3776521346E-01    0.1275738212E+00
    0.4300000000E+03    0.2929312597E+00    0.1681134744E+00    0.2755445510E+00    0.3861791611E-01    0.1290355319E+00
    0.4500000000E+03    0.2991509378E+00    0.1668455438E+00    0.2784236133E+00    0.3943910204E-01    0.1304159018E+00
    0.4700000000E+03    0.3051465389E+00    0.1655512916E+00    0.2811462863E+00    0.4023076759E-01    0.1317226524E+00
    0.4900000000E+03    0.3109316419E+00    0.1642392938E+00    0.2837269317E+00    0.4099470035E-01    0.1329624975E+00
    0.1000000000E+03    0.1299460170E+00    0.1517966040E+00    0.1680365801E+00    0.1711927347E-01    0.7821254689E-01
    0.3000000000E+03    0.2457804459E+00    0.1747046706E+00    0.2515739062E+00    0.3239464448E-01    0.1175942558E+00
    0.5000000000E+03    0.3137491249E+00    0.1635788908E+00    0.2849679786E+00    0.4136677619E-01    0.1335591940E+00
    0.7000000000E+03    0.3614810821E+00    0.1505953338E+00    0.3046854825E+00    0.4767268873E-01    0.1430822219E+00
    0.9000000000E+03    0.3971284465E+00    0.1391670056E+00    0.3182707150E+00    0.5238567129E-01    0.1496973959E+00
    0.1100000000E+04    0.4246616190E+00    0.1295566253E+00    0.3284445173E+00    0.5602859451E-01    0.1546857895E+00
    0.1300000000E+04    0.4464366045E+00    0.1215122994E+00    0.3364726433E+00    0.5891182687E-01    0.1586459998E+00
    0.1500000000E+04    0.4639852375E+00    0.1147337091E+00    0.3430393989E+00    0.6123723282E-01    0.1619029127E+00
    0.1700000000E+04    0.4783548060E+00    0.1089639678E+00    0.3485536322E+00    0.6314286902E-01    0.1646513181E+00
    0.1900000000E+04    0.4902852142E+00    0.1039998799E+00    0.3532777260E+00    0.6472630287E-01    0.1670166245E+00
    0.2100000000E+04    0.5003122023E+00    0.9968421621E-01    0.3573893735E+00    0.6605820144E-01    0.1690840113E+00
    0.2300000000E+04    0.5088315551E+00    0.9589565406E-01    0.3610140712E+00    0.6719078648E-01    0.1709138009E+00
    0.2500000000E+04    0.5161407659E+00    0.9254010920E-01    0.3642434875E+00    0.6816332216E-01    0.1725501670E+00
    0.2700000000E+04    0.5224669017E+00    0.8954401198E-01    0.3671464568E+00    0.6900578619E-01    0.1740263597E+00
    0.2900000000E+04    0.5279856856E+00    0.8684927687E-01    0.3697758751E+00    0.6974138438E-01    0.1753679872E+00
    0.3100000000E+04    0.5328348250E+00    0.8440958141E-01    0.3721731943E+00    0.7038830737E-01    0.1765951610E+00
    0.3300000000E+04    0.5371234830E+00    0.8218761543E-01    0.3743714500E+00    0.7096097930E-01    0.1777239413E+00
    0.3500000000E+04    0.5409391132E+00    0.8015303797E-01    0.3763973578E+00    0.7147095900E-01    0.1787673416E+00
    0.3700000000E+04    0.5443524624E+00    0.7828094889E-01    0.3782728014E+00    0.7192759977E-01    0.1797360415E+00
    0.3900000000E+04    0.5474212789E+00    0.7655073594E-01    0.3800159110E+00    0.7233853859E-01    0.1806389050E+00
    0.4100000000E+04    0.5501930951E+00    0.7494519713E-01    0.3816418595E+00    0.7271006322E-01    0.1814833629E+00
    0.4300000000E+04    0.5527073384E+00    0.7344986660E-01    0.3831634604E+00    0.7304739073E-01    0.1822757013E+00
    0.4500000000E+04    0.5549969494E+00    0.7205249222E-01    0.3845916234E+00    0.7335488112E-01    0.1830212809E+00
    0.4700000000E+04    0.5570896343E+00    0.7074262717E-01    0.3859357063E+00    0.7363620264E-01    0.1837247071E+00
    0.4900000000E+04    0.5590088429E+00    0.6951130798E-01    0.3872037902E+00    0.7389446088E-01    0.1843899633E+00
    0.1000000000E+04    0.4117369215E+00    0.1341469217E+00    0.3236855619E+00    0.5431818351E-01    0.1523484194E+00
    0.3000000000E+04    0.5304865598E+00    0.8560006543E-01    0.3710013132E+00    0.7007495244E-01    0.1759947956E+00
    0.5000000000E+04    0.5599097509E+00    0.6892264353E-01    0.3878115631E+00    0.7401578343E-01    0.1847093784E+00
    0.7000000000E+04    0.5723889447E+00    0.5985438444E-01    0.3972816738E+00    0.7570441417E-01    0.1897394989E+00
    0.9000000000E+04    0.5791412167E+00    0.5388556042E-01    0.4035883161E+00    0.7662798165E-01    0.1931550382E+00
    0.1100000000E+05    0.5833329469E+00    0.4954368424E-01    0.4081830896E+00    0.7720768910E-01    0.1956851035E+00
    0.1300000000E+05    0.5861740530E+00    0.4618655539E-01    0.4117257414E+00    0.7760503820E-01    0.1976646719E+00
    0.1500000000E+05    0.5882205117E+00    0.4348198310E-01    0.4145662005E+00    0.7789450340E-01    0.1992730741E+00
    0.1700000000E+05    0.5897617357E+00    0.4123776211E-01    0.4169100077E+00    0.7811499191E-01    0.2006165196E+00
    0.1900000000E+05    0.5909625887E+00    0.3933352450E-01    0.4188870297E+00    0.7828874829E-01    0.2017626212E+00
    0.2100000000E+05    0.5919236188E+00    0.3768931993E-01    0.4205839561E+00    0.7842938959E-01    0.2027568256E+00
    0.2300000000E+05    0.5927095195E+00    0.3624957155E-01    0.4220611955E+00    0.7854570995E-01    0.2036310069E+00
    0.2500000000E+05    0.5933637476E+00    0.3497421930E-01    0.4233623238E+00    0.7864363901E-01    0.2044082971E+00
    0.2700000000E+05    0.5939165467E+00    0.3383352109E-01    0.4245196815E+00    0.7872731924E-01    0.2051059625E+00
    0.2900000000E+05    0.5943895988E+00    0.3280484552E-01    0.4255578496E+00    0.7879973172E-01    0.2057371981E+00
    0.3100000000E+05    0.5947988441E+00    0.3187061029E-01    0.4264958934E+00    0.7886307653E-01    0.2063122914E+00
    0.3300000000E+05    0.5951562580E+00    0.3101691047E-01    0.4273488604E+00    0.7891901290E-01    0.2068394021E+00
    0.3500000000E+05    0.5954710081E+00    0.3023257852E-01    0.4281288086E+00    0.7896881593E-01    0.2073251001E+00
    0.3700000000E+05    0.5957502295E+00    0.2950852361E-01    0.4288455300E+00    0.7901348185E-01    0.2077747454E+00
    0.3900000000E+05    0.5959995565E+00    0.2883725682E-01    0.4295070712E+00    0.7905380042E-01    0.2081927618E+00
    0.4100000000E+05    0.5962234970E+00    0.2821254321E-01    0.4301201140E+00    0.7909040592E-01    0.2085828386E+00
    0.4300000000E+05    0.5964256995E+00    0.2762914249E-01    0.4306902597E+00    0.7912381373E-01    0.2089480815E+00
    0.4500000000E+05    0.5966091481E+00    0.2708261255E-01    0.4312222441E+00    0.7915444700E-01    0.2092911269E+00
    0.4700000000E+05    0.5967763069E+00    0.2656915875E-01    0.4317201024E+00    0.7918265651E-01    0.2096142297E+00
    0.4900000000E+05    0.5969292282E+00    0.2608551667E-01    0.4321872968E+00    0.7920873552E-01    0.2099193324E+00
    0.1000000000E+05    0.5814584839E+00    0.5156192570E-01    0.4060480638E+00    0.7694765973E-01    0.1945046159E+00
    0.3000000000E+05    0.5946013718E+00    0.3232686544E-01    0.4260383663E+00    0.7883242335E-01    0.2060312099E+00
    0.5000000000E+05    0.5970008992E+00    0.2585397678E-01    0.4324103455E+00    0.7922105488E-01    0.2100656687E+00
    0.7000000000E+05    0.5979889750E+00    0.2226621900E-01    0.4358111983E+00    0.7939923851E-01    0.2123590043E+00
    0.9000000000E+05    0.5985226476E+00    0.1989442547E-01    0.4379948478E+00    0.7950550422E-01    0.2139082023E+00
    0.1100000000E+06    0.5988543537E+00    0.1817262349E-01    0.4395420327E+00    0.7957796555E-01    0.2150547349E+00
    0.1300000000E+06    0.5990791574E+00    0.1684725984E-01    0.4407080385E+00    0.7963155394E-01    0.2159528802E+00
    0.1500000000E+06    0.5992407333E+00    0.1578513309E-01    0.4416248784E+00    0.7967339378E-01    0.2166843310E+00
    0.1700000000E+06    0.5993619132E+00    0.1490853528E-01    0.4423685282E+00    0.7970734806E-01    0.2172971082E+00
    0.1900000000E+06    0.5994557730E+00    0.1416861541E-01    0.4429861799E+00    0.7973570904E-01    0.2178216206E+00
    0.2100000000E+06    0.5995303302E+00    0.1353288914E-01    0.4435088778E+00    0.7975993152E-01    0.2182782315E+00
    0.2300000000E+06    0.5995907680E+00    0.1297878737E-01    0.4439579785E+00    0.7978098818E-01    0.2186811848E+00
    0.2500000000E+06    0.5996405825E+00    0.1249006762E-01    0.4443487127E+00    0.7979955695E-01    0.2190407989E+00
    0.2700000000E+06    0.5996822148E+00    0.1205469735E-01    0.4446922678E+00    0.7981612669E-01    0.2193647662E+00
    0.2900000000E+06    0.5997174199E+00    0.1166354435E-01    0.4449970676E+00    0.7983106000E-01    0.2196589609E+00
    0.3100000000E+06    0.5997474906E+00    0.1130953362E-01    0.4452695889E+00    0.7984463235E-01    0.2199279609E+00
    0.3300000000E+06    0.5997733998E+00    0.1098708612E-01    0.4455149029E+00    0.7985705733E-01    0.2201753972E+00
    0.3500000000E+06    0.5997958927E+00    0.1069173429E-01    0.4457370429E+00    0.7986850353E-01    0.2204041936E+00
    0.3700000000E+06    0.5998155498E+00    0.1041985201E-01    0.4459392612E+00    0.7987910606E-01    0.2206167362E+00
    0.3900000000E+06    0.5998328295E+00    0.1016846075E-01    0.4461242125E+00    0.7988897472E-01    0.2208149955E+00
    0.4100000000E+06    0.5998480982E+00    0.9935087731E-02    0.4462940878E+00    0.7989819981E-01    0.2210006158E+00
    0.4300000000E+06    0.5998616526E+00    0.9717660388E-02    0.4464507124E+00    0.7990685640E-01    0.2211749821E+00
    0.4500000000E+06    0.5998737349E+00    0.9514426549E-02    0.4465956211E+00    0.7991500751E-01    0.2213392713E+00
    0.4700000000E+06    0.5998845449E+00    0.9323893313E-02    0.4467301141E+00    0.7992270651E-01    0.2214944909E+00
    0.4900000000E+06    0.5998942488E+00    0.9144779605E-02    0.4468553016E+00    0.7992999896E-01    0.2216415093E+00
    0.1000000000E+06    0.5987059881E+00    0.1897217595E-01    0.4388278688E+00    0.7954475396E-01    0.2145197202E+00
    0.3000000000E+06    0.5997330300E+00    0.1148227477E-01    0.4451370181E+00    0.7983800172E-01    0.2197963643E+00
    0.5000000000E+06    0.5998987303E+00    0.9059153333E-02    0.4469147091E+00    0.7993350519E-01    0.2217121826E+00
    0.7000000000E+06    0.5999546025E+00    0.7742639903E-02    0.4477881239E+00    0.7998945082E-01    0.2228348705E+00
    0.9000000000E+06    0.5999774305E+00    0.6883025558E-02    0.4483102170E+00    0.8002877241E-01    0.2236122811E+00
    0.1100000000E+07    0.5999867770E+00    0.6264351552E-02    0.4486562487E+00    0.8005901453E-01    0.2241997190E+00
    0.1300000000E+07    0.5999896754E+00    0.5791191712E-02    0.4489006961E+00    0.8008355649E-01    0.2246682140E+00
    0.1500000000E+07    0.5999891863E+00    0.5413926635E-02    0.4490809732E+00    0.8010419442E-01    0.2250558098E+00
    0.1700000000E+07    0.5999868151E+00    0.5103840855E-02    0.4492180595E+00    0.8012199408E-01    0.2253851078E+00
    0.1900000000E+07    0.5999833673E+00    0.4842999900E-02    0.4493246771E+00    0.8013763867E-01    0.2256705615E+00
    0.2100000000E+07    0.5999793008E+00    0.4619542658E-02    0.4494090080E+00    0.8015159191E-01    0.2259219391E+00
    0.2300000000E+07    0.5999748882E+00    0.4425266424E-02    0.4494765611E+00    0.8016418278E-01    0.2261461319E+00
    0.2500000000E+07    0.5999702967E+00    0.4254291461E-02    0.4495311846E+00    0.8017565301E-01    0.2263481725E+00
    0.2700000000E+07    0.5999656317E+00    0.4102277246E-02    0.4495756488E+00    0.8018618535E-01    0.2265318412E+00
    0.2900000000E+07    0.5999609603E+00    0.3965939686E-02    0.4496119994E+00    0.8019592132E-01    0.2267000455E+00
    0.3100000000E+07    0.5999563256E+00    0.3842741532E-02    0.4496417793E+00    0.8020497269E-01    0.2268550668E+00
    0.3300000000E+07    0.5999517552E+00    0.3730687005E-02    0.4496661741E+00    0.8021342929E-01    0.2269987263E+00
    0.3500000000E+07    0.5999472664E+00    0.3628181547E-02    0.4496861093E+00    0.8022136438E-01    0.2271324995E+00
    0.3700000000E+07    0.5999428698E+00    0.3533933587E-02    0.4497023178E+00    0.8022883848E-01    0.2272575976E+00
    0.3900000000E+07    0.5999385713E+00    0.3446884226E-02    0.4497153870E+00    0.8023590216E-01    0.2273750266E+00
    0.4100000000E+07    0.5999343737E+00    0.3366155898E-02    0.4497257927E+00    0.8024259813E-01    0.2274856303E+00
    0.4300000000E+07    0.5999302777E+00    0.3291014252E-02    0.4497339246E+00    0.8024896275E-01    0.2275901234E+00
    0.4500000000E+07    0.5999262826E+00    0.3220839390E-02    0.4497401045E+00    0.8025502725E-01    0.2276891159E+00
    0.4700000000E+07    0.5999223866E+00    0.3155103881E-02    0.4497446000E+00    0.8026081865E-01    0.2277831328E+00
    0.4900000000E+07    0.5999185875E+00    0.3093355719E-02    0.4497476356E+00    0.8026636048E-01    0.2278726286E+00
    0.1000000000E+07    0.5999832074E+00    0.6551084193E-02    0.4484993190E+00    0.8004476380E-01    0.2239242024E+00
    0.3000000000E+07    0.5999586364E+00    0.3902833717E-02    0.4496276295E+00    0.8020052652E-01    0.2267790810E+00
    0.5000000000E+07    0.5999167233E+00    0.3063852923E-02    0.4497486664E+00    0.8026904435E-01    0.2279158070E+00
    0.7000000000E+07    0.5998837925E+00    0.2611560073E-02    0.4497260394E+00    0.8031351043E-01    0.2286160886E+00
    0.9000000000E+07    0.5998572886E+00    0.2317559690E-02    0.4496645729E+00    0.8034648972E-01    0.2291180309E+00
    0.1100000000E+08    0.5998352233E+00    0.2106604860E-02    0.4495913303E+00    0.8037271562E-01    0.2295073848E+00
    0.1300000000E+08    0.5998163554E+00    0.1945626528E-02    0.4495155135E+00    0.8039449007E-01    0.2298244897E+00
    0.1500000000E+08    0.5997998877E+00    0.1817495368E-02    0.4494406720E+00    0.8041310774E-01    0.2300914466E+00
    0.1700000000E+08    0.5997852837E+00    0.1712327183E-02    0.4493682215E+00    0.8042936951E-01    0.2303216368E+00
    0.1900000000E+08    0.5997721670E+00    0.1623962969E-02    0.4492986820E+00    0.8044380549E-01    0.2305237592E+00
    0.2100000000E+08    0.5997602640E+00    0.1548337141E-02    0.4492321748E+00    0.8045678481E-01    0.2307037774E+00
    0.2300000000E+08    0.5997493698E+00    0.1482642573E-02    0.4491686396E+00    0.8046857484E-01    0.2308659529E+00
    0.2500000000E+08    0.5997393272E+00    0.1424869855E-02    0.4491079357E+00    0.8047937550E-01    0.2310134337E+00
    0.2700000000E+08    0.5997300130E+00    0.1373537370E-02    0.4490498909E+00    0.8048934016E-01    0.2311486094E+00
