  Pressure (Pa) 22mC5-400 (mol/kg) 2mC6-400 (mol/kg) 3mC6-400 (mol/kg) 23mC5-400 (mol/kg) C7-400 (mol/kg)
    0.1000000000E+01    0.2649997225E-02    0.7930848377E-03    0.4210468691E-02    0.3722484859E-03    0.3416202592E-02
    0.3000000000E+01    0.7868041304E-02    0.2317646602E-02    0.1233196761E-01    0.1105243432E-02    0.1000678591E-01
    0.5000000000E+01    0.1297984409E-01    0.3764650922E-02    0.2007757424E-01    0.1823326938E-02    0.1629377536E-01
    0.7000000000E+01    0.1798889505E-01    0.5139178774E-02    0.2747307000E-01    0.2526988657E-02    0.2229796096E-01
    0.9000000000E+01    0.2289852986E-01    0.6445875566E-02    0.3454192505E-01    0.3216696662E-02    0.2803827039E-01
    0.1100000000E+02    0.2771193874E-01    0.7688997683E-02    0.4130555178E-01    0.3892898616E-02    0.3353197317E-01
    0.1300000000E+02    0.3243217425E-01    0.8872453111E-02    0.4778352567E-01    0.4556022872E-02    0.3879485856E-01
    0.1500000000E+02    0.3706215861E-01    0.9999837002E-02    0.5399377832E-01    0.5206479490E-02    0.4384139100E-01
    0.1700000000E+02    0.4160469056E-01    0.1107446291E-01    0.5995276655E-01    0.5844661210E-02    0.4868484634E-01
    0.1900000000E+02    0.4606245180E-01    0.1209939032E-01    0.6567562117E-01    0.6470944346E-02    0.5333743167E-01
    0.2100000000E+02    0.5043801299E-01    0.1307744892E-01    0.7117627797E-01    0.7085689635E-02    0.5781039085E-01
    0.2300000000E+02    0.5473383948E-01    0.1401126015E-01    0.7646759355E-01    0.7689243035E-02    0.6211409782E-01
    0.2500000000E+02    0.5895229659E-01    0.1490325630E-01    0.8156144792E-01    0.8281936470E-02    0.6625813923E-01
    0.2700000000E+02    0.6309565462E-01    0.1575569756E-01    0.8646883560E-01    0.8864088534E-02    0.7025138788E-01
    0.2900000000E+02    0.6716609361E-01    0.1657068712E-01    0.9119994670E-01    0.9436005151E-02    0.7410206804E-01
    0.3100000000E+02    0.7116570772E-01    0.1735018487E-01    0.9576423925E-01    0.9997980202E-02    0.7781781371E-01
    0.3300000000E+02    0.7509650947E-01    0.1809601944E-01    0.1001705039E+00    0.1055029610E-01    0.8140572074E-01
    0.3500000000E+02    0.7896043364E-01    0.1880989923E-01    0.1044269218E+00    0.1109322437E-01    0.8487239353E-01
    0.3700000000E+02    0.8275934098E-01    0.1949342222E-01    0.1085411166E+00    0.1162702614E-01    0.8822398690E-01
    0.3900000000E+02    0.8649502176E-01    0.2014808481E-01    0.1125202012E+00    0.1215195263E-01    0.9146624379E-01
    0.4100000000E+02    0.9016919904E-01    0.2077528991E-01    0.1163708201E+00    0.1266824566E-01    0.9460452920E-01
    0.4300000000E+02    0.9378353183E-01    0.2137635413E-01    0.1200991868E+00    0.1317613805E-01    0.9764386086E-01
    0.4500000000E+02    0.9733961802E-01    0.2195251441E-01    0.1237111191E+00    0.1367585403E-01    0.1005889369E+00
    0.4700000000E+02    0.1008389972E+00    0.2250493399E-01    0.1272120695E+00    0.1416760966E-01    0.1034441610E+00
    0.4900000000E+02    0.1042831532E+00    0.2303470782E-01    0.1306071534E+00    0.1465161320E-01    0.1062136650E+00
    0.1000000000E+02    0.2531706862E-01    0.7075131484E-02    0.3796062782E-01    0.3556458683E-02    0.3081492801E-01
    0.3000000000E+02    0.6917462613E-01    0.1696475524E-01    0.9350238094E-01    0.9718217459E-02    0.7597635216E-01
    0.5000000000E+02    0.1059849716E+00    0.2329142733E-01    0.1322665084E+00    0.1489077096E-01    0.1075674940E+00
    0.7000000000E+02    0.1374443954E+00    0.2745830815E-01    0.1609199751E+00    0.1931216843E-01    0.1309713435E+00
    0.9000000000E+02    0.1647318949E+00    0.3023487713E-01    0.1830017243E+00    0.2314787270E-01    0.1490475293E+00
    0.1100000000E+03    0.1886930970E+00    0.3207834234E-01    0.2005663118E+00    0.2651656613E-01    0.1634575128E+00
    0.1300000000E+03    0.2099511193E+00    0.3327645400E-01    0.2148893049E+00    0.2950570604E-01    0.1752336006E+00
    0.1500000000E+03    0.2289760094E+00    0.3401828117E-01    0.2268051106E+00    0.3218126847E-01    0.1850515854E+00
    0.1700000000E+03    0.2461297024E+00    0.3443225883E-01    0.2368828930E+00    0.3459405687E-01    0.1933727865E+00
    0.1900000000E+03    0.2616959806E+00    0.3460796362E-01    0.2455244513E+00    0.3678390630E-01    0.2005231145E+00
    0.2100000000E+03    0.2759009531E+00    0.3460921190E-01    0.2530216851E+00    0.3878255740E-01    0.2067395149E+00
    0.2300000000E+03    0.2889273749E+00    0.3448226229E-01    0.2595918734E+00    0.4061566597E-01    0.2121984919E+00
    0.2500000000E+03    0.3009248644E+00    0.3426112636E-01    0.2654001631E+00    0.4230423683E-01    0.2170343000E+00
    0.2700000000E+03    0.3120173292E+00    0.3397110472E-01    0.2705743734E+00    0.4386566599E-01    0.2213509254E+00
    0.2900000000E+03    0.3223084524E+00    0.3363119820E-01    0.2752150170E+00    0.4531451071E-01    0.2252301992E+00
    0.3100000000E+03    0.3318858094E+00    0.3325578602E-01    0.2794022515E+00    0.4666306721E-01    0.2287374282E+00
    0.3300000000E+03    0.3408239989E+00    0.3285581485E-01    0.2832008045E+00    0.4792181019E-01    0.2319253868E+00
    0.3500000000E+03    0.3491870564E+00    0.3243965447E-01    0.2866635329E+00    0.4909973149E-01    0.2348372018E+00
    0.3700000000E+03    0.3570303351E+00    0.3201372211E-01    0.2898340367E+00    0.5020460418E-01    0.2375084727E+00
    0.3900000000E+03    0.3644019894E+00    0.3158294361E-01    0.2927486101E+00    0.5124319071E-01    0.2399688556E+00
    0.4100000000E+03    0.3713441554E+00    0.3115109762E-01    0.2954377179E+00    0.5222140869E-01    0.2422432608E+00
    0.4300000000E+03    0.3778939008E+00    0.3072107514E-01    0.2979271264E+00    0.5314446414E-01    0.2443527722E+00
    0.4500000000E+03    0.3840839948E+00    0.3029507693E-01    0.3002387805E+00    0.5401695958E-01    0.2463153590E+00
    0.4700000000E+03    0.3899435372E+00    0.2987476468E-01    0.3023914903E+00    0.5484298236E-01    0.2481464350E+00
    0.4900000000E+03    0.3954984771E+00    0.2946137777E-01    0.3044014747E+00    0.5562617750E-01    0.2498592997E+00
    0.1000000000E+03    0.1770850872E+00    0.3125234047E-01    0.1922557393E+00    0.2488453313E-01    0.1566356116E+00
    0.3000000000E+03    0.3271814164E+00    0.3344717706E-01    0.2773609504E+00    0.4600063202E-01    0.2270267654E+00
    0.5000000000E+03    0.3981690762E+00    0.2925757588E-01    0.3053574134E+00    0.5600274789E-01    0.2506750693E+00
    0.7000000000E+03    0.4401244353E+00    0.2565547592E-01    0.3195791576E+00    0.6192281797E-01    0.2629174843E+00
    0.9000000000E+03    0.4677964067E+00    0.2290684495E-01    0.3282740279E+00    0.6583305594E-01    0.2705358164E+00
    0.1100000000E+04    0.4873554809E+00    0.2080004110E-01    0.3341752491E+00    0.6860087069E-01    0.2757940114E+00
    0.1300000000E+04    0.5018727133E+00    0.1914742439E-01    0.3384596502E+00    0.7065819476E-01    0.2796735575E+00
    0.1500000000E+04    0.5130509034E+00    0.1781894778E-01    0.3417204769E+00    0.7224464157E-01    0.2826724805E+00
    0.1700000000E+04    0.5219088558E+00    0.1672714130E-01    0.3442904264E+00    0.7350364601E-01    0.2850718476E+00
    0.1900000000E+04    0.5290922633E+00    0.1581247751E-01    0.3463710666E+00    0.7452615837E-01    0.2870429938E+00
    0.2100000000E+04    0.5350294154E+00    0.1503353604E-01    0.3480919087E+00    0.7537253584E-01    0.2886966642E+00
    0.2300000000E+04    0.5400151370E+00    0.1436079528E-01    0.3495401039E+00    0.7608434733E-01    0.2901078188E+00
    0.2500000000E+04    0.5442587489E+00    0.1377272325E-01    0.3507765320E+00    0.7669112060E-01    0.2913291214E+00
    0.2700000000E+04    0.5479128074E+00    0.1325327780E-01    0.3518450544E+00    0.7721438647E-01    0.2923987279E+00
    0.2900000000E+04    0.5510910245E+00    0.1279027424E-01    0.3527781010E+00    0.7767020145E-01    0.2933450055E+00
    0.3100000000E+04    0.5538798291E+00    0.1237429558E-01    0.3536001854E+00    0.7807077558E-01    0.2941895141E+00
    0.3300000000E+04    0.5563460459E+00    0.1199794918E-01    0.3543301942E+00    0.7842555407E-01    0.2949489530E+00
    0.3500000000E+04    0.5585421296E+00    0.1165534926E-01    0.3549829215E+00    0.7874195467E-01    0.2956364727E+00
    0.3700000000E+04    0.5605098123E+00    0.1134174979E-01    0.3555701272E+00    0.7902588179E-01    0.2962625809E+00
    0.3900000000E+04    0.5622826985E+00    0.1105327949E-01    0.3561012804E+00    0.7928209223E-01    0.2968357817E+00
    0.4100000000E+04    0.5638881430E+00    0.1078674746E-01    0.3565840944E+00    0.7951446014E-01    0.2973630381E+00
    0.4300000000E+04    0.5653486340E+00    0.1053949847E-01    0.3570249180E+00    0.7972617195E-01    0.2978501098E+00
    0.4500000000E+04    0.5666828242E+00    0.1030930371E-01    0.3574290259E+00    0.7991987201E-01    0.2983018057E+00
    0.4700000000E+04    0.5679063127E+00    0.1009427742E-01    0.3578008378E+00    0.8009777286E-01    0.2987221755E+00
    0.4900000000E+04    0.5690322427E+00    0.9892812335E-02    0.3581440860E+00    0.8026173963E-01    0.2991146551E+00
    0.1000000000E+04    0.4783536929E+00    0.2178639731E-01    0.3314804199E+00    0.6732652748E-01    0.2733821547E+00
    0.3000000000E+04    0.5525295381E+00    0.1257690934E-01    0.3532017220E+00    0.7787674845E-01    0.2937788411E+00
    0.5000000000E+04    0.5695621752E+00    0.9796726503E-02    0.3583060096E+00    0.8033900201E-01    0.2993013707E+00
    0.7000000000E+04    0.5770259712E+00    0.8336138592E-02    0.3606133092E+00    0.8143508543E-01    0.3021019136E+00
    0.9000000000E+04    0.5812013194E+00    0.7396733922E-02    0.3619252597E+00    0.8205783355E-01    0.3038670164E+00
    0.1100000000E+05    0.5838645898E+00    0.6725855259E-02    0.3627668359E+00    0.8246119337E-01    0.3051127763E+00
    0.1300000000E+05    0.5857092496E+00    0.6215005075E-02    0.3633485068E+00    0.8274484048E-01    0.3060553243E+00
    0.1500000000E+05    0.5870613856E+00    0.5808752679E-02    0.3637714250E+00    0.8295589596E-01    0.3068028092E+00
    0.1700000000E+05    0.5880943798E+00    0.5475386758E-02    0.3640903391E+00    0.8311954726E-01    0.3074160334E+00
    0.1900000000E+05    0.5889088731E+00    0.5195256960E-02    0.3643374930E+00    0.8325049165E-01    0.3079321260E+00
    0.2100000000E+05    0.5895672664E+00    0.4955439486E-02    0.3645331184E+00    0.8335788979E-01    0.3083752067E+00
    0.2300000000E+05    0.5901102961E+00    0.4747032810E-02    0.3646905517E+00    0.8344775305E-01    0.3087617169E+00
    0.2500000000E+05    0.5905656783E+00    0.4563675429E-02    0.3648189388E+00    0.8352419274E-01    0.3091033032E+00
    0.2700000000E+05    0.5909529226E+00    0.4400681837E-02    0.3649247587E+00    0.8359011775E-01    0.3094084808E+00
    0.2900000000E+05    0.5912861577E+00    0.4254513098E-02    0.3650127269E+00    0.8364764558E-01    0.3096836409E+00
    0.3100000000E+05    0.5915758656E+00    0.4122438771E-02    0.3650863558E+00    0.8369835521E-01    0.3099336886E+00
    0.3300000000E+05    0.5918299857E+00    0.4002313388E-02    0.3651483130E+00    0.8374344874E-01    0.3101624613E+00
    0.3500000000E+05    0.5920546411E+00    0.3892424220E-02    0.3652006602E+00    0.8378385801E-01    0.3103730111E+00
    0.3700000000E+05    0.5922546295E+00    0.3791384903E-02    0.3652450144E+00    0.8382031682E-01    0.3105678007E+00
    0.3900000000E+05    0.5924337629E+00    0.3698059412E-02    0.3652826610E+00    0.8385341119E-01    0.3107488435E+00
    0.4100000000E+05    0.5925951084E+00    0.3611506662E-02    0.3653146340E+00    0.8388361496E-01    0.3109178038E+00
    0.4300000000E+05    0.5927411613E+00    0.3530939408E-02    0.3653417737E+00    0.8391131560E-01    0.3110760717E+00
    0.4500000000E+05    0.5928739721E+00    0.3455693282E-02    0.3653647696E+00    0.8393683310E-01    0.3112248188E+00
    0.4700000000E+05    0.5929952416E+00    0.3385203128E-02    0.3653841927E+00    0.8396043419E-01    0.3113650410E+00
    0.4900000000E+05    0.5931063923E+00    0.3318984696E-02    0.3654005190E+00    0.8398234306E-01    0.3114975911E+00
    0.1000000000E+05    0.5826657581E+00    0.7036320128E-02    0.3623878915E+00    0.8227886951E-01    0.3045375964E+00
    0.3000000000E+05    0.5914359067E+00    0.4186859879E-02    0.3650511505E+00    0.8367377016E-01    0.3098115428E+00
    0.5000000000E+05    0.5931585552E+00    0.3287344575E-02    0.3654076485E+00    0.8399272339E-01    0.3115612229E+00
    0.7000000000E+05    0.5938820121E+00    0.2802148076E-02    0.3654577113E+00    0.8414527891E-01    0.3125660708E+00
    0.9000000000E+05    0.5942756920E+00    0.2486604249E-02    0.3654217367E+00    0.8423870861E-01    0.3132578622E+00
    0.1100000000E+06    0.5945209731E+00    0.2260113364E-02    0.3653555737E+00    0.8430365317E-01    0.3137802298E+00
    0.1300000000E+06    0.5946871526E+00    0.2087238479E-02    0.3652784989E+00    0.8435240425E-01    0.3141974331E+00
    0.1500000000E+06    0.5948063535E+00    0.1949615431E-02    0.3651983155E+00    0.8439092956E-01    0.3145434371E+00
    0.1700000000E+06    0.5948954684E+00    0.1836643318E-02    0.3651184609E+00    0.8442250968E-01    0.3148382507E+00
    0.1900000000E+06    0.5949642114E+00    0.1741714376E-02    0.3650404959E+00    0.8444911363E-01    0.3150945995E+00
    0.2100000000E+06    0.5950185553E+00    0.1660465596E-02    0.3649651068E+00    0.8447200330E-01    0.3153210527E+00
    0.2300000000E+06    0.5950623691E+00    0.1589883811E-02    0.3648925514E+00    0.8449202962E-01    0.3155236421E+00
    0.2500000000E+06    0.5950982656E+00    0.1527811709E-02    0.3648228715E+00    0.8450979017E-01    0.3157067660E+00
    0.2700000000E+06    0.5951280708E+00    0.1472658363E-02    0.3647559998E+00    0.8452571879E-01    0.3158737262E+00
    0.2900000000E+06    0.5951530980E+00    0.1423221156E-02    0.3646918160E+00    0.8454013930E-01    0.3160270611E+00
    0.3100000000E+06    0.5951743144E+00    0.1378571717E-02    0.3646301767E+00    0.8455329907E-01    0.3161687628E+00
    0.3300000000E+06    0.5951924480E+00    0.1337980340E-02    0.3645709313E+00    0.8456539093E-01    0.3163004221E+00
    0.3500000000E+06    0.5952080560E+00    0.1300864403E-02    0.3645139310E+00    0.8457656778E-01    0.3164233285E+00
    0.3700000000E+06    0.5952215725E+00    0.1266752282E-02    0.3644590329E+00    0.8458695275E-01    0.3165385415E+00
    0.3900000000E+06    0.5952333396E+00    0.1235257533E-02    0.3644061025E+00    0.8459664630E-01    0.3166469416E+00
    0.4100000000E+06    0.5952436310E+00    0.1206060057E-02    0.3643550145E+00    0.8460573136E-01    0.3167492681E+00
    0.4300000000E+06    0.5952526676E+00    0.1178892127E-02    0.3643056528E+00    0.8461427716E-01    0.3168461478E+00
    0.4500000000E+06    0.5952606299E+00    0.1153527842E-02    0.3642579103E+00    0.8462234199E-01    0.3169381163E+00
    0.4700000000E+06    0.5952676665E+00    0.1129775084E-02    0.3642116883E+00    0.8462997539E-01    0.3170256350E+00
    0.4900000000E+06    0.5952739006E+00    0.1107469272E-02    0.3641668961E+00    0.8463721978E-01    0.3171091039E+00
    0.1000000000E+06    0.5944112422E+00    0.2365020193E-02    0.3653908110E+00    0.8427375338E-01    0.3135351862E+00
    0.3000000000E+06    0.5951641324E+00    0.1400347532E-02    0.3646606877E+00    0.8454686365E-01    0.3160992586E+00
    0.5000000000E+06    0.5952767498E+00    0.1096813847E-02    0.3641450097E+00    0.8464070773E-01    0.3171494304E+00
    0.7000000000E+06    0.5953095894E+00    0.9336360826E-03    0.3637652888E+00    0.8469676718E-01    0.3178087404E+00
    0.9000000000E+06    0.5953193566E+00    0.8277495112E-03    0.3634650453E+00    0.8473658923E-01    0.3182877021E+00
    0.1100000000E+07    0.5953201960E+00    0.7518654235E-03    0.3632165565E+00    0.8476742276E-01    0.3186630424E+00
    0.1300000000E+07    0.5953170594E+00    0.6940130753E-03    0.3630044334E+00    0.8479256124E-01    0.3189712300E+00
    0.1500000000E+07    0.5953120339E+00    0.6480000871E-03    0.3628192745E+00    0.8481377298E-01    0.3192324218E+00
    0.1700000000E+07    0.5953061065E+00    0.6102569969E-03    0.3626549187E+00    0.8483211531E-01    0.3194589159E+00
    0.1900000000E+07    0.5952997813E+00    0.5785615232E-03    0.3625071083E+00    0.8484827011E-01    0.3196587599E+00
    0.2100000000E+07    0.5952933281E+00    0.5514477860E-03    0.3623727772E+00    0.8486270246E-01    0.3198375037E+00
    0.2300000000E+07    0.5952868960E+00    0.5279042819E-03    0.3622496431E+00    0.8487574361E-01    0.3199991341E+00
    0.2500000000E+07    0.5952805677E+00    0.5072073445E-03    0.3621359611E+00    0.8488763780E-01    0.3201466102E+00
    0.2700000000E+07    0.5952743884E+00    0.4888236426E-03    0.3620303664E+00    0.8489857021E-01    0.3202821879E+00
    0.2900000000E+07    0.5952683814E+00    0.4723502473E-03    0.3619317715E+00    0.8490868459E-01    0.3204076258E+00
    0.3100000000E+07    0.5952625571E+00    0.4574762723E-03    0.3618392956E+00    0.8491809472E-01    0.3205243209E+00
    0.3300000000E+07    0.5952569181E+00    0.4439574681E-03    0.3617522150E+00    0.8492689222E-01    0.3206334016E+00
    0.3500000000E+07    0.5952514622E+00    0.4315988986E-03    0.3616699278E+00    0.8493515193E-01    0.3207357917E+00
    0.3700000000E+07    0.5952461845E+00    0.4202428246E-03    0.3615919281E+00    0.8494293578E-01    0.3208322573E+00
    0.3900000000E+07    0.5952410786E+00    0.4097600400E-03    0.3615177865E+00    0.8495029560E-01    0.3209234406E+00
    0.4100000000E+07    0.5952361374E+00    0.4000435552E-03    0.3614471353E+00    0.8495727518E-01    0.3210098850E+00
    0.4300000000E+07    0.5952313533E+00    0.3910039097E-03    0.3613796571E+00    0.8496391186E-01    0.3210920547E+00
    0.4500000000E+07    0.5952267187E+00    0.3825656415E-03    0.3613150762E+00    0.8497023777E-01    0.3211703490E+00
    0.4700000000E+07    0.5952222263E+00    0.3746645874E-03    0.3612531516E+00    0.8497628070E-01    0.3212451140E+00
    0.4900000000E+07    0.5952178689E+00    0.3672457955E-03    0.3611936711E+00    0.8498206487E-01    0.3213166516E+00
    0.1000000000E+07    0.5953204798E+00    0.7870011530E-03    0.3633354818E+00    0.8475287250E-01    0.3184855054E+00
    0.3000000000E+07    0.5952654462E+00    0.4647299258E-03    0.3618848171E+00    0.8491347151E-01    0.3204669902E+00
    0.5000000000E+07    0.5952157386E+00    0.3637021842E-03    0.3611647881E+00    0.8498486667E-01    0.3213512941E+00
    0.7000000000E+07    0.5951787552E+00    0.3094611094E-03    0.3606795055E+00    0.8503133409E-01    0.3219248113E+00
    0.9000000000E+07    0.5951496054E+00    0.2742895887E-03    0.3603123397E+00    0.8506584551E-01    0.3223493547E+00
    0.1100000000E+08    0.5951256051E+00    0.2490959354E-03    0.3600166428E+00    0.8509331217E-01    0.3226863005E+00
    0.1300000000E+08    0.5951052234E+00    0.2298955751E-03    0.3597689452E+00    0.8511612904E-01    0.3229655556E+00
    0.1500000000E+08    0.5950875175E+00    0.2146286307E-03    0.3595557460E+00    0.8513564540E-01    0.3232039456E+00
    0.1700000000E+08    0.5950718687E+00    0.2021082966E-03    0.3593685556E+00    0.8515269695E-01    0.3234118748E+00
    0.1900000000E+08    0.5950578497E+00    0.1915959659E-03    0.3592016837E+00    0.8516783733E-01    0.3235962256E+00
    0.2100000000E+08    0.5950451534E+00    0.1826045807E-03    0.3590511284E+00    0.8518145233E-01    0.3237617862E+00
    0.2300000000E+08    0.5950335520E+00    0.1747981407E-03    0.3589139672E+00    0.8519382153E-01    0.3239120224E+00
    0.2500000000E+08    0.5950228717E+00    0.1679363110E-03    0.3587879999E+00    0.8520515408E-01    0.3240495227E+00
    0.2700000000E+08    0.5950129770E+00    0.1618420014E-03    0.3586715290E+00    0.8521561047E-01    0.3241762716E+00
