  Pressure (Pa) 22mC5-400 (mol/kg) 2mC6-400 (mol/kg) 3mC6-400 (mol/kg) 23mC5-400 (mol/kg) C7-400 (mol/kg)
    0.1000000000E+01    0.2646154758E-02    0.1591967551E-02    0.1587516581E-02    0.8363454591E-03    0.1717347579E-02
    0.3000000000E+01    0.7834422529E-02    0.4685366992E-02    0.4698971901E-02    0.2476179237E-02    0.5083564185E-02
    0.5000000000E+01    0.1288902663E-01    0.7662896513E-02    0.7728561882E-02    0.4073800741E-02    0.8361600900E-02
    0.7000000000E+01    0.1781572534E-01    0.1053006295E-01    0.1067960613E-01    0.5631028137E-02    0.1155502853E-01
    0.9000000000E+01    0.2261994339E-01    0.1329204589E-01    0.1355524550E-01    0.7149574279E-02    0.1466722574E-01
    0.1100000000E+02    0.2730679567E-01    0.1595372110E-01    0.1635845398E-01    0.8631054205E-02    0.1770139180E-01
    0.1300000000E+02    0.3188110899E-01    0.1851968201E-01    0.1909204968E-01    0.1007699199E-01    0.2066055843E-01
    0.1500000000E+02    0.3634744196E-01    0.2099425936E-01    0.2175870493E-01    0.1148882706E-01    0.2354760063E-01
    0.1700000000E+02    0.4071010338E-01    0.2338153931E-01    0.2436095563E-01    0.1286791994E-01    0.2636524673E-01
    0.1900000000E+02    0.4497316906E-01    0.2568538007E-01    0.2690120985E-01    0.1421555762E-01    0.2911608761E-01
    0.2100000000E+02    0.4914049732E-01    0.2790942723E-01    0.2938175583E-01    0.1553295839E-01    0.3180258536E-01
    0.2300000000E+02    0.5321574330E-01    0.3005712783E-01    0.3180476937E-01    0.1682127643E-01    0.3442708112E-01
    0.2500000000E+02    0.5720237216E-01    0.3213174343E-01    0.3417232066E-01    0.1808160592E-01    0.3699180253E-01
    0.2700000000E+02    0.6110367124E-01    0.3413636207E-01    0.3648638063E-01    0.1931498489E-01    0.3949887049E-01
    0.2900000000E+02    0.6492276137E-01    0.3607390944E-01    0.3874882687E-01    0.2052239881E-01    0.4195030553E-01
    0.3100000000E+02    0.6866260722E-01    0.3794715911E-01    0.4096144911E-01    0.2170478383E-01    0.4434803368E-01
    0.3300000000E+02    0.7232602702E-01    0.3975874208E-01    0.4312595429E-01    0.2286302988E-01    0.4669389199E-01
    0.3500000000E+02    0.7591570149E-01    0.4151115560E-01    0.4524397134E-01    0.2399798346E-01    0.4898963361E-01
    0.3700000000E+02    0.7943418212E-01    0.4320677131E-01    0.4731705560E-01    0.2511045029E-01    0.5123693252E-01
    0.3900000000E+02    0.8288389892E-01    0.4484784292E-01    0.4934669292E-01    0.2620119769E-01    0.5343738802E-01
    0.4100000000E+02    0.8626716759E-01    0.4643651320E-01    0.5133430356E-01    0.2727095694E-01    0.5559252882E-01
    0.4300000000E+02    0.8958619617E-01    0.4797482056E-01    0.5328124573E-01    0.2832042527E-01    0.5770381693E-01
    0.4500000000E+02    0.9284309125E-01    0.4946470523E-01    0.5518881901E-01    0.2935026794E-01    0.5977265130E-01
    0.4700000000E+02    0.9603986378E-01    0.5090801483E-01    0.5705826745E-01    0.3036111996E-01    0.6180037113E-01
    0.4900000000E+02    0.9917843447E-01    0.5230650982E-01    0.5889078254E-01    0.3135358787E-01    0.6378825913E-01
    0.1000000000E+02    0.2497773207E-01    0.1463512849E-01    0.1496572394E-01    0.7894850209E-02    0.1619386938E-01
    0.3000000000E+02    0.6680241036E-01    0.3701840381E-01    0.3986125742E-01    0.2111666326E-01    0.4315576612E-01
    0.5000000000E+02    0.1007264709E+00    0.5298947933E-01    0.5979354873E-01    0.3184310993E-01    0.6476765230E-01
    0.7000000000E+02    0.1290372624E+00    0.6466484230E-01    0.7616362278E-01    0.4079648975E-01    0.8253755088E-01
    0.9000000000E+02    0.1531880988E+00    0.7335563983E-01    0.8988600295E-01    0.4843575495E-01    0.9745020535E-01
    0.1100000000E+03    0.1741487654E+00    0.7991140426E-01    0.1015836323E+00    0.5506717562E-01    0.1101766437E+00
    0.1300000000E+03    0.1925931854E+00    0.8490304303E-01    0.1116959196E+00    0.6090359421E-01    0.1211903693E+00
    0.1500000000E+03    0.2090059620E+00    0.8872599478E-01    0.1205419837E+00    0.6609806740E-01    0.1308353894E+00
    0.1700000000E+03    0.2237458820E+00    0.9166120207E-01    0.1283593842E+00    0.7076391866E-01    0.1393678848E+00
    0.1900000000E+03    0.2370853555E+00    0.9391261687E-01    0.1353287602E+00    0.7498719266E-01    0.1469827252E+00
    0.2100000000E+03    0.2492357920E+00    0.9563106878E-01    0.1415900235E+00    0.7883466870E-01    0.1538308989E+00
    0.2300000000E+03    0.2603644356E+00    0.9692990709E-01    0.1472533054E+00    0.8235917746E-01    0.1600312991E+00
    0.2500000000E+03    0.2706058415E+00    0.9789551688E-01    0.1524065416E+00    0.8560322525E-01    0.1656788911E+00
    0.2700000000E+03    0.2800698880E+00    0.9859454954E-01    0.1571208427E+00    0.8860152446E-01    0.1708504976E+00
    0.2900000000E+03    0.2888474929E+00    0.9907899377E-01    0.1614543713E+00    0.9138279872E-01    0.1756089753E+00
    0.3100000000E+03    0.2970147708E+00    0.9938979530E-01    0.1654551892E+00    0.9397109597E-01    0.1800062835E+00
    0.3300000000E+03    0.3046361103E+00    0.9955948200E-01    0.1691633825E+00    0.9638676045E-01    0.1840857737E+00
    0.3500000000E+03    0.3117664900E+00    0.9961409474E-01    0.1726126677E+00    0.9864716391E-01    0.1878839220E+00
    0.3700000000E+03    0.3184532450E+00    0.9957462603E-01    0.1758316237E+00    0.1007672639E+00    0.1914316569E+00
    0.3900000000E+03    0.3247374358E+00    0.9945810444E-01    0.1788446464E+00    0.1027600357E+00    0.1947553895E+00
    0.4100000000E+03    0.3306549193E+00    0.9927842079E-01    0.1816726971E+00    0.1046368109E+00    0.1978778197E+00
    0.4300000000E+03    0.3362371983E+00    0.9904696364E-01    0.1843338943E+00    0.1064075456E+00    0.2008185759E+00
    0.4500000000E+03    0.3415121027E+00    0.9877311249E-01    0.1868439865E+00    0.1080810358E+00    0.2035947251E+00
    0.4700000000E+03    0.3465043399E+00    0.9846462380E-01    0.1892167337E+00    0.1096650906E+00    0.2062211837E+00
    0.4900000000E+03    0.3512359445E+00    0.9812793517E-01    0.1914642156E+00    0.1111666751E+00    0.2087110515E+00
    0.1000000000E+03    0.1640196721E+00    0.7685966779E-01    0.9595704272E-01    0.5186243447E-01    0.1040534416E+00
    0.3000000000E+03    0.2930031539E+00    0.9925389502E-01    0.1634936977E+00    0.9269972070E-01    0.1778498870E+00
    0.5000000000E+03    0.3535102570E+00    0.9795072751E-01    0.1925443609E+00    0.1118885158E+00    0.2099084290E+00
    0.7000000000E+03    0.3891714766E+00    0.9383646418E-01    0.2095957431E+00    0.1232153748E+00    0.2288829878E+00
    0.9000000000E+03    0.4125622234E+00    0.8966296408E-01    0.2211477537E+00    0.1306562948E+00    0.2418322004E+00
    0.1100000000E+04    0.4289857139E+00    0.8589285667E-01    0.2296484121E+00    0.1358889878E+00    0.2514235776E+00
    0.1300000000E+04    0.4410936839E+00    0.8256083216E-01    0.2362486180E+00    0.1397528241E+00    0.2589151624E+00
    0.1500000000E+04    0.4503571226E+00    0.7961588231E-01    0.2415696958E+00    0.1427136805E+00    0.2649881291E+00
    0.1700000000E+04    0.4576542971E+00    0.7699719248E-01    0.2459805229E+00    0.1450498633E+00    0.2700480163E+00
    0.1900000000E+04    0.4635399087E+00    0.7465112799E-01    0.2497158638E+00    0.1469372409E+00    0.2743536054E+00
    0.2100000000E+04    0.4683803822E+00    0.7253370099E-01    0.2529332763E+00    0.1484920504E+00    0.2780790113E+00
    0.2300000000E+04    0.4724268584E+00    0.7060951888E-01    0.2557430245E+00    0.1497940016E+00    0.2813463801E+00
    0.2500000000E+04    0.4758568624E+00    0.6885013340E-01    0.2582249353E+00    0.1508994690E+00    0.2842443455E+00
    0.2700000000E+04    0.4787992226E+00    0.6723254197E-01    0.2604384403E+00    0.1518493855E+00    0.2868390431E+00
    0.2900000000E+04    0.4813495684E+00    0.6573798531E-01    0.2624288389E+00    0.1526741518E+00    0.2891809902E+00
    0.3100000000E+04    0.4835802981E+00    0.6435102089E-01    0.2642313570E+00    0.1533967961E+00    0.2913095517E+00
    0.3300000000E+04    0.4855471790E+00    0.6305881751E-01    0.2658738634E+00    0.1540350661E+00    0.2932559337E+00
    0.3500000000E+04    0.4872938308E+00    0.6185061807E-01    0.2673787405E+00    0.1546028515E+00    0.2950452472E+00
    0.3700000000E+04    0.4888548405E+00    0.6071732843E-01    0.2687642029E+00    0.1551111715E+00    0.2966979659E+00
    0.3900000000E+04    0.4902579708E+00    0.5965120022E-01    0.2700452478E+00    0.1555688762E+00    0.2982309781E+00
    0.4100000000E+04    0.4915257539E+00    0.5864558382E-01    0.2712343529E+00    0.1559831522E+00    0.2996583598E+00
    0.4300000000E+04    0.4926766602E+00    0.5769473451E-01    0.2723419971E+00    0.1563598941E+00    0.3009919525E+00
    0.4500000000E+04    0.4937259698E+00    0.5679365863E-01    0.2733770552E+00    0.1567039809E+00    0.3022418022E+00
    0.4700000000E+04    0.4946864282E+00    0.5593799063E-01    0.2743471013E+00    0.1570194846E+00    0.3034164967E+00
    0.4900000000E+04    0.4955687487E+00    0.5512389400E-01    0.2752586447E+00    0.1573098300E+00    0.3045234283E+00
    0.1000000000E+04    0.4214408967E+00    0.8772157918E-01    0.2256899956E+00    0.1334841132E+00    0.2469498627E+00
    0.3000000000E+04    0.4825010707E+00    0.6503191022E-01    0.2633516940E+00    0.1530470255E+00    0.2902698303E+00
    0.5000000000E+04    0.4959834967E+00    0.5473136051E-01    0.2756942673E+00    0.1574464925E+00    0.3050535181E+00
    0.7000000000E+04    0.5017861168E+00    0.4841649267E-01    0.2823731397E+00    0.1593743920E+00    0.3132815966E+00
    0.9000000000E+04    0.5049960089E+00    0.4400059958E-01    0.2867022029E+00    0.1604601282E+00    0.3187389260E+00
    0.1100000000E+05    0.5070268201E+00    0.4067444483E-01    0.2897921695E+00    0.1611593675E+00    0.3227127590E+00
    0.1300000000E+05    0.5084242766E+00    0.3804549175E-01    0.2921353899E+00    0.1616491057E+00    0.3257806154E+00
    0.1500000000E+05    0.5094429554E+00    0.3589594964E-01    0.2939880607E+00    0.1620124160E+00    0.3282461875E+00
    0.1700000000E+05    0.5102173924E+00    0.3409350963E-01    0.2954983533E+00    0.1622934679E+00    0.3302867860E+00
    0.1900000000E+05    0.5108252972E+00    0.3255233021E-01    0.2967586754E+00    0.1625179287E+00    0.3320139556E+00
    0.2100000000E+05    0.5113146558E+00    0.3121385990E-01    0.2978300223E+00    0.1627017443E+00    0.3335019193E+00
    0.2300000000E+05    0.5117166845E+00    0.3003655483E-01    0.2987544793E+00    0.1628553503E+00    0.3348022783E+00
    0.2500000000E+05    0.5120525568E+00    0.2898998206E-01    0.2995621382E+00    0.1629858679E+00    0.3359521926E+00
    0.2700000000E+05    0.5123371364E+00    0.2805125150E-01    0.3002751545E+00    0.1630983257E+00    0.3369792086E+00
    0.2900000000E+05    0.5125811605E+00    0.2720275961E-01    0.3009102457E+00    0.1631963784E+00    0.3379042462E+00
    0.3100000000E+05    0.5127925770E+00    0.2643070940E-01    0.3014802914E+00    0.1632827472E+00    0.3387435235E+00
    0.3300000000E+05    0.5129773931E+00    0.2572410878E-01    0.3019953944E+00    0.1633595013E+00    0.3395098378E+00
    0.3500000000E+05    0.5131402329E+00    0.2507407429E-01    0.3024636035E+00    0.1634282425E+00    0.3402134440E+00
    0.3700000000E+05    0.5132847126E+00    0.2447333573E-01    0.3028914200E+00    0.1634902314E+00    0.3408626710E+00
    0.3900000000E+05    0.5134137006E+00    0.2391587635E-01    0.3032841590E+00    0.1635464735E+00    0.3414643650E+00
    0.4100000000E+05    0.5135295007E+00    0.2339666687E-01    0.3036462129E+00    0.1635977813E+00    0.3420242136E+00
    0.4300000000E+05    0.5136339842E+00    0.2291146548E-01    0.3039812473E+00    0.1636448185E+00    0.3425469874E+00
    0.4500000000E+05    0.5137286869E+00    0.2245666551E-01    0.3042923480E+00    0.1636881332E+00    0.3430367222E+00
    0.4700000000E+05    0.5138148803E+00    0.2202917756E-01    0.3045821334E+00    0.1637281816E+00    0.3434968592E+00
    0.4900000000E+05    0.5138936265E+00    0.2162633755E-01    0.3048528414E+00    0.1637653471E+00    0.3439303533E+00
    0.1000000000E+05    0.5061144650E+00    0.4223158104E-01    0.2883633246E+00    0.1608437038E+00    0.3208659660E+00
    0.3000000000E+05    0.5126905314E+00    0.2680792270E-01    0.3012027125E+00    0.1632408813E+00    0.3383337367E+00
    0.5000000000E+05    0.5139304918E+00    0.2143342606E-01    0.3049816537E+00    0.1637829522E+00    0.3441379211E+00
    0.7000000000E+05    0.5144340836E+00    0.1844086614E-01    0.3069080288E+00    0.1640414073E+00    0.3473609391E+00
    0.9000000000E+05    0.5146990032E+00    0.1646075571E-01    0.3081017292E+00    0.1641994418E+00    0.3495056891E+00
    0.1100000000E+06    0.5148582891E+00    0.1502337330E-01    0.3089221831E+00    0.1643091877E+00    0.3510756608E+00
    0.1300000000E+06    0.5149621788E+00    0.1391735253E-01    0.3095238354E+00    0.1643915154E+00    0.3522949976E+00
    0.1500000000E+06    0.5150337040E+00    0.1303142773E-01    0.3099850926E+00    0.1644565439E+00    0.3532810803E+00
    0.1700000000E+06    0.5150848461E+00    0.1230062373E-01    0.3103503718E+00    0.1645098306E+00    0.3541023017E+00
    0.1900000000E+06    0.5151224211E+00    0.1168407522E-01    0.3106468800E+00    0.1645547085E+00    0.3548016555E+00
    0.2100000000E+06    0.5151505750E+00    0.1115460367E-01    0.3108922899E+00    0.1645933125E+00    0.3554077538E+00
    0.2300000000E+06    0.5151719639E+00    0.1069332631E-01    0.3110986186E+00    0.1646270816E+00    0.3559405024E+00
    0.2500000000E+06    0.5151883619E+00    0.1028665511E-01    0.3112743438E+00    0.1646570257E+00    0.3564142526E+00
    0.2700000000E+06    0.5152009950E+00    0.9924525684E-02    0.3114256298E+00    0.1646838780E+00    0.3568396578E+00
    0.2900000000E+06    0.5152107345E+00    0.9599301119E-02    0.3115570731E+00    0.1647081856E+00    0.3572248221E+00
    0.3100000000E+06    0.5152182150E+00    0.9305066243E-02    0.3116721758E+00    0.1647303661E+00    0.3575760391E+00
    0.3300000000E+06    0.5152239081E+00    0.9037157746E-02    0.3117736555E+00    0.1647507452E+00    0.3578982847E+00
    0.3500000000E+06    0.5152281707E+00    0.8791842294E-02    0.3118636554E+00    0.1647695810E+00    0.3581955536E+00
    0.3700000000E+06    0.5152312770E+00    0.8566090457E-02    0.3119438896E+00    0.1647870814E+00    0.3584710971E+00
    0.3900000000E+06    0.5152334405E+00    0.8357414461E-02    0.3120157461E+00    0.1648034158E+00    0.3587275933E+00
    0.4100000000E+06    0.5152348298E+00    0.8163749473E-02    0.3120803615E+00    0.1648187242E+00    0.3589672714E+00
    0.4300000000E+06    0.5152355789E+00    0.7983365257E-02    0.3121386755E+00    0.1648331235E+00    0.3591920053E+00
    0.4500000000E+06    0.5152357961E+00    0.7814799411E-02    0.3121914726E+00    0.1648467119E+00    0.3594033836E+00
    0.4700000000E+06    0.5152355690E+00    0.7656806212E-02    0.3122394126E+00    0.1648595730E+00    0.3596027634E+00
    0.4900000000E+06    0.5152349694E+00    0.7508316939E-02    0.3122830544E+00    0.1648717785E+00    0.3597913129E+00
    0.1000000000E+06    0.5147877496E+00    0.1569080067E-01    0.3085463678E+00    0.1642586723E+00    0.3503449100E+00
    0.3000000000E+06    0.5152147245E+00    0.9448626428E-02    0.3116164816E+00    0.1647195195E+00    0.3574043367E+00
    0.5000000000E+06    0.5152345488E+00    0.7437342896E-02    0.3123034155E+00    0.1648776549E+00    0.3598818477E+00
    0.7000000000E+06    0.5152165864E+00    0.6347144552E-02    0.3125708475E+00    0.1649720955E+00    0.3613109831E+00
    0.9000000000E+06    0.5151921086E+00    0.5636435281E-02    0.3126906508E+00    0.1650391763E+00    0.3622904310E+00
    0.1100000000E+07    0.5151673529E+00    0.5125540035E-02    0.3127432012E+00    0.1650911145E+00    0.3630249073E+00
    0.1300000000E+07    0.5151438753E+00    0.4735179115E-02    0.3127605730E+00    0.1651334595E+00    0.3636071507E+00
    0.1500000000E+07    0.5151220155E+00    0.4424175489E-02    0.3127579294E+00    0.1651691902E+00    0.3640864726E+00
    0.1700000000E+07    0.5151017515E+00    0.4168721545E-02    0.3127432727E+00    0.1652000879E+00    0.3644919964E+00
    0.1900000000E+07    0.5150829539E+00    0.3953959735E-02    0.3127211642E+00    0.1652273010E+00    0.3648422554E+00
    0.2100000000E+07    0.5150654709E+00    0.3770070568E-02    0.3126943554E+00    0.1652516130E+00    0.3651497217E+00
    0.2300000000E+07    0.5150491570E+00    0.3610267301E-02    0.3126645786E+00    0.1652735819E+00    0.3654231621E+00
    0.2500000000E+07    0.5150338814E+00    0.3469687749E-02    0.3126329608E+00    0.1652936188E+00    0.3656689573E+00
    0.2700000000E+07    0.5150195299E+00    0.3344744278E-02    0.3126002540E+00    0.1653120359E+00    0.3658918863E+00
    0.2900000000E+07    0.5150060037E+00    0.3232723618E-02    0.3125669697E+00    0.1653290751E+00    0.3660956147E+00
    0.3100000000E+07    0.5149932174E+00    0.3131530360E-02    0.3125334606E+00    0.1653449281E+00    0.3662830117E+00
    0.3300000000E+07    0.5149810975E+00    0.3039516878E-02    0.3124999723E+00    0.1653597492E+00    0.3664563625E+00
    0.3500000000E+07    0.5149695802E+00    0.2955367216E-02    0.3124666765E+00    0.1653736646E+00    0.3666175146E+00
    0.3700000000E+07    0.5149586101E+00    0.2878015806E-02    0.3124336929E+00    0.1653867784E+00    0.3667679820E+00
    0.3900000000E+07    0.5149481387E+00    0.2806589293E-02    0.3124011048E+00    0.1653991779E+00    0.3669090191E+00
    0.4100000000E+07    0.5149381236E+00    0.2740364080E-02    0.3123689689E+00    0.1654109370E+00    0.3670416772E+00
    0.4300000000E+07    0.5149285274E+00    0.2678734815E-02    0.3123373227E+00    0.1654221185E+00    0.3671668444E+00
    0.4500000000E+07    0.5149193170E+00    0.2621190619E-02    0.3123061899E+00    0.1654327765E+00    0.3672852783E+00
    0.4700000000E+07    0.5149104631E+00    0.2567296918E-02    0.3122755839E+00    0.1654429579E+00    0.3673976295E+00
    0.4900000000E+07    0.5149019393E+00    0.2516681366E-02    0.3122455105E+00    0.1654527034E+00    0.3675044607E+00
    0.1000000000E+07    0.5151796215E+00    0.5362254938E-02    0.3127227406E+00    0.1650666051E+00    0.3626810358E+00
    0.3000000000E+07    0.5149995229E+00    0.3180885468E-02    0.3125502259E+00    0.1653371395E+00    0.3661912001E+00
    0.5000000000E+07    0.5148977938E+00    0.2492500793E-02    0.3122306738E+00    0.1654574241E+00    0.3675559619E+00
    0.7000000000E+07    0.5148276351E+00    0.2122066425E-02    0.3119604125E+00    0.1655357193E+00    0.3683875484E+00
    0.9000000000E+07    0.5147741016E+00    0.1881562578E-02    0.3117327156E+00    0.1655938739E+00    0.3689794128E+00
    0.1100000000E+08    0.5147308199E+00    0.1709145913E-02    0.3115369663E+00    0.1656401605E+00    0.3694361688E+00
    0.1300000000E+08    0.5146944920E+00    0.1577668189E-02    0.3113654807E+00    0.1656786134E+00    0.3698066880E+00
    0.1500000000E+08    0.5146631912E+00    0.1473078910E-02    0.3112129161E+00    0.1657115056E+00    0.3701176043E+00
    0.1700000000E+08    0.5146356944E+00    0.1387276024E-02    0.3110754827E+00    0.1657402450E+00    0.3703849753E+00
    0.1900000000E+08    0.5146111765E+00    0.1315213908E-02    0.3109504148E+00    0.1657657642E+00    0.3706192024E+00
    0.2100000000E+08    0.5145890548E+00    0.1253563566E-02    0.3108356388E+00    0.1657887131E+00    0.3708273948E+00
    0.2300000000E+08    0.5145689022E+00    0.1200027456E-02    0.3107295625E+00    0.1658095630E+00    0.3710146193E+00
    0.2500000000E+08    0.5145503967E+00    0.1152961572E-02    0.3106309372E+00    0.1658286660E+00    0.3711846098E+00
    0.2700000000E+08    0.5145332892E+00    0.1111154142E-02    0.3105387664E+00    0.1658462926E+00    0.3713401950E+00
