  Pressure (Pa) 22mC5-400 (mol/kg) 2mC6-400 (mol/kg) 3mC6-400 (mol/kg) 23mC5-400 (mol/kg) C7-400 (mol/kg)
    0.1000000000E+01    0.2634516444E-02    0.7091245542E-02    0.5238343117E-03    0.1850374215E-03    0.5100289067E-02
    0.3000000000E+01    0.7734531198E-02    0.2046549280E-01    0.1520625114E-02    0.5432485991E-03    0.1480758724E-01
    0.5000000000E+01    0.1262412768E-01    0.3285373110E-01    0.2455258537E-02    0.8866900363E-03    0.2391217515E-01
    0.7000000000E+01    0.1731955805E-01    0.4435344572E-01    0.3333765842E-02    0.1216502366E-02    0.3247245835E-01
    0.9000000000E+01    0.2183538607E-01    0.5504985663E-01    0.4161410900E-02    0.1533707737E-02    0.4053941625E-01
    0.1100000000E+02    0.2618470275E-01    0.6501778195E-01    0.4942809085E-02    0.1839224938E-02    0.4815775219E-01
    0.1300000000E+02    0.3037930954E-01    0.7432317169E-01    0.5682024687E-02    0.2133882263E-02    0.5536683575E-01
    0.1500000000E+02    0.3442987490E-01    0.8302437809E-01    0.6382651231E-02    0.2418428489E-02    0.6220147976E-01
    0.1700000000E+02    0.3834606838E-01    0.9117321382E-01    0.7047878122E-02    0.2693542291E-02    0.6869258508E-01
    0.1900000000E+02    0.4213667613E-01    0.9881583829E-01    0.7680546245E-02    0.2959840346E-02    0.7486767855E-01
    0.2100000000E+02    0.4580970062E-01    0.1059935039E+00    0.8283194610E-02    0.3217884333E-02    0.8075136430E-01
    0.2300000000E+02    0.4937244713E-01    0.1127431873E+00    0.8858099677E-02    0.3468186998E-02    0.8636570440E-01
    0.2500000000E+02    0.5283159896E-01    0.1190981255E+00    0.9407308677E-02    0.3711217436E-02    0.9173054117E-01
    0.2700000000E+02    0.5619328305E-01    0.1250882743E+00    0.9932667966E-02    0.3947405695E-02    0.9686377167E-01
    0.2900000000E+02    0.5946312747E-01    0.1307407000E+00    0.1043584725E-01    0.4177146812E-02    0.1017815822E+00
    0.3100000000E+02    0.6264631185E-01    0.1360799172E+00    0.1091836040E-01    0.4400804349E-02    0.1064986498E+00
    0.3300000000E+02    0.6574761180E-01    0.1411281804E+00    0.1138158335E-01    0.4618713511E-02    0.1110283151E+00
    0.3500000000E+02    0.6877143808E-01    0.1459057360E+00    0.1182676959E-01    0.4831183898E-02    0.1153827331E+00
    0.3700000000E+02    0.7172187135E-01    0.1504310422E+00    0.1225506362E-01    0.5038501942E-02    0.1195730026E+00
    0.3900000000E+02    0.7460269295E-01    0.1547209603E+00    0.1266751263E-01    0.5240933063E-02    0.1236092799E+00
    0.4100000000E+02    0.7741741223E-01    0.1587909223E+00    0.1306507674E-01    0.5438723596E-02    0.1275008774E+00
    0.4300000000E+02    0.8016929105E-01    0.1626550773E+00    0.1344863795E-01    0.5632102503E-02    0.1312563508E+00
    0.4500000000E+02    0.8286136552E-01    0.1663264213E+00    0.1381900800E-01    0.5821282900E-02    0.1348835748E+00
    0.4700000000E+02    0.8549646557E-01    0.1698169110E+00    0.1417693528E-01    0.6006463434E-02    0.1383898103E+00
    0.4900000000E+02    0.8807723244E-01    0.1731375642E+00    0.1452311101E-01    0.6187829506E-02    0.1417817640E+00
    0.1000000000E+02    0.2403009247E-01    0.6012056630E-01    0.4557624933E-02    0.1687873607E-02    0.4440208618E-01
    0.3000000000E+02    0.6106524471E-01    0.1334480189E+00    0.1067959806E-01    0.4289714447E-02    0.1041643456E+00
    0.5000000000E+02    0.8934801864E-01    0.1747374108E+00    0.1469199375E-01    0.6277136711E-02    0.1434368424E+00
    0.7000000000E+02    0.1124326083E+00    0.1999117746E+00    0.1758507030E-01    0.7899618991E-02    0.1718233980E+00
    0.9000000000E+02    0.1321071062E+00    0.2159834114E+00    0.1980502844E-01    0.9282680383E-02    0.1936553430E+00
    0.1100000000E+03    0.1493793034E+00    0.2264920005E+00    0.2158432303E-01    0.1049706861E-01    0.2111910872E+00
    0.1300000000E+03    0.1648659186E+00    0.2334024615E+00    0.2305684762E-01    0.1158607958E-01    0.2257325416E+00
    0.1500000000E+03    0.1789687224E+00    0.2378849309E+00    0.2430564074E-01    0.1257791999E-01    0.2380877715E+00
    0.1700000000E+03    0.1919626871E+00    0.2406749730E+00    0.2538521009E-01    0.1349189500E-01    0.2487876125E+00
    0.1900000000E+03    0.2040436823E+00    0.2422552441E+00    0.2633298299E-01    0.1434175643E-01    0.2581968331E+00
    0.2100000000E+03    0.2153559346E+00    0.2429536651E+00    0.2717561616E-01    0.1513763043E-01    0.2665754219E+00
    0.2300000000E+03    0.2260086630E+00    0.2429995190E+00    0.2793267964E-01    0.1588718531E-01    0.2741143861E+00
    0.2500000000E+03    0.2360865891E+00    0.2425570177E+00    0.2861891215E-01    0.1659636947E-01    0.2809576797E+00
    0.2700000000E+03    0.2456568222E+00    0.2417461791E+00    0.2924565829E-01    0.1726989470E-01    0.2872161818E+00
    0.2900000000E+03    0.2547735072E+00    0.2406562487E+00    0.2982181584E-01    0.1791156259E-01    0.2929769156E+00
    0.3100000000E+03    0.2634810491E+00    0.2393545761E+00    0.3035447875E-01    0.1852449083E-01    0.2983093081E+00
    0.3300000000E+03    0.2718164007E+00    0.2378926350E+00    0.3084938488E-01    0.1911127388E-01    0.3032695505E+00
    0.3500000000E+03    0.2798107197E+00    0.2363101935E+00    0.3131123478E-01    0.1967409937E-01    0.3079037048E+00
    0.3700000000E+03    0.2874905921E+00    0.2346382629E+00    0.3174392322E-01    0.2021483385E-01    0.3122499608E+00
    0.3900000000E+03    0.2948789478E+00    0.2329012156E+00    0.3215071042E-01    0.2073508727E-01    0.3163403055E+00
    0.4100000000E+03    0.3019957591E+00    0.2311183326E+00    0.3253435056E-01    0.2123626185E-01    0.3202017771E+00
    0.4300000000E+03    0.3088585774E+00    0.2293049489E+00    0.3289718980E-01    0.2171958988E-01    0.3238574219E+00
    0.4500000000E+03    0.3154829533E+00    0.2274733125E+00    0.3324124192E-01    0.2218616315E-01    0.3273270325E+00
    0.4700000000E+03    0.3218827672E+00    0.2256332357E+00    0.3356824737E-01    0.2263695622E-01    0.3306277247E+00
    0.4900000000E+03    0.3280704930E+00    0.2237925945E+00    0.3387971996E-01    0.2307284489E-01    0.3337743937E+00
    0.1000000000E+03    0.1409984533E+00    0.2217854936E+00    0.2073981936E-01    0.9907796766E-02    0.2028636191E+00
    0.3000000000E+03    0.2591759588E+00    0.2400283471E+00    0.3009319797E-01    0.1822144629E-01    0.2956928737E+00
    0.5000000000E+03    0.3310883895E+00    0.2228740911E+00    0.3403005184E-01    0.2328545050E-01    0.3352941082E+00
    0.7000000000E+03    0.3825804652E+00    0.2054677263E+00    0.3647028122E-01    0.2691437985E-01    0.3600567125E+00
    0.9000000000E+03    0.4213461275E+00    0.1906743096E+00    0.3821539118E-01    0.2964848461E-01    0.3778837656E+00
    0.1100000000E+04    0.4513505231E+00    0.1784085929E+00    0.3956104912E-01    0.3176627005E-01    0.3917053846E+00
    0.1300000000E+04    0.4750533620E+00    0.1682074852E+00    0.4064834153E-01    0.3344056673E-01    0.4029255430E+00
    0.1500000000E+04    0.4941006531E+00    0.1596349432E+00    0.4155538917E-01    0.3478707447E-01    0.4123243629E+00
    0.1700000000E+04    0.5096376462E+00    0.1523428786E+00    0.4232988865E-01    0.3588632314E-01    0.4203796028E+00
    0.1900000000E+04    0.5224817039E+00    0.1460647545E+00    0.4300305219E-01    0.3679580637E-01    0.4274047490E+00
    0.2100000000E+04    0.5332278476E+00    0.1405981735E+00    0.4359639180E-01    0.3755739190E-01    0.4336163881E+00
    0.2300000000E+04    0.5423166729E+00    0.1357888678E+00    0.4412534346E-01    0.3820209125E-01    0.4391702763E+00
    0.2500000000E+04    0.5500794561E+00    0.1315182354E+00    0.4460134602E-01    0.3875322866E-01    0.4441820729E+00
    0.2700000000E+04    0.5567687943E+00    0.1276941245E+00    0.4503310291E-01    0.3922859413E-01    0.4487399456E+00
    0.2900000000E+04    0.5625798029E+00    0.1242441279E+00    0.4542738363E-01    0.3964193342E-01    0.4529125926E+00
    0.3100000000E+04    0.5676650153E+00    0.1211107141E+00    0.4578955257E-01    0.4000399561E-01    0.4567545439E+00
    0.3300000000E+04    0.5721450113E+00    0.1182476744E+00    0.4612392924E-01    0.4032328052E-01    0.4603097778E+00
    0.3500000000E+04    0.5761161017E+00    0.1156175108E+00    0.4643404052E-01    0.4060657920E-01    0.4636142561E+00
    0.3700000000E+04    0.5796559556E+00    0.1131894969E+00    0.4672280133E-01    0.4085936990E-01    0.4666977441E+00
    0.3900000000E+04    0.5828277707E+00    0.1109382243E+00    0.4699264694E-01    0.4108611148E-01    0.4695851430E+00
    0.4100000000E+04    0.5856833997E+00    0.1088425026E+00    0.4724563144E-01    0.4129046343E-01    0.4722974846E+00
    0.4300000000E+04    0.5882657179E+00    0.1068845174E+00    0.4748350242E-01    0.4147545261E-01    0.4748526848E+00
    0.4500000000E+04    0.5906104349E+00    0.1050491810E+00    0.4770775821E-01    0.4164360076E-01    0.4772661235E+00
    0.4700000000E+04    0.5927474944E+00    0.1033236255E+00    0.4791969252E-01    0.4179702310E-01    0.4795510958E+00
    0.4900000000E+04    0.5947021643E+00    0.1016968055E+00    0.4812042953E-01    0.4193750508E-01    0.4817191681E+00
    0.1000000000E+04    0.4372654611E+00    0.1842533223E+00    0.3892725085E-01    0.3077191006E-01    0.3851868935E+00
    0.3000000000E+04    0.5652049503E+00    0.1226409671E+00    0.4561219099E-01    0.3982879736E-01    0.4548719432E+00
    0.5000000000E+04    0.5956179356E+00    0.1009173888E+00    0.4821691100E-01    0.4200337637E-01    0.4827625795E+00
    0.7000000000E+04    0.6081727219E+00    0.8876014451E-01    0.4974312570E-01    0.4291123553E-01    0.4993972419E+00
    0.9000000000E+04    0.6148480808E+00    0.8058583819E-01    0.5078342607E-01    0.4339976675E-01    0.5108983331E+00
    0.1100000000E+05    0.6189417722E+00    0.7454472357E-01    0.5155324387E-01    0.4370310377E-01    0.5195137815E+00
    0.1300000000E+05    0.6216915873E+00    0.6981649178E-01    0.5215344314E-01    0.4390945806E-01    0.5263044376E+00
    0.1500000000E+05    0.6236587098E+00    0.6597026592E-01    0.5263869931E-01    0.4405897836E-01    0.5318492810E+00
    0.1700000000E+05    0.6251321924E+00    0.6275337486E-01    0.5304167486E-01    0.4417242730E-01    0.5364962833E+00
    0.1900000000E+05    0.6262752898E+00    0.6000573611E-01    0.5338328994E-01    0.4426157949E-01    0.5404695438E+00
    0.2100000000E+05    0.6271868649E+00    0.5761994390E-01    0.5367766748E-01    0.4433359508E-01    0.5439211159E+00
    0.2300000000E+05    0.6279301465E+00    0.5552067658E-01    0.5393474289E-01    0.4439307282E-01    0.5469584727E+00
    0.2500000000E+05    0.6285473902E+00    0.5365322048E-01    0.5416174170E-01    0.4444309916E-01    0.5496601213E+00
    0.2700000000E+05    0.6290678732E+00    0.5197667473E-01    0.5436406449E-01    0.4448582184E-01    0.5520849857E+00
    0.2900000000E+05    0.6295125032E+00    0.5045972597E-01    0.5454584150E-01    0.4452278123E-01    0.5542783096E+00
    0.3100000000E+05    0.6298965983E+00    0.4907791271E-01    0.5471029377E-01    0.4455511088E-01    0.5562755115E+00
    0.3300000000E+05    0.6302316316E+00    0.4781179317E-01    0.5485997595E-01    0.4458366350E-01    0.5581047847E+00
    0.3500000000E+05    0.6305263623E+00    0.4664568216E-01    0.5499694410E-01    0.4460909297E-01    0.5597888996E+00
    0.3700000000E+05    0.6307875908E+00    0.4556675836E-01    0.5512287446E-01    0.4463190917E-01    0.5613464832E+00
    0.3900000000E+05    0.6310206755E+00    0.4456441954E-01    0.5523914932E-01    0.4465251567E-01    0.5627929463E+00
    0.4100000000E+05    0.6312298946E+00    0.4362980778E-01    0.5534692027E-01    0.4467123608E-01    0.5641411683E+00
    0.4300000000E+05    0.6314187046E+00    0.4275545402E-01    0.5544715552E-01    0.4468833303E-01    0.5654020110E+00
    0.4500000000E+05    0.6315899278E+00    0.4193500779E-01    0.5554067585E-01    0.4470402191E-01    0.5665847098E+00
    0.4700000000E+05    0.6317458913E+00    0.4116302895E-01    0.5562818231E-01    0.4471848108E-01    0.5676971759E+00
    0.4900000000E+05    0.6318885303E+00    0.4043482518E-01    0.5571027781E-01    0.4473185955E-01    0.5687462325E+00
    0.1000000000E+05    0.6171163098E+00    0.7736307122E-01    0.5119430645E-01    0.4356737070E-01    0.5154844831E+00
    0.3000000000E+05    0.6297113260E+00    0.4975324317E-01    0.5463006020E-01    0.4453946602E-01    0.5552995185E+00
    0.5000000000E+05    0.6319553706E+00    0.4008584498E-01    0.5574946227E-01    0.4473818352E-01    0.5692488634E+00
    0.7000000000E+05    0.6328766289E+00    0.3464905851E-01    0.5634531777E-01    0.4483006392E-01    0.5770701499E+00
    0.9000000000E+05    0.6333750078E+00    0.3102537977E-01    0.5672480083E-01    0.4488540667E-01    0.5822745343E+00
    0.1100000000E+06    0.6336858677E+00    0.2838054059E-01    0.5699092602E-01    0.4492350201E-01    0.5860700476E+00
    0.1300000000E+06    0.6338975053E+00    0.2633676122E-01    0.5718923254E-01    0.4495191722E-01    0.5890021400E+00
    0.1500000000E+06    0.6340504152E+00    0.2469408679E-01    0.5734332493E-01    0.4497427322E-01    0.5913588508E+00
    0.1700000000E+06    0.6341657522E+00    0.2333520798E-01    0.5746679498E-01    0.4499254013E-01    0.5933088644E+00
    0.1900000000E+06    0.6342556326E+00    0.2218605112E-01    0.5756807999E-01    0.4500789141E-01    0.5949585455E+00
    0.2100000000E+06    0.6343274888E+00    0.2119718207E-01    0.5765272260E-01    0.4502107464E-01    0.5963787995E+00
    0.2300000000E+06    0.6343861298E+00    0.2033415234E-01    0.5772452861E-01    0.4503259154E-01    0.5976189939E+00
    0.2500000000E+06    0.6344348025E+00    0.1957210700E-01    0.5778620599E-01    0.4504279313E-01    0.5987147231E+00
    0.2700000000E+06    0.6344757770E+00    0.1889259298E-01    0.5783973876E-01    0.4505193342E-01    0.5996923985E+00
    0.2900000000E+06    0.6345106876E+00    0.1828157827E-01    0.5788661662E-01    0.4506020151E-01    0.6005720949E+00
    0.3100000000E+06    0.6345407398E+00    0.1772817358E-01    0.5792798167E-01    0.4506774152E-01    0.6013693857E+00
    0.3300000000E+06    0.6345668423E+00    0.1722377919E-01    0.5796472539E-01    0.4507466557E-01    0.6020965663E+00
    0.3500000000E+06    0.6345896925E+00    0.1676149943E-01    0.5799755452E-01    0.4508106244E-01    0.6027634939E+00
    0.3700000000E+06    0.6346098343E+00    0.1633573059E-01    0.5802703716E-01    0.4508700347E-01    0.6033781775E+00
    0.3900000000E+06    0.6346276981E+00    0.1594186468E-01    0.5805363545E-01    0.4509254684E-01    0.6039472024E+00
    0.4100000000E+06    0.6346436288E+00    0.1557607235E-01    0.5807772950E-01    0.4509774049E-01    0.6044760407E+00
    0.4300000000E+06    0.6346579058E+00    0.1523514104E-01    0.5809963494E-01    0.4510262441E-01    0.6049692830E+00
    0.4500000000E+06    0.6346707579E+00    0.1491635255E-01    0.5811961622E-01    0.4510723225E-01    0.6054308135E+00
    0.4700000000E+06    0.6346823742E+00    0.1461738908E-01    0.5813789663E-01    0.4511159256E-01    0.6058639442E+00
    0.4900000000E+06    0.6346929123E+00    0.1433626029E-01    0.5815466608E-01    0.4511572979E-01    0.6062715195E+00
    0.1000000000E+06    0.6335466672E+00    0.2961018620E-01    0.5686844562E-01    0.4490599921E-01    0.5843056599E+00
    0.3000000000E+06    0.6345262584E+00    0.1799825793E-01    0.5790792755E-01    0.4506405488E-01    0.6009802070E+00
    0.5000000000E+06    0.6346978191E+00    0.1420183709E-01    0.5816253595E-01    0.4511772145E-01    0.6064665053E+00
    0.7000000000E+06    0.6347625373E+00    0.1213294965E-01    0.5827004423E-01    0.4514971008E-01    0.6094773140E+00
    0.9000000000E+06    0.6347937479E+00    0.1078021695E-01    0.5832379636E-01    0.4517241400E-01    0.6114586491E+00
    0.1100000000E+07    0.6348106190E+00    0.9805941110E-02    0.5835222963E-01    0.4518998560E-01    0.6128941145E+00
    0.1300000000E+07    0.6348202358E+00    0.9060526802E-02    0.5836696613E-01    0.4520430794E-01    0.6139983863E+00
    0.1500000000E+07    0.6348257766E+00    0.8466061768E-02    0.5837362012E-01    0.4521639101E-01    0.6148835178E+00
    0.1700000000E+07    0.6348288577E+00    0.7977406277E-02    0.5837521704E-01    0.4522683830E-01    0.6156145715E+00
    0.1900000000E+07    0.6348303771E+00    0.7566344845E-02    0.5837351828E-01    0.4523603881E-01    0.6162323040E+00
    0.2100000000E+07    0.6348308675E+00    0.7214205442E-02    0.5836961000E-01    0.4524425778E-01    0.6167637438E+00
    0.2300000000E+07    0.6348306611E+00    0.6908069094E-02    0.5836419223E-01    0.4525168409E-01    0.6172276298E+00
    0.2500000000E+07    0.6348299738E+00    0.6638672012E-02    0.5835773216E-01    0.4525845697E-01    0.6176374258E+00
    0.2700000000E+07    0.6348289500E+00    0.6399173531E-02    0.5835055044E-01    0.4526468196E-01    0.6180030934E+00
    0.2900000000E+07    0.6348276893E+00    0.6184396733E-02    0.5834287212E-01    0.4527044097E-01    0.6183321854E+00
    0.3100000000E+07    0.6348262618E+00    0.5990341269E-02    0.5833485813E-01    0.4527579886E-01    0.6186305489E+00
    0.3300000000E+07    0.6348247176E+00    0.5813860047E-02    0.5832662523E-01    0.4528080782E-01    0.6189027918E+00
    0.3500000000E+07    0.6348230929E+00    0.5652438358E-02    0.5831825917E-01    0.4528551049E-01    0.6191526028E+00
    0.3700000000E+07    0.6348214147E+00    0.5504039144E-02    0.5830982349E-01    0.4528994216E-01    0.6193829747E+00
    0.3900000000E+07    0.6348197027E+00    0.5366992200E-02    0.5830136561E-01    0.4529413234E-01    0.6195963656E+00
    0.4100000000E+07    0.6348179719E+00    0.5239913267E-02    0.5829292104E-01    0.4529810599E-01    0.6197948159E+00
    0.4300000000E+07    0.6348162335E+00    0.5121643947E-02    0.5828451643E-01    0.4530188437E-01    0.6199800358E+00
    0.4500000000E+07    0.6348144958E+00    0.5011206364E-02    0.5827617178E-01    0.4530548578E-01    0.6201534714E+00
    0.4700000000E+07    0.6348127652E+00    0.4907768491E-02    0.5826790199E-01    0.4530892605E-01    0.6203163548E+00
    0.4900000000E+07    0.6348110466E+00    0.4810617284E-02    0.5825971812E-01    0.4531221899E-01    0.6204697434E+00
    0.1000000000E+07    0.6348033944E+00    0.1025754390E-01    0.5834024409E-01    0.4518169431E-01    0.6122277323E+00
    0.3000000000E+07    0.6348269929E+00    0.6084992545E-02    0.5833889893E-01    0.4527316654E-01    0.6184848955E+00
    0.5000000000E+07    0.6348101930E+00    0.4764203614E-02    0.5825566101E-01    0.4531381405E-01    0.6205431676E+00
    0.7000000000E+07    0.6347942423E+00    0.4053076572E-02    0.5818002065E-01    0.4534026701E-01    0.6216813073E+00
    0.9000000000E+07    0.6347805688E+00    0.3591348476E-02    0.5811452163E-01    0.4535991290E-01    0.6224363949E+00
    0.1100000000E+08    0.6347688144E+00    0.3260367817E-02    0.5805736990E-01    0.4537554819E-01    0.6229877492E+00
    0.1300000000E+08    0.6347585648E+00    0.3008015905E-02    0.5800682788E-01    0.4538853646E-01    0.6234150364E+00
    0.1500000000E+08    0.6347495000E+00    0.2807309719E-02    0.5796156650E-01    0.4539964589E-01    0.6237599135E+00
    0.1700000000E+08    0.6347413835E+00    0.2642686882E-02    0.5792059598E-01    0.4540935222E-01    0.6240466216E+00
    0.1900000000E+08    0.6347340404E+00    0.2504454820E-02    0.5788317223E-01    0.4541797065E-01    0.6242903830E+00
    0.2100000000E+08    0.6347273383E+00    0.2386218292E-02    0.5784872591E-01    0.4542572077E-01    0.6245013180E+00
    0.2300000000E+08    0.6347211758E+00    0.2283563518E-02    0.5781681331E-01    0.4543276175E-01    0.6246864611E+00
    0.2500000000E+08    0.6347154731E+00    0.2193332272E-02    0.5778708258E-01    0.4543921265E-01    0.6248508794E+00
    0.2700000000E+08    0.6347101669E+00    0.2113196757E-02    0.5775925031E-01    0.4544516482E-01    0.6249983316E+00
