  Pressure (Pa) 22mC5-400 (mol/kg) 2mC6-400 (mol/kg) 3mC6-400 (mol/kg) 23mC5-400 (mol/kg) C7-400 (mol/kg)
    0.1000000000E+01    0.2635816550E-02    0.6331255196E-02    0.1053091829E-02    0.3702574310E-03    0.1708855375E-02
    0.3000000000E+01    0.7745559476E-02    0.1842744850E-01    0.3087260135E-02    0.1088046049E-02    0.5010178120E-02
    0.5000000000E+01    0.1265304680E-01    0.2981955392E-01    0.5031221163E-02    0.1777441656E-02    0.8165700745E-02
    0.7000000000E+01    0.1737314713E-01    0.4056323217E-01    0.6891362907E-02    0.2440531264E-02    0.1118573560E-01
    0.9000000000E+01    0.2191925877E-01    0.5070852422E-01    0.8673473083E-02    0.3079195527E-02    0.1407962658E-01
    0.1100000000E+02    0.2630348836E-01    0.6030053780E-01    0.1038280849E-01    0.3695133815E-02    0.1685586102E-01
    0.1300000000E+02    0.3053680411E-01    0.6938003599E-01    0.1202415490E-01    0.4289885708E-02    0.1952216627E-01
    0.1500000000E+02    0.3462916757E-01    0.7798394404E-01    0.1360187909E-01    0.4864849498E-02    0.2208559354E-01
    0.1700000000E+02    0.3858964753E-01    0.8614578703E-01    0.1511997396E-01    0.5421298176E-02    0.2455259083E-01
    0.1900000000E+02    0.4242651878E-01    0.9389606937E-01    0.1658209808E-01    0.5960393281E-02    0.2692906653E-01
    0.2100000000E+02    0.4614734790E-01    0.1012626047E+00    0.1799161019E-01    0.6483196957E-02    0.2922044519E-01
    0.2300000000E+02    0.4975906826E-01    0.1082708039E+00    0.1935159953E-01    0.6990682465E-02    0.3143171646E-01
    0.2500000000E+02    0.5326804556E-01    0.1149439268E+00    0.2066491261E-01    0.7483743388E-02    0.3356747814E-01
    0.2700000000E+02    0.5668013539E-01    0.1213033030E+00    0.2193417671E-01    0.7963201709E-02    0.3563197428E-01
    0.2900000000E+02    0.6000073391E-01    0.1273685268E+00    0.2316182086E-01    0.8429814926E-02    0.3762912882E-01
    0.3100000000E+02    0.6323482259E-01    0.1331576281E+00    0.2435009426E-01    0.8884282326E-02    0.3956257552E-01
    0.3300000000E+02    0.6638700776E-01    0.1386872245E+00    0.2550108285E-01    0.9327250540E-02    0.4143568451E-01
    0.3500000000E+02    0.6946155572E-01    0.1439726554E+00    0.2661672394E-01    0.9759318472E-02    0.4325158601E-01
    0.3700000000E+02    0.7246242398E-01    0.1490281016E+00    0.2769881938E-01    0.1018104168E-01    0.4501319152E-01
    0.3900000000E+02    0.7539328907E-01    0.1538666918E+00    0.2874904726E-01    0.1059293629E-01    0.4672321279E-01
    0.4100000000E+02    0.7825757141E-01    0.1585005972E+00    0.2976897252E-01    0.1099548245E-01    0.4838417881E-01
    0.4300000000E+02    0.8105845753E-01    0.1629411168E+00    0.3076005640E-01    0.1138912752E-01    0.4999845112E-01
    0.4500000000E+02    0.8379892005E-01    0.1671987529E+00    0.3172366495E-01    0.1177428880E-01    0.5156823761E-01
    0.4700000000E+02    0.8648173559E-01    0.1712832799E+00    0.3266107679E-01    0.1215135608E-01    0.5309560493E-01
    0.4900000000E+02    0.8910950094E-01    0.1752038053E+00    0.3357349002E-01    0.1252069392E-01    0.5458248975E-01
    0.1000000000E+02    0.2413089826E-01    0.5557104760E-01    0.9536928125E-02    0.3389905679E-02    0.1548195114E-01
    0.3000000000E+02    0.6162829573E-01    0.1302965227E+00    0.2376074489E-01    0.8658525265E-02    0.3860359913E-01
    0.5000000000E+02    0.9040350574E-01    0.1771052450E+00    0.3402067612E-01    0.1270257183E-01    0.5531132340E-01
    0.7000000000E+02    0.1139090108E+00    0.2083105682E+00    0.4189110226E-01    0.1600671108E-01    0.6814927292E-01
    0.9000000000E+02    0.1339187536E+00    0.2300031364E+00    0.4819709561E-01    0.1881998770E-01    0.7845154034E-01
    0.1100000000E+03    0.1514465086E+00    0.2455221647E+00    0.5341532304E-01    0.2128473298E-01    0.8698931000E-01
    0.1300000000E+03    0.1671187004E+00    0.2568420443E+00    0.5784175633E-01    0.2348889880E-01    0.9424169008E-01
    0.1500000000E+03    0.1813463586E+00    0.2651997552E+00    0.6167067749E-01    0.2549019670E-01    0.1005233455E+00
    0.1700000000E+03    0.1944123737E+00    0.2714065877E+00    0.6503538494E-01    0.2732834754E-01    0.1060502828E+00
    0.1900000000E+03    0.2065191945E+00    0.2760147465E+00    0.6803069287E-01    0.2903177780E-01    0.1109762237E+00
    0.2100000000E+03    0.2178165026E+00    0.2794117812E+00    0.7072609258E-01    0.3062150501E-01    0.1154138903E+00
    0.2300000000E+03    0.2284180768E+00    0.2818767583E+00    0.7317381991E-01    0.3211350555E-01    0.1194480552E+00
    0.2500000000E+03    0.2384124980E+00    0.2836150563E+00    0.7541399849E-01    0.3352021769E-01    0.1231438657E+00
    0.2700000000E+03    0.2478701856E+00    0.2847806747E+00    0.7747803034E-01    0.3485152954E-01    0.1265523315E+00
    0.2900000000E+03    0.2568481621E+00    0.2854909677E+00    0.7939089659E-01    0.3611544807E-01    0.1297140511E+00
    0.3100000000E+03    0.2653933639E+00    0.2858366312E+00    0.8117275856E-01    0.3731856397E-01    0.1326618043E+00
    0.3300000000E+03    0.2735449946E+00    0.2858886258E+00    0.8284009680E-01    0.3846638217E-01    0.1354223986E+00
    0.3500000000E+03    0.2813362328E+00    0.2857030747E+00    0.8440653770E-01    0.3956356155E-01    0.1380180082E+00
    0.3700000000E+03    0.2887954923E+00    0.2853247913E+00    0.8588346379E-01    0.4061409191E-01    0.1404671638E+00
    0.3900000000E+03    0.2959473677E+00    0.2847898605E+00    0.8728047166E-01    0.4162142685E-01    0.1427854951E+00
    0.4100000000E+03    0.3028133549E+00    0.2841275555E+00    0.8860572040E-01    0.4258858482E-01    0.1449862962E+00
    0.4300000000E+03    0.3094124062E+00    0.2833617808E+00    0.8986620022E-01    0.4351822717E-01    0.1470809611E+00
    0.4500000000E+03    0.3157613645E+00    0.2825121696E+00    0.9106794196E-01    0.4441271902E-01    0.1490793239E+00
    0.4700000000E+03    0.3218753054E+00    0.2815949298E+00    0.9221618230E-01    0.4527417738E-01    0.1509899271E+00
    0.4900000000E+03    0.3277678105E+00    0.2806235011E+00    0.9331549534E-01    0.4610450950E-01    0.1528202353E+00
    0.1000000000E+03    0.1429472461E+00    0.2383884867E+00    0.5092063374E-01    0.2008951974E-01    0.8290611490E-01
    0.3000000000E+03    0.2611722510E+00    0.2857045460E+00    0.8029709774E-01    0.3672424002E-01    0.1312128758E+00
    0.5000000000E+03    0.3306349153E+00    0.2801210381E+00    0.9384807881E-01    0.4650854960E-01    0.1537073596E+00
    0.7000000000E+03    0.3788335732E+00    0.2691278567E+00    0.1026913393E+00    0.5330378520E-01    0.1684763948E+00
    0.9000000000E+03    0.4141694934E+00    0.2584754600E+00    0.1092775527E+00    0.5828989995E-01    0.1795252080E+00
    0.1100000000E+04    0.4409321171E+00    0.2490872457E+00    0.1145343534E+00    0.6206956743E-01    0.1883751789E+00
    0.1300000000E+04    0.4617081163E+00    0.2409610026E+00    0.1189119807E+00    0.6500636978E-01    0.1957668506E+00
    0.1500000000E+04    0.4781723134E+00    0.2339123551E+00    0.1226634089E+00    0.6733581451E-01    0.2021173220E+00
    0.1700000000E+04    0.4914539807E+00    0.2277476149E+00    0.1259452415E+00    0.6921675649E-01    0.2076853397E+00
    0.1900000000E+04    0.5023369728E+00    0.2223023617E+00    0.1288613450E+00    0.7075950082E-01    0.2126428340E+00
    0.2100000000E+04    0.5113784375E+00    0.2174451608E+00    0.1314842551E+00    0.7204247769E-01    0.2171100708E+00
    0.2300000000E+04    0.5189826323E+00    0.2130727718E+00    0.1338666947E+00    0.7312261429E-01    0.2211745967E+00
    0.2500000000E+04    0.5254483331E+00    0.2091042153E+00    0.1360482298E+00    0.7404199825E-01    0.2249021999E+00
    0.2700000000E+04    0.5310000683E+00    0.2054756228E+00    0.1380593367E+00    0.7483226871E-01    0.2283436186E+00
    0.2900000000E+04    0.5358091472E+00    0.2021361892E+00    0.1399240048E+00    0.7551757359E-01    0.2315388381E+00
    0.3100000000E+04    0.5400080974E+00    0.1990451027E+00    0.1416614668E+00    0.7611660031E-01    0.2345199493E+00
    0.3300000000E+04    0.5437007519E+00    0.1961692462E+00    0.1432873849E+00    0.7664399505E-01    0.2373131130E+00
    0.3500000000E+04    0.5469694141E+00    0.1934814768E+00    0.1448146883E+00    0.7711137101E-01    0.2399399455E+00
    0.3700000000E+04    0.5498800232E+00    0.1909593330E+00    0.1462541774E+00    0.7752803549E-01    0.2424185201E+00
    0.3900000000E+04    0.5524859307E+00    0.1885840571E+00    0.1476149688E+00    0.7790152163E-01    0.2447641061E+00
    0.4100000000E+04    0.5548306982E+00    0.1863398494E+00    0.1489048298E+00    0.7823798234E-01    0.2469897235E+00
    0.4300000000E+04    0.5569501941E+00    0.1842132944E+00    0.1501304332E+00    0.7854248566E-01    0.2491065666E+00
    0.4500000000E+04    0.5588741837E+00    0.1821929153E+00    0.1512975546E+00    0.7881923875E-01    0.2511243314E+00
    0.4700000000E+04    0.5606275474E+00    0.1802688247E+00    0.1524112265E+00    0.7907175954E-01    0.2530514735E+00
    0.4900000000E+04    0.5622312228E+00    0.1784324492E+00    0.1534758614E+00    0.7930300956E-01    0.2548954111E+00
    0.1000000000E+04    0.4284333322E+00    0.2536153024E+00    0.1120374923E+00    0.6030395820E-01    0.1841681202E+00
    0.3000000000E+04    0.5379778219E+00    0.2005618301E+00    0.1408075852E+00    0.7582687507E-01    0.2330544017E+00
    0.5000000000E+04    0.5629825770E+00    0.1775447796E+00    0.1539910239E+00    0.7941145738E-01    0.2557882539E+00
    0.7000000000E+04    0.5732945762E+00    0.1629956839E+00    0.1624617627E+00    0.8090879141E-01    0.2705266426E+00
    0.9000000000E+04    0.5787984315E+00    0.1524062210E+00    0.1686231034E+00    0.8171878828E-01    0.2813205260E+00
    0.1100000000E+05    0.5821875133E+00    0.1441259769E+00    0.1734166441E+00    0.8222448779E-01    0.2897661066E+00
    0.1300000000E+05    0.5844721271E+00    0.1373614990E+00    0.1773092162E+00    0.8257018825E-01    0.2966582292E+00
    0.1500000000E+05    0.5861112496E+00    0.1316681428E+00    0.1805659173E+00    0.8282173284E-01    0.3024499051E+00
    0.1700000000E+05    0.5873419472E+00    0.1267710516E+00    0.1833514289E+00    0.8301328365E-01    0.3074234405E+00
    0.1900000000E+05    0.5882985017E+00    0.1224882974E+00    0.1857748438E+00    0.8316427987E-01    0.3117663743E+00
    0.2100000000E+05    0.5890624567E+00    0.1186932153E+00    0.1879120186E+00    0.8328658097E-01    0.3156094434E+00
    0.2300000000E+05    0.5896860991E+00    0.1152941060E+00    0.1898177402E+00    0.8338782713E-01    0.3190472925E+00
    0.2500000000E+05    0.5902044544E+00    0.1122224859E+00    0.1915328061E+00    0.8347316049E-01    0.3221505529E+00
    0.2700000000E+05    0.5906418424E+00    0.1094258921E+00    0.1930883716E+00    0.8354616851E-01    0.3249732722E+00
    0.2900000000E+05    0.5910156641E+00    0.1068632738E+00    0.1945087364E+00    0.8360943030E-01    0.3275576855E+00
    0.3100000000E+05    0.5913386908E+00    0.1045019276E+00    0.1958131967E+00    0.8366484787E-01    0.3299373926E+00
    0.3300000000E+05    0.5916205032E+00    0.1023153951E+00    0.1970173154E+00    0.8371385493E-01    0.3321395387E+00
    0.3500000000E+05    0.5918684263E+00    0.1002819811E+00    0.1981338147E+00    0.8375755292E-01    0.3341863506E+00
    0.3700000000E+05    0.5920881541E+00    0.9838368593E-01    0.1991732188E+00    0.8379680218E-01    0.3360962443E+00
    0.3900000000E+05    0.5922841788E+00    0.9660541950E-01    0.2001443260E+00    0.8383228470E-01    0.3378846383E+00
    0.4100000000E+05    0.5924600905E+00    0.9493441309E-01    0.2010545610E+00    0.8386454823E-01    0.3395645632E+00
    0.4300000000E+05    0.5926187929E+00    0.9335977186E-01    0.2019102427E+00    0.8389403784E-01    0.3411471240E+00
    0.4500000000E+05    0.5927626588E+00    0.9187212969E-01    0.2027167897E+00    0.8392111905E-01    0.3426418568E+00
    0.4700000000E+05    0.5928936460E+00    0.9046337954E-01    0.2034788812E+00    0.8394609488E-01    0.3440570069E+00
    0.4900000000E+05    0.5930133841E+00    0.8912646047E-01    0.2042005833E+00    0.8396921877E-01    0.3453997487E+00
    0.1000000000E+05    0.5806746479E+00    0.1480385546E+00    0.1711550823E+00    0.8199788081E-01    0.2857760250E+00
    0.3000000000E+05    0.5911828661E+00    0.1056592219E+00    0.1951744063E+00    0.8363802089E-01    0.3287713000E+00
    0.5000000000E+05    0.5930694707E+00    0.8848297449E-01    0.2045474167E+00    0.8398015433E-01    0.3460459593E+00
    0.7000000000E+05    0.5938401261E+00    0.7821921395E-01    0.2100305945E+00    0.8413939316E-01    0.3563495664E+00
    0.9000000000E+05    0.5942535389E+00    0.7112007100E-01    0.2137657317E+00    0.8423562188E-01    0.3634783311E+00
    0.1100000000E+06    0.5945088258E+00    0.6580204176E-01    0.2165298431E+00    0.8430198867E-01    0.3688245239E+00
    0.1300000000E+06    0.5946807161E+00    0.6161087575E-01    0.2186858799E+00    0.8435155359E-01    0.3730441664E+00
    0.1500000000E+06    0.5948034469E+00    0.5818917324E-01    0.2204302195E+00    0.8439058352E-01    0.3764948565E+00
    0.1700000000E+06    0.5948948716E+00    0.5532203848E-01    0.2218800079E+00    0.8442249510E-01    0.3793913279E+00
    0.1900000000E+06    0.5949651912E+00    0.5287104528E-01    0.2231101962E+00    0.8444932639E-01    0.3818717951E+00
    0.2100000000E+06    0.5950206468E+00    0.5074226124E-01    0.2241713425E+00    0.8447237724E-01    0.3840300066E+00
    0.2300000000E+06    0.5950652641E+00    0.4886929154E-01    0.2250989939E+00    0.8449252086E-01    0.3859322155E+00
    0.2500000000E+06    0.5951017529E+00    0.4720363651E-01    0.2259189912E+00    0.8451036858E-01    0.3876268174E+00
    0.2700000000E+06    0.5951320012E+00    0.4570889512E-01    0.2266506433E+00    0.8452636306E-01    0.3891501399E+00
    0.2900000000E+06    0.5951573636E+00    0.4435711863E-01    0.2273087149E+00    0.8454083400E-01    0.3905300814E+00
    0.3100000000E+06    0.5951788358E+00    0.4312642865E-01    0.2279047194E+00    0.8455403279E-01    0.3917884874E+00
    0.3300000000E+06    0.5951971655E+00    0.4199941072E-01    0.2284477882E+00    0.8456615508E-01    0.3929427523E+00
    0.3500000000E+06    0.5952129242E+00    0.4096200066E-01    0.2289452708E+00    0.8457735582E-01    0.3940069297E+00
    0.3700000000E+06    0.5952265562E+00    0.4000269408E-01    0.2294031596E+00    0.8458775961E-01    0.3949925200E+00
    0.3900000000E+06    0.5952384116E+00    0.3911197342E-01    0.2298263970E+00    0.8459746801E-01    0.3959090422E+00
    0.4100000000E+06    0.5952487696E+00    0.3828188489E-01    0.2302191009E+00    0.8460656479E-01    0.3967644549E+00
    0.4300000000E+06    0.5952578559E+00    0.3750572106E-01    0.2305847344E+00    0.8461511980E-01    0.3975654730E+00
    0.4500000000E+06    0.5952658541E+00    0.3677777900E-01    0.2309262338E+00    0.8462319183E-01    0.3983178086E+00
    0.4700000000E+06    0.5952729155E+00    0.3609317375E-01    0.2312461077E+00    0.8463083081E-01    0.3990263572E+00
    0.4900000000E+06    0.5952791657E+00    0.3544769252E-01    0.2315465141E+00    0.8463807947E-01    0.3996953427E+00
    0.1000000000E+06    0.5943948447E+00    0.6828914345E-01    0.2152409417E+00    0.8427148434E-01    0.3663233481E+00
    0.3000000000E+06    0.5951685344E+00    0.4372781589E-01    0.2276138570E+00    0.8454757908E-01    0.3911732998E+00
    0.5000000000E+06    0.5952820201E+00    0.3513846189E-01    0.2316900107E+00    0.8464156913E-01    0.4000161645E+00
    0.7000000000E+06    0.5953147633E+00    0.3033019710E-01    0.2338826590E+00    0.8469763202E-01    0.4050360839E+00
    0.9000000000E+06    0.5953243193E+00    0.2713545599E-01    0.2352926208E+00    0.8473743812E-01    0.4084111585E+00
    0.1100000000E+07    0.5953249509E+00    0.2480881235E-01    0.2362903681E+00    0.8476825415E-01    0.4108947888E+00
    0.1300000000E+07    0.5953216296E+00    0.2301383083E-01    0.2370402673E+00    0.8479337699E-01    0.4128288376E+00
    0.1500000000E+07    0.5953164433E+00    0.2157291986E-01    0.2376278158E+00    0.8481457543E-01    0.4143946580E+00
    0.1700000000E+07    0.5953103761E+00    0.2038211839E-01    0.2381024111E+00    0.8483290658E-01    0.4156989039E+00
    0.1900000000E+07    0.5953039283E+00    0.1937589965E-01    0.2384948181E+00    0.8484905201E-01    0.4168090907E+00
    0.2100000000E+07    0.5952973672E+00    0.1851059925E-01    0.2388253105E+00    0.8486347648E-01    0.4177703913E+00
    0.2300000000E+07    0.5952908391E+00    0.1775582827E-01    0.2391078516E+00    0.8487651100E-01    0.4186143664E+00
    0.2500000000E+07    0.5952844249E+00    0.1708968481E-01    0.2393524062E+00    0.8488839958E-01    0.4193638462E+00
    0.2700000000E+07    0.5952781682E+00    0.1649592370E-01    0.2395662961E+00    0.8489932725E-01    0.4200358237E+00
    0.2900000000E+07    0.5952720911E+00    0.1596220218E-01    0.2397550344E+00    0.8490943759E-01    0.4206432536E+00
    0.3100000000E+07    0.5952662029E+00    0.1547894889E-01    0.2399228594E+00    0.8491884431E-01    0.4211962143E+00
    0.3300000000E+07    0.5952605053E+00    0.1503860993E-01    0.2400730881E+00    0.8492763891E-01    0.4217026846E+00
    0.3500000000E+07    0.5952549955E+00    0.1463513175E-01    0.2402083573E+00    0.8493589618E-01    0.4221690778E+00
    0.3700000000E+07    0.5952496681E+00    0.1426359761E-01    0.2403307916E+00    0.8494367797E-01    0.4226006181E+00
    0.3900000000E+07    0.5952445161E+00    0.1391996634E-01    0.2404421243E+00    0.8495103605E-01    0.4230016114E+00
    0.4100000000E+07    0.5952395320E+00    0.1360088111E-01    0.2405437841E+00    0.8495801419E-01    0.4233756443E+00
    0.4300000000E+07    0.5952347078E+00    0.1330352688E-01    0.2406369607E+00    0.8496464970E-01    0.4237257326E+00
    0.4500000000E+07    0.5952300358E+00    0.1302552269E-01    0.2407226529E+00    0.8497097465E-01    0.4240544334E+00
    0.4700000000E+07    0.5952255083E+00    0.1276483898E-01    0.2408017065E+00    0.8497701682E-01    0.4243639322E+00
    0.4900000000E+07    0.5952211178E+00    0.1251973346E-01    0.2408748423E+00    0.8498280042E-01    0.4246561096E+00
    0.1000000000E+07    0.5953253361E+00    0.2588998710E-01    0.2358300853E+00    0.8475371249E-01    0.4097376517E+00
    0.3000000000E+07    0.5952691231E+00    0.1571477944E-01    0.2398413354E+00    0.8491422274E-01    0.4209260019E+00
    0.5000000000E+07    0.5952189717E+00    0.1240254398E-01    0.2409093879E+00    0.8498560199E-01    0.4247962205E+00
    0.7000000000E+07    0.5951817459E+00    0.1059954876E-01    0.2414021099E+00    0.8503207054E-01    0.4269901507E+00
    0.9000000000E+07    0.5951524398E+00    0.9421189146E-02    0.2416768642E+00    0.8506658894E-01    0.4284708626E+00
    0.1100000000E+08    0.5951283288E+00    0.8572656602E-02    0.2418452225E+00    0.8509406495E-01    0.4295664713E+00
    0.1300000000E+08    0.5951078641E+00    0.7923487113E-02    0.2419538409E+00    0.8511689218E-01    0.4304248069E+00
    0.1500000000E+08    0.5950900935E+00    0.7405774595E-02    0.2420257724E+00    0.8513641929E-01    0.4311240145E+00
    0.1700000000E+08    0.5950743926E+00    0.6980192714E-02    0.2420737268E+00    0.8515348165E-01    0.4317099789E+00
    0.1900000000E+08    0.5950603307E+00    0.6622166722E-02    0.2421052793E+00    0.8516863276E-01    0.4322117341E+00
    0.2100000000E+08    0.5950475984E+00    0.6315437153E-02    0.2421252162E+00    0.8518225831E-01    0.4326487127E+00
    0.2300000000E+08    0.5950359665E+00    0.6048755857E-02    0.2421367026E+00    0.8519463785E-01    0.4330345029E+00
    0.2500000000E+08    0.5950252599E+00    0.5814057967E-02    0.2421419086E+00    0.8520598050E-01    0.4333789455E+00
    0.2700000000E+08    0.5950153423E+00    0.5605388564E-02    0.2421423670E+00    0.8521644675E-01    0.4336893757E+00
