  Pressure (Pa) 22mC5-400 (mol/kg) 2mC6-400 (mol/kg) 3mC6-400 (mol/kg) 23mC5-400 (mol/kg) C7-400 (mol/kg)
    0.1000000000E+01    0.2648908003E-02    0.7921334834E-03    0.1577144791E-02    0.6511673355E-03    0.6824735951E-02
    0.3000000000E+01    0.7858456445E-02    0.2309486596E-02    0.4609241961E-02    0.1931821933E-02    0.1994791465E-01
    0.5000000000E+01    0.1295380466E-01    0.3743023703E-02    0.7488758346E-02    0.3184426740E-02    0.3241384584E-01
    0.7000000000E+01    0.1793896592E-01    0.5098688533E-02    0.1022702687E-01    0.4409967267E-02    0.4427126945E-01
    0.9000000000E+01    0.2281776451E-01    0.6381874153E-02    0.1283428280E-01    0.5609382619E-02    0.5556420837E-01
    0.1100000000E+02    0.2759384668E-01    0.7597486457E-02    0.1531979354E-01    0.6783568192E-02    0.6633252608E-01
    0.1300000000E+02    0.3227069085E-01    0.8749998959E-02    0.1769197050E-01    0.7933378167E-02    0.7661240702E-01
    0.1500000000E+02    0.3685161707E-01    0.9843500258E-02    0.1995846571E-01    0.9059627848E-02    0.8643677179E-01
    0.1700000000E+02    0.4133979597E-01    0.1088173529E-01    0.2212625573E-01    0.1016309584E-01    0.9583563748E-01
    0.1900000000E+02    0.4573825698E-01    0.1186814131E-01    0.2420171461E-01    0.1124452610E-01    0.1048364311E+00
    0.2100000000E+02    0.5004989613E-01    0.1280587940E-01    0.2619067758E-01    0.1230462979E-01    0.1134642636E+00
    0.2300000000E+02    0.5427748328E-01    0.1369786208E-01    0.2809849692E-01    0.1334408713E-01    0.1217421691E+00
    0.2500000000E+02    0.5842366887E-01    0.1454677768E-01    0.2993009089E-01    0.1436354901E-01    0.1296913159E+00
    0.2700000000E+02    0.6249099032E-01    0.1535511180E-01    0.3168998692E-01    0.1536363855E-01    0.1373311921E+00
    0.2900000000E+02    0.6648187798E-01    0.1612516636E-01    0.3338235971E-01    0.1634495260E-01    0.1446797685E+00
    0.3100000000E+02    0.7039866068E-01    0.1685907648E-01    0.3501106498E-01    0.1730806306E-01    0.1517536445E+00
    0.3300000000E+02    0.7424357101E-01    0.1755882551E-01    0.3657966936E-01    0.1825351823E-01    0.1585681761E+00
    0.3500000000E+02    0.7801875022E-01    0.1822625844E-01    0.3809147703E-01    0.1918184395E-01    0.1651375906E+00
    0.3700000000E+02    0.8172625285E-01    0.1886309388E-01    0.3954955347E-01    0.2009354479E-01    0.1714750886E+00
    0.3900000000E+02    0.8536805108E-01    0.1947093484E-01    0.4095674665E-01    0.2098910508E-01    0.1775929351E+00
    0.4100000000E+02    0.8894603884E-01    0.2005127834E-01    0.4231570598E-01    0.2186898995E-01    0.1835025409E+00
    0.4300000000E+02    0.9246203563E-01    0.2060552410E-01    0.4362889941E-01    0.2273364625E-01    0.1892145361E+00
    0.4500000000E+02    0.9591779015E-01    0.2113498241E-01    0.4489862863E-01    0.2358350343E-01    0.1947388357E+00
    0.4700000000E+02    0.9931498375E-01    0.2164088117E-01    0.4612704296E-01    0.2441897442E-01    0.2000846989E+00
    0.4900000000E+02    0.1026552336E+00    0.2212437228E-01    0.4731615169E-01    0.2524045639E-01    0.2052607826E+00
    0.1000000000E+02    0.2521842393E-01    0.6997837830E-02    0.1409171175E-01    0.6199574804E-02    0.6101160228E-01
    0.3000000000E+02    0.6844939071E-01    0.1649651212E-01    0.3420444143E-01    0.1682874847E-01    0.1482500566E+00
    0.5000000000E+02    0.1043044933E+00    0.2235805561E-01    0.4789655887E-01    0.2564607148E-01    0.2077877096E+00
    0.7000000000E+02    0.1346491177E+00    0.2608590798E-01    0.5783932122E-01    0.3310965717E-01    0.2511287142E+00
    0.9000000000E+02    0.1607536529E+00    0.2847634150E-01    0.6539955032E-01    0.3953151200E-01    0.2841645666E+00
    0.1100000000E+03    0.1835141529E+00    0.2999008092E-01    0.7134986563E-01    0.4513171706E-01    0.3102283737E+00
    0.1300000000E+03    0.2035817901E+00    0.3091079301E-01    0.7616028721E-01    0.5007021524E-01    0.3313495290E+00
    0.1500000000E+03    0.2214421035E+00    0.3142131075E-01    0.8013337770E-01    0.5446627167E-01    0.3488354933E+00
    0.1700000000E+03    0.2374653139E+00    0.3164366218E-01    0.8347284849E-01    0.5841082948E-01    0.3635672946E+00
    0.1900000000E+03    0.2519392938E+00    0.3166154549E-01    0.8632096300E-01    0.6197460651E-01    0.3761607144E+00
    0.2100000000E+03    0.2650917781E+00    0.3153362776E-01    0.8878013427E-01    0.6521355001E-01    0.3870594084E+00
    0.2300000000E+03    0.2771056995E+00    0.3130175333E-01    0.9092600084E-01    0.6817260281E-01    0.3965913127E+00
    0.2500000000E+03    0.2881300108E+00    0.3099618850E-01    0.9281566413E-01    0.7088836131E-01    0.4050041964E+00
    0.2700000000E+03    0.2982874749E+00    0.3063907111E-01    0.9449305644E-01    0.7339098870E-01    0.4124888412E+00
    0.2900000000E+03    0.3076803727E+00    0.3024673553E-01    0.9599254262E-01    0.7570561693E-01    0.4191946016E+00
    0.3100000000E+03    0.3163947543E+00    0.2983131288E-01    0.9734139889E-01    0.7785339090E-01    0.4252401195E+00
    0.3300000000E+03    0.3245036531E+00    0.2940185259E-01    0.9856155752E-01    0.7985225777E-01    0.4307208690E+00
    0.3500000000E+03    0.3320695475E+00    0.2896512090E-01    0.9967085932E-01    0.8171757175E-01    0.4357145755E+00
    0.3700000000E+03    0.3391462716E+00    0.2852617736E-01    0.1006839689E+00    0.8346256342E-01    0.4402851780E+00
    0.3900000000E+03    0.3457805155E+00    0.2808879606E-01    0.1016130541E+00    0.8509870811E-01    0.4444857718E+00
    0.4100000000E+03    0.3520130140E+00    0.2765577682E-01    0.1024682981E+00    0.8663601812E-01    0.4483608261E+00
    0.4300000000E+03    0.3578795005E+00    0.2722917720E-01    0.1032582896E+00    0.8808327685E-01    0.4519478779E+00
    0.4500000000E+03    0.3634114774E+00    0.2681048706E-01    0.1039903248E+00    0.8944822814E-01    0.4552788393E+00
    0.4700000000E+03    0.3686368444E+00    0.2640076077E-01    0.1046706426E+00    0.9073773062E-01    0.4583810197E+00
    0.4900000000E+03    0.3735804154E+00    0.2600071804E-01    0.1053046102E+00    0.9195788461E-01    0.4612779316E+00
    0.1000000000E+03    0.1725065776E+00    0.2932205728E-01    0.6854151834E-01    0.4242318692E-01    0.2979193618E+00
    0.3000000000E+03    0.3121175403E+00    0.3004128291E-01    0.9668432011E-01    0.7679917190E-01    0.4222934527E+00
    0.5000000000E+03    0.3759535446E+00    0.2580448083E-01    0.1056056887E+00    0.9254368114E-01    0.4626558821E+00
    0.7000000000E+03    0.4129257605E+00    0.2241939294E-01    0.1100481162E+00    0.1016770869E+00    0.4831888532E+00
    0.9000000000E+03    0.4369839842E+00    0.1991384123E-01    0.1127231307E+00    0.1076297313E+00    0.4958062752E+00
    0.1100000000E+04    0.4538303016E+00    0.1802541791E-01    0.1145151308E+00    0.1118046088E+00    0.5044257340E+00
    0.1300000000E+04    0.4662505569E+00    0.1655930220E-01    0.1158008603E+00    0.1148875620E+00    0.5107288632E+00
    0.1500000000E+04    0.4757670520E+00    0.1538859001E-01    0.1167686659E+00    0.1172535713E+00    0.5155625449E+00
    0.1700000000E+04    0.4832802358E+00    0.1443074638E-01    0.1175234401E+00    0.1191245608E+00    0.5194017758E+00
    0.1900000000E+04    0.4893556558E+00    0.1363078922E-01    0.1181283453E+00    0.1206399906E+00    0.5225345680E+00
    0.2100000000E+04    0.4943657465E+00    0.1295101890E-01    0.1186237404E+00    0.1218917501E+00    0.5251462049E+00
    0.2300000000E+04    0.4985653962E+00    0.1236484879E-01    0.1190366457E+00    0.1229427612E+00    0.5273615626E+00
    0.2500000000E+04    0.5021347147E+00    0.1185303968E-01    0.1193858463E+00    0.1238375099E+00    0.5292680291E+00
    0.2700000000E+04    0.5052044557E+00    0.1140134311E-01    0.1196848150E+00    0.1246083089E+00    0.5309286863E+00
    0.2900000000E+04    0.5078717630E+00    0.1099898663E-01    0.1199434703E+00    0.1252791783E+00    0.5323902723E+00
    0.3100000000E+04    0.5102102704E+00    0.1063767473E-01    0.1201692788E+00    0.1258683349E+00    0.5336881933E+00
    0.3300000000E+04    0.5122767780E+00    0.1031091368E-01    0.1203679697E+00    0.1263898384E+00    0.5348497888E+00
    0.3500000000E+04    0.5141157828E+00    0.1001354508E-01    0.1205440140E+00    0.1268547094E+00    0.5358965248E+00
    0.3700000000E+04    0.5157626259E+00    0.9741416967E-02    0.1207009518E+00    0.1272717056E+00    0.5368455042E+00
    0.3900000000E+04    0.5172457235E+00    0.9491147582E-02    0.1208416234E+00    0.1276478723E+00    0.5377105320E+00
    0.4100000000E+04    0.5185881775E+00    0.9259952779E-02    0.1209683341E+00    0.1279889406E+00    0.5385028808E+00
    0.4300000000E+04    0.5198089578E+00    0.9045517991E-02    0.1210829746E+00    0.1282996193E+00    0.5392318516E+00
    0.4500000000E+04    0.5209237842E+00    0.8845901900E-02    0.1211871103E+00    0.1285838122E+00    0.5399051912E+00
    0.4700000000E+04    0.5219457910E+00    0.8659462989E-02    0.1212820485E+00    0.1288447830E+00    0.5405294072E+00
    0.4900000000E+04    0.5228860361E+00    0.8484802897E-02    0.1213688893E+00    0.1290852813E+00    0.5411100085E+00
    0.1000000000E+04    0.4460932326E+00    0.1890654840E-01    0.1136995260E+00    0.1098863707E+00    0.5004821932E+00
    0.3000000000E+04    0.5090782334E+00    0.1081364192E-01    0.1200600881E+00    0.1255830097E+00    0.5330578229E+00
    0.5000000000E+04    0.5233284847E+00    0.8401508332E-02    0.1214095703E+00    0.1291985960E+00    0.5413854490E+00
    0.7000000000E+04    0.5295538826E+00    0.7135970920E-02    0.1219640859E+00    0.1308056706E+00    0.5454496178E+00
    0.9000000000E+04    0.5330306957E+00    0.6322795669E-02    0.1222488344E+00    0.1317186261E+00    0.5479341404E+00
    0.1100000000E+05    0.5352454377E+00    0.5742602293E-02    0.1224117399E+00    0.1323100594E+00    0.5496430991E+00
    0.1300000000E+05    0.5367775040E+00    0.5301195137E-02    0.1225102974E+00    0.1327260644E+00    0.5509075042E+00
    0.1500000000E+05    0.5378991069E+00    0.4950455376E-02    0.1225713261E+00    0.1330356829E+00    0.5518905476E+00
    0.1700000000E+05    0.5387548993E+00    0.4662860576E-02    0.1226089196E+00    0.1332758172E+00    0.5526827674E+00
    0.1900000000E+05    0.5394288079E+00    0.4421361170E-02    0.1226311363E+00    0.1334680017E+00    0.5533387862E+00
    0.2100000000E+05    0.5399728496E+00    0.4214747819E-02    0.1226428833E+00    0.1336256597E+00    0.5538936950E+00
    0.2300000000E+05    0.5404209695E+00    0.4035302823E-02    0.1226472979E+00    0.1337576014E+00    0.5543711659E+00
    0.2500000000E+05    0.5407962547E+00    0.3877512897E-02    0.1226464653E+00    0.1338698529E+00    0.5547878063E+00
    0.2700000000E+05    0.5411149506E+00    0.3737318908E-02    0.1226418158E+00    0.1339666786E+00    0.5551556470E+00
    0.2900000000E+05    0.5413888180E+00    0.3611656231E-02    0.1226343565E+00    0.1340511830E+00    0.5554836402E+00
    0.3100000000E+05    0.5416265788E+00    0.3498161298E-02    0.1226248117E+00    0.1341256817E+00    0.5557786003E+00
    0.3300000000E+05    0.5418348370E+00    0.3394977620E-02    0.1226137123E+00    0.1341919375E+00    0.5560458166E+00
    0.3500000000E+05    0.5420186839E+00    0.3300623707E-02    0.1226014534E+00    0.1342513173E+00    0.5562894647E+00
    0.3700000000E+05    0.5421821071E+00    0.3213900795E-02    0.1225883330E+00    0.1343048975E+00    0.5565128900E+00
    0.3900000000E+05    0.5423282739E+00    0.3133826926E-02    0.1225745783E+00    0.1343535379E+00    0.5567188084E+00
    0.4100000000E+05    0.5424597317E+00    0.3059588912E-02    0.1225603643E+00    0.1343979338E+00    0.5569094503E+00
    0.4300000000E+05    0.5425785519E+00    0.2990506714E-02    0.1225458268E+00    0.1344386536E+00    0.5570866669E+00
    0.4500000000E+05    0.5426864364E+00    0.2926006614E-02    0.1225310718E+00    0.1344761671E+00    0.5572520089E+00
    0.4700000000E+05    0.5427847961E+00    0.2865600719E-02    0.1225161828E+00    0.1345108658E+00    0.5574067864E+00
    0.4900000000E+05    0.5428748105E+00    0.2808871096E-02    0.1225012255E+00    0.1345430787E+00    0.5575521151E+00
    0.1000000000E+05    0.5342488524E+00    0.6011035184E-02    0.1223408496E+00    0.1320427070E+00    0.5488590851E+00
    0.3000000000E+05    0.5415117576E+00    0.3553513927E-02    0.1226298078E+00    0.1340895621E+00    0.5556348886E+00
    0.5000000000E+05    0.5429170048E+00    0.2781770303E-02    0.1224937379E+00    0.1345583417E+00    0.5576215405E+00
    0.7000000000E+05    0.5434978833E+00    0.2366648380E-02    0.1223484459E+00    0.1347827106E+00    0.5586879074E+00
    0.9000000000E+05    0.5438086834E+00    0.2097184311E-02    0.1222180609E+00    0.1349201691E+00    0.5593884846E+00
    0.1100000000E+06    0.5439988697E+00    0.1904042227E-02    0.1221028880E+00    0.1350157373E+00    0.5598990329E+00
    0.1300000000E+06    0.5441252680E+00    0.1756788511E-02    0.1220005563E+00    0.1350874838E+00    0.5602953862E+00
    0.1500000000E+06    0.5442140891E+00    0.1639672436E-02    0.1219087697E+00    0.1351441841E+00    0.5606164683E+00
    0.1700000000E+06    0.5442790459E+00    0.1543611470E-02    0.1218256704E+00    0.1351906634E+00    0.5608846504E+00
    0.1900000000E+06    0.5443279833E+00    0.1462949410E-02    0.1217498054E+00    0.1352298187E+00    0.5611138603E+00
    0.2100000000E+06    0.5443656988E+00    0.1393954478E-02    0.1216800381E+00    0.1352635066E+00    0.5613133026E+00
    0.2300000000E+06    0.5443952834E+00    0.1334051227E-02    0.1216154713E+00    0.1352929794E+00    0.5614893490E+00
    0.2500000000E+06    0.5444188127E+00    0.1281396873E-02    0.1215553875E+00    0.1353191167E+00    0.5616465766E+00
    0.2700000000E+06    0.5444377291E+00    0.1234633196E-02    0.1214992057E+00    0.1353425571E+00    0.5617883743E+00
    0.2900000000E+06    0.5444530639E+00    0.1192734009E-02    0.1214464498E+00    0.1353637771E+00    0.5619173154E+00
    0.3100000000E+06    0.5444655723E+00    0.1154907507E-02    0.1213967249E+00    0.1353831410E+00    0.5620353962E+00
    0.3300000000E+06    0.5444758190E+00    0.1120531591E-02    0.1213497004E+00    0.1354009326E+00    0.5621441938E+00
    0.3500000000E+06    0.5444842338E+00    0.1089109757E-02    0.1213050968E+00    0.1354173771E+00    0.5622449742E+00
    0.3700000000E+06    0.5444911491E+00    0.1060240240E-02    0.1212626757E+00    0.1354326558E+00    0.5623387678E+00
    0.3900000000E+06    0.5444968256E+00    0.1033593955E-02    0.1212222321E+00    0.1354469165E+00    0.5624264235E+00
    0.4100000000E+06    0.5445014701E+00    0.1008898403E-02    0.1211835888E+00    0.1354602813E+00    0.5625086484E+00
    0.4300000000E+06    0.5445052486E+00    0.9859257380E-03    0.1211465913E+00    0.1354728522E+00    0.5625860373E+00
    0.4500000000E+06    0.5445082956E+00    0.9644837702E-03    0.1211111040E+00    0.1354847151E+00    0.5626590948E+00
    0.4700000000E+06    0.5445107212E+00    0.9444090921E-03    0.1210770076E+00    0.1354959428E+00    0.5627282527E+00
    0.4900000000E+06    0.5445126161E+00    0.9255617589E-03    0.1210441964E+00    0.1355065979E+00    0.5627938826E+00
    0.1000000000E+06    0.5439142222E+00    0.1993472621E-02    0.1221587122E+00    0.1349717371E+00    0.5596615153E+00
    0.3000000000E+06    0.5444596324E+00    0.1173353935E-02    0.1214212304E+00    0.1353736717E+00    0.5619776064E+00
    0.5000000000E+06    0.5445133885E+00    0.9165599857E-03    0.1210282430E+00    0.1355117278E+00    0.5628254771E+00
    0.7000000000E+06    0.5445139141E+00    0.7788381480E-03    0.1207584253E+00    0.1355941603E+00    0.5633319093E+00
    0.9000000000E+06    0.5445018286E+00    0.6896140146E-03    0.1205524586E+00    0.1356526952E+00    0.5636885430E+00
    0.1100000000E+07    0.5444862864E+00    0.6257492499E-03    0.1203857106E+00    0.1356980046E+00    0.5639619159E+00
    0.1300000000E+07    0.5444700964E+00    0.5771081014E-03    0.1202455458E+00    0.1357349365E+00    0.5641826319E+00
    0.1500000000E+07    0.5444542426E+00    0.5384531633E-03    0.1201246071E+00    0.1357660933E+00    0.5643671940E+00
    0.1700000000E+07    0.5444390746E+00    0.5067681584E-03    0.1200182293E+00    0.1357930307E+00    0.5645254748E+00
    0.1900000000E+07    0.5444246955E+00    0.4801766389E-03    0.1199232664E+00    0.1358167521E+00    0.5646638310E+00
    0.2100000000E+07    0.5444111083E+00    0.4574416662E-03    0.1198374951E+00    0.1358379416E+00    0.5647865867E+00
    0.2300000000E+07    0.5443982753E+00    0.4377102137E-03    0.1197592856E+00    0.1358570863E+00    0.5648968115E+00
    0.2500000000E+07    0.5443861436E+00    0.4203723157E-03    0.1196874073E+00    0.1358745454E+00    0.5649967603E+00
    0.2700000000E+07    0.5443746572E+00    0.4049786508E-03    0.1196209083E+00    0.1358905913E+00    0.5650881363E+00
    0.2900000000E+07    0.5443637617E+00    0.3911899070E-03    0.1195590365E+00    0.1359054352E+00    0.5651722562E+00
    0.3100000000E+07    0.5443534065E+00    0.3787443873E-03    0.1195011878E+00    0.1359192445E+00    0.5652501586E+00
    0.3300000000E+07    0.5443435457E+00    0.3674365650E-03    0.1194468693E+00    0.1359321539E+00    0.5653226763E+00
    0.3500000000E+07    0.5443341378E+00    0.3571024655E-03    0.1193956735E+00    0.1359442733E+00    0.5653904871E+00
    0.3700000000E+07    0.5443251456E+00    0.3476094459E-03    0.1193472600E+00    0.1359556938E+00    0.5654541498E+00
    0.3900000000E+07    0.5443165359E+00    0.3388488905E-03    0.1193013411E+00    0.1359664916E+00    0.5655141305E+00
    0.4100000000E+07    0.5443082789E+00    0.3307308849E-03    0.1192576717E+00    0.1359767309E+00    0.5655708215E+00
    0.4300000000E+07    0.5443003480E+00    0.3231802674E-03    0.1192160411E+00    0.1359864667E+00    0.5656245564E+00
    0.4500000000E+07    0.5442927192E+00    0.3161336531E-03    0.1191762669E+00    0.1359957461E+00    0.5656756211E+00
    0.4700000000E+07    0.5442853711E+00    0.3095371614E-03    0.1191381904E+00    0.1360046101E+00    0.5657242621E+00
    0.4900000000E+07    0.5442782842E+00    0.3033446573E-03    0.1191016722E+00    0.1360130941E+00    0.5657706940E+00
    0.1000000000E+07    0.5444942465E+00    0.6553112646E-03    0.1204651427E+00    0.1356766247E+00    0.5638332527E+00
    0.3000000000E+07    0.5443585196E+00    0.3848132086E-03    0.1195296423E+00    0.1359124601E+00    0.5652119284E+00
    0.5000000000E+07    0.5442748332E+00    0.3003872565E-03    0.1190839585E+00    0.1360172036E+00    0.5657931409E+00
    0.7000000000E+07    0.5442160579E+00    0.2551593602E-03    0.1187880821E+00    0.1360853468E+00    0.5661613299E+00
    0.9000000000E+07    0.5441708349E+00    0.2258764395E-03    0.1185661824E+00    0.1361359435E+00    0.5664300233E+00
    0.1100000000E+08    0.5441340934E+00    0.2049249763E-03    0.1183885483E+00    0.1361762043E+00    0.5666411639E+00
    0.1300000000E+08    0.5441031547E+00    0.1889725201E-03    0.1182404158E+00    0.1362096446E+00    0.5668148440E+00
    0.1500000000E+08    0.5440764353E+00    0.1762980519E-03    0.1181133650E+00    0.1362382443E+00    0.5669622275E+00
    0.1700000000E+08    0.5440529216E+00    0.1659108240E-03    0.1180021357E+00    0.1362632296E+00    0.5670901516E+00
    0.1900000000E+08    0.5440319262E+00    0.1571946822E-03    0.1179032204E+00    0.1362854127E+00    0.5672031032E+00
    0.2100000000E+08    0.5440129614E+00    0.1497435686E-03    0.1178141629E+00    0.1363053595E+00    0.5673041837E+00
    0.2300000000E+08    0.5439956686E+00    0.1432775153E-03    0.1177331758E+00    0.1363234799E+00    0.5673956254E+00
    0.2500000000E+08    0.5439797766E+00    0.1375963647E-03    0.1176589177E+00    0.1363400807E+00    0.5674790874E+00
    0.2700000000E+08    0.5439650753E+00    0.1325526977E-03    0.1175903563E+00    0.1363553974E+00    0.5675558361E+00
