  Pressure (Pa) 22mC5-400 (mol/kg) 2mC6-400 (mol/kg) 3mC6-400 (mol/kg) 23mC5-400 (mol/kg) C7-400 (mol/kg)
    0.1000000000E+01    0.2645926152E-02    0.2380216518E-02    0.3689181511E-02    0.3716768825E-03    0.1710414458E-02
    0.3000000000E+01    0.7832532812E-02    0.6961157821E-02    0.1083384821E-01    0.1100257778E-02    0.5023375887E-02
    0.5000000000E+01    0.1288421673E-01    0.1131566378E-01    0.1768363978E-01    0.1809900034E-02    0.8200220541E-02
    0.7000000000E+01    0.1780711031E-01    0.1545808591E-01    0.2425713164E-01    0.2501464291E-02    0.1124951068E-01
    0.9000000000E+01    0.2260696994E-01    0.1940161883E-01    0.3057135737E-01    0.3175758427E-02    0.1417909839E-01
    0.1100000000E+02    0.2728920438E-01    0.2315841412E-01    0.3664196586E-01    0.3833541532E-02    0.1699619793E-01
    0.1300000000E+02    0.3185890055E-01    0.2673968092E-01    0.4248335959E-01    0.4475527536E-02    0.1970744939E-01
    0.1500000000E+02    0.3632084712E-01    0.3015577511E-01    0.4810881666E-01    0.5102388515E-02    0.2231897489E-01
    0.1700000000E+02    0.4067955609E-01    0.3341627852E-01    0.5353059875E-01    0.5714757715E-02    0.2483642831E-01
    0.1900000000E+02    0.4493928244E-01    0.3653006944E-01    0.5876004689E-01    0.6313232319E-02    0.2726503932E-01
    0.2100000000E+02    0.4910404222E-01    0.3950538561E-01    0.6380766651E-01    0.6898375978E-02    0.2960965262E-01
    0.2300000000E+02    0.5317762910E-01    0.4234988052E-01    0.6868320331E-01    0.7470721135E-02    0.3187476284E-01
    0.2500000000E+02    0.5716362959E-01    0.4507067385E-01    0.7339571092E-01    0.8030771159E-02    0.3406454571E-01
    0.2700000000E+02    0.6106543700E-01    0.4767439682E-01    0.7795361154E-01    0.8579002309E-02    0.3618288597E-01
    0.2900000000E+02    0.6488626432E-01    0.5016723297E-01    0.8236475021E-01    0.9115865536E-02    0.3823340238E-01
    0.3100000000E+02    0.6862915604E-01    0.5255495495E-01    0.8663644362E-01    0.9641788148E-02    0.4021947022E-01
    0.3300000000E+02    0.7229699917E-01    0.5484295768E-01    0.9077552404E-01    0.1015717535E-01    0.4214424150E-01
    0.3500000000E+02    0.7589253323E-01    0.5703628847E-01    0.9478837893E-01    0.1066241164E-01    0.4401066318E-01
    0.3700000000E+02    0.7941835967E-01    0.5913967417E-01    0.9868098670E-01    0.1115786215E-01    0.4582149373E-01
    0.3900000000E+02    0.8287695045E-01    0.6115754596E-01    0.1024589491E+00    0.1164387384E-01    0.4757931793E-01
    0.4100000000E+02    0.8627065605E-01    0.6309406176E-01    0.1061275205E+00    0.1212077662E-01    0.4928656048E-01
    0.4300000000E+02    0.8960171291E-01    0.6495312671E-01    0.1096916347E+00    0.1258888439E-01    0.5094549825E-01
    0.4500000000E+02    0.9287225027E-01    0.6673841182E-01    0.1131559289E+00    0.1304849599E-01    0.5255827139E-01
    0.4700000000E+02    0.9608429656E-01    0.6845337101E-01    0.1165247659E+00    0.1349989616E-01    0.5412689354E-01
    0.4900000000E+02    0.9923978536E-01    0.7010125667E-01    0.1198022543E+00    0.1394335628E-01    0.5565326108E-01
    0.1000000000E+02    0.2496246512E-01    0.2130263712E-01    0.3363618591E-01    0.3506668220E-02    0.1560128141E-01
    0.3000000000E+02    0.6676726812E-01    0.5137388756E-01    0.8451758968E-01    0.9380168592E-02    0.3923429036E-01
    0.5000000000E+02    0.1007969004E+00    0.7090101173E-01    0.1214079616E+00    0.1416219018E-01    0.5640116202E-01
    0.7000000000E+02    0.1293758785E+00    0.8403253210E-01    0.1495580671E+00    0.1817899529E-01    0.6952481318E-01
    0.9000000000E+02    0.1539523286E+00    0.9305250536E-01    0.1718622353E+00    0.2163384862E-01    0.7994166396E-01
    0.1100000000E+03    0.1754777980E+00    0.9931264762E-01    0.1900507123E+00    0.2466031877E-01    0.8845113330E-01
    0.1300000000E+03    0.1946053260E+00    0.1036580038E+00    0.2052236609E+00    0.2735007620E-01    0.9556183594E-01
    0.1500000000E+03    0.2117996327E+00    0.1066401317E+00    0.2181154127E+00    0.2976835818E-01    0.1016134639E+00
    0.1700000000E+03    0.2274017538E+00    0.1086317533E+00    0.2292357343E+00    0.3196304062E-01    0.1068419679E+00
    0.1900000000E+03    0.2416686684E+00    0.1098920256E+00    0.2389501515E+00    0.3397020025E-01    0.1114166348E+00
    0.2100000000E+03    0.2547985264E+00    0.1106054729E+00    0.2475279898E+00    0.3581765559E-01    0.1154622700E+00
    0.2300000000E+03    0.2669472350E+00    0.1109061325E+00    0.2551723427E+00    0.3752729522E-01    0.1190730411E+00
    0.2500000000E+03    0.2782396755E+00    0.1108930327E+00    0.2620394471E+00    0.3911665230E-01    0.1223214312E+00
    0.2700000000E+03    0.2887774786E+00    0.1106404032E+00    0.2682516016E+00    0.4059999597E-01    0.1252642102E+00
    0.2900000000E+03    0.2986445338E+00    0.1102045771E+00    0.2739060118E+00    0.4198910478E-01    0.1279465256E+00
    0.3100000000E+03    0.3079109704E+00    0.1096287608E+00    0.2790809903E+00    0.4329382557E-01    0.1304047701E+00
    0.3300000000E+03    0.3166360864E+00    0.1089463937E+00    0.2838403943E+00    0.4452248455E-01    0.1326686352E+00
    0.3500000000E+03    0.3248705369E+00    0.1081835547E+00    0.2882368593E+00    0.4568219464E-01    0.1347626080E+00
    0.3700000000E+03    0.3326579952E+00    0.1073607136E+00    0.2923141969E+00    0.4677908850E-01    0.1367070818E+00
    0.3900000000E+03    0.3400364290E+00    0.1064940224E+00    0.2961091971E+00    0.4781849782E-01    0.1385191906E+00
    0.4100000000E+03    0.3470390948E+00    0.1055962797E+00    0.2996530035E+00    0.4880509286E-01    0.1402134466E+00
    0.4300000000E+03    0.3536953202E+00    0.1046776590E+00    0.3029721747E+00    0.4974299230E-01    0.1418022320E+00
    0.4500000000E+03    0.3600311278E+00    0.1037462639E+00    0.3060895123E+00    0.5063585081E-01    0.1432961832E+00
    0.4700000000E+03    0.3660697361E+00    0.1028085558E+00    0.3090247147E+00    0.5148692936E-01    0.1447044937E+00
    0.4900000000E+03    0.3718319665E+00    0.1018696861E+00    0.3117948973E+00    0.5229915235E-01    0.1460351555E+00
    0.1000000000E+03    0.1650502090E+00    0.9646602077E-01    0.1813913290E+00    0.2319414256E-01    0.8439802567E-01
    0.3000000000E+03    0.3033488981E+00    0.1099318809E+00    0.2765491428E+00    0.4265146167E-01    0.1292016637E+00
    0.5000000000E+03    0.3746153743E+00    0.1014011322E+00    0.3131228529E+00    0.5269152655E-01    0.1466735857E+00
    0.7000000000E+03    0.4194919103E+00    0.9259801306E-01    0.3338166467E+00    0.5902139681E-01    0.1566742430E+00
    0.9000000000E+03    0.4502665322E+00    0.8530894777E-01    0.3475786726E+00    0.6336732517E-01    0.1633906260E+00
    0.1100000000E+04    0.4725307926E+00    0.7940926995E-01    0.3575876381E+00    0.6651519833E-01    0.1683178104E+00
    0.1300000000E+04    0.4892815335E+00    0.7458735643E-01    0.3652937460E+00    0.6888641585E-01    0.1721410427E+00
    0.1500000000E+04    0.5022765926E+00    0.7058122060E-01    0.3714657819E+00    0.7072826686E-01    0.1752251223E+00
    0.1700000000E+04    0.5126119729E+00    0.6719693196E-01    0.3765545906E+00    0.7219500243E-01    0.1777848165E+00
    0.1900000000E+04    0.5210034137E+00    0.6429413411E-01    0.3808445317E+00    0.7338739880E-01    0.1799560786E+00
    0.2100000000E+04    0.5279360980E+00    0.6177070809E-01    0.3845251154E+00    0.7437379885E-01    0.1818298252E+00
    0.2300000000E+04    0.5337493198E+00    0.5955129918E-01    0.3877282131E+00    0.7520201574E-01    0.1834695259E+00
    0.2500000000E+04    0.5386867291E+00    0.5757936735E-01    0.3905488352E+00    0.7590639899E-01    0.1849210507E+00
    0.2700000000E+04    0.5429273529E+00    0.5581176889E-01    0.3930574224E+00    0.7651219832E-01    0.1862185080E+00
    0.2900000000E+04    0.5466053999E+00    0.5421504873E-01    0.3953074667E+00    0.7703835038E-01    0.1873878724E+00
    0.3100000000E+04    0.5498232761E+00    0.5276287370E-01    0.3973404260E+00    0.7749931061E-01    0.1884493299E+00
    0.3300000000E+04    0.5526603586E+00    0.5143422920E-01    0.3991890002E+00    0.7790628858E-01    0.1894188439E+00
    0.3500000000E+04    0.5551790453E+00    0.5021213264E-01    0.4008793776E+00    0.7826809985E-01    0.1903092313E+00
    0.3700000000E+04    0.5574290110E+00    0.4908270127E-01    0.4024328151E+00    0.7859176552E-01    0.1911309211E+00
    0.3900000000E+04    0.5594502560E+00    0.4803446674E-01    0.4038667722E+00    0.7888294171E-01    0.1918924995E+00
    0.4100000000E+04    0.5612753260E+00    0.4705786402E-01    0.4051957419E+00    0.7914623251E-01    0.1926011104E+00
    0.4300000000E+04    0.5629309532E+00    0.4614484535E-01    0.4064318697E+00    0.7938542124E-01    0.1932627538E+00
    0.4500000000E+04    0.5644392857E+00    0.4528858493E-01    0.4075854208E+00    0.7960364385E-01    0.1938825123E+00
    0.4700000000E+04    0.5658188198E+00    0.4448325048E-01    0.4086651393E+00    0.7980352042E-01    0.1944647242E+00
    0.4900000000E+04    0.5670851160E+00    0.4372382470E-01    0.4096785260E+00    0.7998725611E-01    0.1950131189E+00
    0.1000000000E+04    0.4622360332E+00    0.8220527881E-01    0.3529388243E+00    0.6505918439E-01    0.1660243194E+00
    0.3000000000E+04    0.5482664400E+00    0.5347231401E-01    0.3963488633E+00    0.7727621427E-01    0.1879310073E+00
    0.5000000000E+04    0.5676799989E+00    0.4335994717E-01    0.4101624038E+00    0.8007366644E-01    0.1952756603E+00
    0.7000000000E+04    0.5759732310E+00    0.3769072203E-01    0.4175477978E+00    0.8128660222E-01    0.1993462657E+00
    0.9000000000E+04    0.5805314108E+00    0.3390237429E-01    0.4223024161E+00    0.8196331067E-01    0.2020445932E+00
    0.1100000000E+05    0.5834025456E+00    0.3112644659E-01    0.4256817203E+00    0.8239598047E-01    0.2040113629E+00
    0.1300000000E+05    0.5853726337E+00    0.2897273436E-01    0.4282371663E+00    0.8269731938E-01    0.2055324023E+00
    0.1500000000E+05    0.5868062758E+00    0.2723521035E-01    0.4302538001E+00    0.8291987467E-01    0.2067574638E+00
    0.1700000000E+05    0.5878952226E+00    0.2579298743E-01    0.4318956376E+00    0.8309142238E-01    0.2077737671E+00
    0.1900000000E+05    0.5887497848E+00    0.2456962855E-01    0.4332645555E+00    0.8322802292E-01    0.2086360928E+00
    0.2100000000E+05    0.5894378519E+00    0.2351402277E-01    0.4344275791E+00    0.8333961071E-01    0.2093808549E+00
    0.2300000000E+05    0.5900034649E+00    0.2259047463E-01    0.4354308303E+00    0.8343266318E-01    0.2100333533E+00
    0.2500000000E+05    0.5904764271E+00    0.2177317073E-01    0.4363072125E+00    0.8351158599E-01    0.2106118023E+00
    0.2700000000E+05    0.5908776198E+00    0.2104290293E-01    0.4370809057E+00    0.8357948154E-01    0.2111297027E+00
    0.2900000000E+05    0.5912221031E+00    0.2038503291E-01    0.4377701254E+00    0.8363859872E-01    0.2115973092E+00
    0.3100000000E+05    0.5915210098E+00    0.1978817675E-01    0.4383888860E+00    0.8369060836E-01    0.2120225735E+00
    0.3300000000E+05    0.5917827452E+00    0.1924332603E-01    0.4389481672E+00    0.8373677832E-01    0.2124117728E+00
    0.3500000000E+05    0.5920137732E+00    0.1874324346E-01    0.4394567075E+00    0.8377808849E-01    0.2127699392E+00
    0.3700000000E+05    0.5922191451E+00    0.1828203706E-01    0.4399215590E+00    0.8381530851E-01    0.2131011621E+00
    0.3900000000E+05    0.5924028653E+00    0.1785485343E-01    0.4403484822E+00    0.8384905155E-01    0.2134088051E+00
    0.4100000000E+05    0.5925681485E+00    0.1745765268E-01    0.4407422351E+00    0.8387981230E-01    0.2136956642E+00
    0.4300000000E+05    0.5927176052E+00    0.1708704041E-01    0.4411067854E+00    0.8390799447E-01    0.2139640861E+00
    0.4500000000E+05    0.5928533766E+00    0.1674014034E-01    0.4414454718E+00    0.8393393089E-01    0.2142160577E+00
    0.4700000000E+05    0.5929772359E+00    0.1641449646E-01    0.4417611258E+00    0.8395789848E-01    0.2144532742E+00
    0.4900000000E+05    0.5930906636E+00    0.1610799697E-01    0.4420561665E+00    0.8398012965E-01    0.2146771925E+00
    0.1000000000E+05    0.5821139061E+00    0.3241844518E-01    0.4241204931E+00    0.8220099199E-01    0.2030969693E+00
    0.3000000000E+05    0.5913766750E+00    0.2007958866E-01    0.4380875664E+00    0.8366540487E-01    0.2118148083E+00
    0.5000000000E+05    0.5931438628E+00    0.1596134553E-01    0.4421966187E+00    0.8399065669E-01    0.2147845654E+00
    0.7000000000E+05    0.5938794753E+00    0.1369617695E-01    0.4443033432E+00    0.8414493446E-01    0.2164663264E+00
    0.9000000000E+05    0.5942778982E+00    0.1220666574E-01    0.4456175566E+00    0.8423903775E-01    0.2176034200E+00
    0.1100000000E+06    0.5945253804E+00    0.1112958017E-01    0.4465271183E+00    0.8430429594E-01    0.2184470390E+00
    0.1300000000E+06    0.5946926807E+00    0.1030299721E-01    0.4471987976E+00    0.8435320749E-01    0.2191099163E+00
    0.1500000000E+06    0.5948124777E+00    0.9642196234E-02    0.4477173714E+00    0.8439181875E-01    0.2196515270E+00
    0.1700000000E+06    0.5949019098E+00    0.9097917856E-02    0.4481309471E+00    0.8442344520E-01    0.2201067611E+00
    0.1900000000E+06    0.5949708123E+00    0.8639282614E-02    0.4484690471E+00    0.8445007302E-01    0.2204976898E+00
    0.2100000000E+06    0.5950252225E+00    0.8245806344E-02    0.4487508856E+00    0.8447297326E-01    0.2208390874E+00
    0.2300000000E+06    0.5950690458E+00    0.7903287158E-02    0.4489895550E+00    0.8449300201E-01    0.2211412887E+00
    0.2500000000E+06    0.5951049166E+00    0.7601523167E-02    0.4491943106E+00    0.8451075991E-01    0.2214117830E+00
    0.2700000000E+06    0.5951346740E+00    0.7332969143E-02    0.4493718958E+00    0.8452668271E-01    0.2216561566E+00
    0.2900000000E+06    0.5951596397E+00    0.7091906965E-02    0.4495273498E+00    0.8454109540E-01    0.2218786786E+00
    0.3100000000E+06    0.5951807864E+00    0.6873912516E-02    0.4496645199E+00    0.8455424613E-01    0.2220826786E+00
    0.3300000000E+06    0.5951988454E+00    0.6675501339E-02    0.4497863980E+00    0.8456632823E-01    0.2222708001E+00
    0.3500000000E+06    0.5952143766E+00    0.6493886244E-02    0.4498953486E+00    0.8457749494E-01    0.2224451736E+00
    0.3700000000E+06    0.5952278154E+00    0.6326807275E-02    0.4499932665E+00    0.8458786963E-01    0.2226075397E+00
    0.3900000000E+06    0.5952395050E+00    0.6172409821E-02    0.4500816895E+00    0.8459755289E-01    0.2227593372E+00
    0.4100000000E+06    0.5952497199E+00    0.6029155524E-02    0.4501618793E+00    0.8460662778E-01    0.2229017680E+00
    0.4300000000E+06    0.5952586814E+00    0.5895756033E-02    0.4502348814E+00    0.8461516357E-01    0.2230358458E+00
    0.4500000000E+06    0.5952665703E+00    0.5771122989E-02    0.4503015703E+00    0.8462321862E-01    0.2231624326E+00
    0.4700000000E+06    0.5952735353E+00    0.5654329730E-02    0.4503626829E+00    0.8463084248E-01    0.2232822672E+00
    0.4900000000E+06    0.5952796999E+00    0.5544581604E-02    0.4504188452E+00    0.8463807760E-01    0.2233959874E+00
    0.1000000000E+06    0.5944147414E+00    0.1162929385E-01    0.4461097018E+00    0.8427426660E-01    0.2180530745E+00
    0.3000000000E+06    0.5951706400E+00    0.6980262806E-02    0.4495980164E+00    0.8454781534E-01    0.2219828149E+00
    0.5000000000E+06    0.5952825151E+00    0.5492131401E-02    0.4504452404E+00    0.8464156102E-01    0.2234507305E+00
    0.7000000000E+06    0.5953147763E+00    0.4686967074E-02    0.4508099322E+00    0.8469754343E-01    0.2243275249E+00
    0.9000000000E+06    0.5953241173E+00    0.4162520785E-02    0.4509987318E+00    0.8473730906E-01    0.2249433826E+00
    0.1100000000E+07    0.5953246303E+00    0.3785700454E-02    0.4511043694E+00    0.8476809973E-01    0.2254140466E+00
    0.1300000000E+07    0.5953212345E+00    0.3497865634E-02    0.4511646845E+00    0.8479320445E-01    0.2257929415E+00
    0.1500000000E+07    0.5953159968E+00    0.3268587340E-02    0.4511979808E+00    0.8481438879E-01    0.2261089105E+00
    0.1700000000E+07    0.5953098916E+00    0.3080283603E-02    0.4512141526E+00    0.8483270836E-01    0.2263792097E+00
    0.1900000000E+07    0.5953034146E+00    0.2921987301E-02    0.4512189866E+00    0.8484884389E-01    0.2266149441E+00
    0.2100000000E+07    0.5952968298E+00    0.2786452782E-02    0.4512160711E+00    0.8486325967E-01    0.2268236611E+00
    0.2300000000E+07    0.5952902821E+00    0.2668673628E-02    0.4512077348E+00    0.8487628639E-01    0.2270107131E+00
    0.2500000000E+07    0.5952838511E+00    0.2565063930E-02    0.4511955436E+00    0.8488816789E-01    0.2271800275E+00
    0.2700000000E+07    0.5952775799E+00    0.2472978256E-02    0.4511805821E+00    0.8489908902E-01    0.2273345672E+00
    0.2900000000E+07    0.5952714900E+00    0.2390416205E-02    0.4511636191E+00    0.8490919330E-01    0.2274766204E+00
    0.3100000000E+07    0.5952655904E+00    0.2315833097E-02    0.4511452107E+00    0.8491859433E-01    0.2276079894E+00
    0.3300000000E+07    0.5952598824E+00    0.2248014468E-02    0.4511257658E+00    0.8492738358E-01    0.2277301179E+00
    0.3500000000E+07    0.5952543631E+00    0.2185990415E-02    0.4511055890E+00    0.8493563578E-01    0.2278441797E+00
    0.3700000000E+07    0.5952490270E+00    0.2128975631E-02    0.4510849100E+00    0.8494341275E-01    0.2279511414E+00
    0.3900000000E+07    0.5952438669E+00    0.2076326510E-02    0.4510639034E+00    0.8495076623E-01    0.2280518078E+00
    0.4100000000E+07    0.5952388752E+00    0.2027509834E-02    0.4510427031E+00    0.8495773996E-01    0.2281468565E+00
    0.4300000000E+07    0.5952340440E+00    0.1982079539E-02    0.4510214123E+00    0.8496437124E-01    0.2282368624E+00
    0.4500000000E+07    0.5952293653E+00    0.1939659188E-02    0.4510001109E+00    0.8497069211E-01    0.2283223179E+00
    0.4700000000E+07    0.5952248314E+00    0.1899928579E-02    0.4509788608E+00    0.8497673035E-01    0.2284036474E+00
    0.4900000000E+07    0.5952204349E+00    0.1862613369E-02    0.4509577100E+00    0.8498251015E-01    0.2284812196E+00
    0.1000000000E+07    0.5953250672E+00    0.3960277238E-02    0.4510589060E+00    0.8475356953E-01    0.2251927036E+00
    0.3000000000E+07    0.5952685162E+00    0.2352209770E-02    0.4511545671E+00    0.8491397556E-01    0.2275435430E+00
    0.5000000000E+07    0.5952182860E+00    0.1844786310E-02    0.4509471839E+00    0.8498530986E-01    0.2285186988E+00
    0.7000000000E+07    0.5951810131E+00    0.1571639059E-02    0.4507473236E+00    0.8503174626E-01    0.2291314390E+00
    0.9000000000E+07    0.5951516723E+00    0.1394238927E-02    0.4505706002E+00    0.8506623883E-01    0.2295762955E+00
    0.1100000000E+08    0.5951275334E+00    0.1267022170E-02    0.4504146389E+00    0.8509369294E-01    0.2299245932E+00
    0.1300000000E+08    0.5951070451E+00    0.1169985209E-02    0.4502756930E+00    0.8511650099E-01    0.2302103116E+00
    0.1500000000E+08    0.5950892540E+00    0.1092773952E-02    0.4501506013E+00    0.8513601092E-01    0.2304522490E+00
    0.1700000000E+08    0.5950735348E+00    0.1029417025E-02    0.4500369055E+00    0.8515305768E-01    0.2306618780E+00
    0.1900000000E+08    0.5950594565E+00    0.9761951970E-03    0.4499327113E+00    0.8516819444E-01    0.2308467057E+00
    0.2100000000E+08    0.5950467093E+00    0.9306542709E-03    0.4498365458E+00    0.8518180668E-01    0.2310119082E+00
    0.2300000000E+08    0.5950350636E+00    0.8911002352E-03    0.4497472478E+00    0.8519417378E-01    0.2311612028E+00
    0.2500000000E+08    0.5950243442E+00    0.8563207899E-03    0.4496638886E+00    0.8520550474E-01    0.2312973472E+00
    0.2700000000E+08    0.5950144147E+00    0.8254222609E-03    0.4495857148E+00    0.8521595994E-01    0.2314224433E+00
