  Pressure (Pa) 22mC5-400 (mol/kg) 2mC6-400 (mol/kg) 3mC6-400 (mol/kg) 23mC5-400 (mol/kg) C7-400 (mol/kg)
    0.1000000000E+01    0.2634872991E-02    0.7087406773E-02    0.1046863359E-02    0.9253122051E-04    0.5096388106E-02
    0.3000000000E+01    0.7737578575E-02    0.2043351055E-01    0.3034492102E-02    0.2717312195E-03    0.1477484598E-01
    0.5000000000E+01    0.1263217910E-01    0.3277126340E-01    0.4892966563E-02    0.4436275097E-03    0.2382714091E-01
    0.7000000000E+01    0.1733459022E-01    0.4420301474E-01    0.6635294713E-02    0.6087786015E-03    0.3231625419E-01
    0.9000000000E+01    0.2185908967E-01    0.5481786686E-01    0.8272769537E-02    0.7676855326E-03    0.4029686940E-01
    0.1100000000E+02    0.2621852455E-01    0.6469374860E-01    0.9815244000E-02    0.9207991408E-03    0.4781670216E-01
    0.1300000000E+02    0.3042448778E-01    0.7389911070E-01    0.1127135465E-01    0.1068526256E-02    0.5491758162E-01
    0.1500000000E+02    0.3448746907E-01    0.8249432114E-01    0.1264870471E-01    0.1211234995E-02    0.6163633612E-01
    0.1700000000E+02    0.3841698438E-01    0.9053282070E-01    0.1395401503E-01    0.1349259306E-02    0.6800552317E-01
    0.1900000000E+02    0.4222168760E-01    0.9806208574E-01    0.1519324921E-01    0.1482902888E-02    0.7405403500E-01
    0.2100000000E+02    0.4590946708E-01    0.1051244346E+00    0.1637171800E-01    0.1612442575E-02    0.7980760351E-01
    0.2300000000E+02    0.4948752949E-01    0.1117577067E+00    0.1749416686E-01    0.1738131281E-02    0.8528922383E-01
    0.2500000000E+02    0.5296247275E-01    0.1179958370E+00    0.1856484968E-01    0.1860200557E-02    0.9051951130E-01
    0.2700000000E+02    0.5634034979E-01    0.1238693444E+00    0.1958759135E-01    0.1978862832E-02    0.9551700385E-01
    0.2900000000E+02    0.5962672446E-01    0.1294057487E+00    0.2056584085E-01    0.2094313369E-02    0.1002984192E+00
    0.3100000000E+02    0.6282672058E-01    0.1346299279E+00    0.2150271669E-01    0.2206731991E-02    0.1048788749E+00
    0.3300000000E+02    0.6594506523E-01    0.1395644258E+00    0.2240104591E-01    0.2316284600E-02    0.1092720764E+00
    0.3500000000E+02    0.6898612699E-01    0.1442297177E+00    0.2326339758E-01    0.2423124513E-02    0.1134904802E+00
    0.3700000000E+02    0.7195394975E-01    0.1486444404E+00    0.2409211189E-01    0.2527393657E-02    0.1175454338E+00
    0.3900000000E+02    0.7485228287E-01    0.1528255927E+00    0.2488932523E-01    0.2629223621E-02    0.1214472976E+00
    0.4100000000E+02    0.7768460787E-01    0.1567887097E+00    0.2565699217E-01    0.2728736594E-02    0.1252055511E+00
    0.4300000000E+02    0.8045416235E-01    0.1605480163E+00    0.2639690456E-01    0.2826046208E-02    0.1288288855E+00
    0.4500000000E+02    0.8316396137E-01    0.1641165605E+00    0.2711070827E-01    0.2921258280E-02    0.1323252846E+00
    0.4700000000E+02    0.8581681652E-01    0.1675063323E+00    0.2779991791E-01    0.3014471492E-02    0.1357020962E+00
    0.4900000000E+02    0.8841535315E-01    0.1707283670E+00    0.2846592981E-01    0.3105777987E-02    0.1389660949E+00
    0.1000000000E+02    0.2405868811E-01    0.5984369637E-01    0.9055315841E-02    0.8449401098E-03    0.4411164252E-01
    0.3000000000E+02    0.6123721557E-01    0.1320554060E+00    0.2103926737E-01    0.2150890991E-02    0.1026128793E+00
    0.5000000000E+02    0.8969502535E-01    0.1722796936E+00    0.2879064346E-01    0.3150743357E-02    0.1405577635E+00
    0.7000000000E+02    0.1129556439E+00    0.1965903831E+00    0.3433311658E-01    0.3968160471E-02    0.1677597784E+00
    0.9000000000E+02    0.1328000897E+00    0.2119767414E+00    0.3856121342E-01    0.4665653703E-02    0.1885609577E+00
    0.1100000000E+03    0.1502354493E+00    0.2219383378E+00    0.4193512948E-01    0.5278572258E-02    0.2051971147E+00
    0.1300000000E+03    0.1658794592E+00    0.2284066408E+00    0.4471759427E-01    0.5828599854E-02    0.2189458016E+00
    0.1500000000E+03    0.1801352381E+00    0.2325267592E+00    0.4707047829E-01    0.6329887196E-02    0.2305947925E+00
    0.1700000000E+03    0.1932790156E+00    0.2350159118E+00    0.4909949827E-01    0.6792131037E-02    0.2406589969E+00
    0.1900000000E+03    0.2055077165E+00    0.2363432566E+00    0.5087695287E-01    0.7222244356E-02    0.2494908359E+00
    0.2100000000E+03    0.2169664138E+00    0.2368266680E+00    0.5245416791E-01    0.7625319954E-02    0.2573406918E+00
    0.2300000000E+03    0.2277649857E+00    0.2366878485E+00    0.5386872305E-01    0.8005215166E-02    0.2643920275E+00
    0.2500000000E+03    0.2379886577E+00    0.2360852106E+00    0.5514885680E-01    0.8364921886E-02    0.2707828049E+00
    0.2700000000E+03    0.2477049149E+00    0.2351342776E+00    0.5631626292E-01    0.8706809228E-02    0.2766190874E+00
    0.2900000000E+03    0.2569681750E+00    0.2339207696E+00    0.5738792797E-01    0.9032787567E-02    0.2819839835E+00
    0.3100000000E+03    0.2658230328E+00    0.2325092411E+00    0.5837737524E-01    0.9344422427E-02    0.2869437030E+00
    0.3300000000E+03    0.2743065641E+00    0.2309489273E+00    0.5929552883E-01    0.9643015374E-02    0.2915517666E+00
    0.3500000000E+03    0.2824499968E+00    0.2292777886E+00    0.6015132767E-01    0.9929662671E-02    0.2958519981E+00
    0.3700000000E+03    0.2902799439E+00    0.2275253639E+00    0.6095217072E-01    0.1020529858E-01    0.2998806954E+00
    0.3900000000E+03    0.2978193294E+00    0.2257148186E+00    0.6170424559E-01    0.1047072784E-01    0.3036682330E+00
    0.4100000000E+03    0.3050880926E+00    0.2238644374E+00    0.6241277502E-01    0.1072665041E-01    0.3072402652E+00
    0.4300000000E+03    0.3121037312E+00    0.2219887286E+00    0.6308220447E-01    0.1097368056E-01    0.3106186417E+00
    0.4500000000E+03    0.3188817261E+00    0.2200992502E+00    0.6371634672E-01    0.1121236174E-01    0.3138221138E+00
    0.4700000000E+03    0.3254358758E+00    0.2182052361E+00    0.6431849481E-01    0.1144317834E-01    0.3168668865E+00
    0.4900000000E+03    0.3317785634E+00    0.2163140757E+00    0.6489151103E-01    0.1166656507E-01    0.3197670532E+00
    0.1000000000E+03    0.1417738192E+00    0.2174903426E+00    0.4033539717E-01    0.4981102225E-02    0.1973046395E+00
    0.3000000000E+03    0.2614441829E+00    0.2332363761E+00    0.5789219334E-01    0.9190311174E-02    0.2845108878E+00
    0.5000000000E+03    0.3348741454E+00    0.2153714633E+00    0.6516788916E-01    0.1177559639E-01    0.3211668231E+00
    0.7000000000E+03    0.3879279656E+00    0.1975903661E+00    0.6963615840E-01    0.1364493047E-01    0.3438890413E+00
    0.9000000000E+03    0.4282081847E+00    0.1825370317E+00    0.7280919553E-01    0.1506522225E-01    0.3601398015E+00
    0.1100000000E+04    0.4596170471E+00    0.1700746330E+00    0.7524195459E-01    0.1617350716E-01    0.3726722698E+00
    0.1300000000E+04    0.4845866039E+00    0.1597232432E+00    0.7719815694E-01    0.1705522201E-01    0.3828005102E+00
    0.1500000000E+04    0.5047583489E+00    0.1510381491E+00    0.7882329067E-01    0.1776805281E-01    0.3912521586E+00
    0.1700000000E+04    0.5212852907E+00    0.1436648544E+00    0.8020588320E-01    0.1835253327E-01    0.3984714097E+00
    0.1900000000E+04    0.5349978839E+00    0.1373314121E+00    0.8140368392E-01    0.1883786750E-01    0.4047488626E+00
    0.2100000000E+04    0.5465057194E+00    0.1318307761E+00    0.8245637786E-01    0.1924549946E-01    0.4102847345E+00
    0.2300000000E+04    0.5562635090E+00    0.1270047343E+00    0.8339236273E-01    0.1959142970E-01    0.4152226355E+00
    0.2500000000E+04    0.5646153465E+00    0.1227313890E+00    0.8423262832E-01    0.1988776991E-01    0.4196689451E+00
    0.2700000000E+04    0.5718250742E+00    0.1189158667E+00    0.8499310620E-01    0.2014380975E-01    0.4237045708E+00
    0.2900000000E+04    0.5780974873E+00    0.1154835304E+00    0.8568615944E-01    0.2036676191E-01    0.4273924173E+00
    0.3100000000E+04    0.5835933656E+00    0.1123750305E+00    0.8632156379E-01    0.2056229056E-01    0.4307823137E+00
    0.3300000000E+04    0.5884402781E+00    0.1095426794E+00    0.8690717474E-01    0.2073489110E-01    0.4339143691E+00
    0.3500000000E+04    0.5927404473E+00    0.1069477771E+00    0.8744939376E-01    0.2088816680E-01    0.4368213216E+00
    0.3700000000E+04    0.5965765432E+00    0.1045586205E+00    0.8795350185E-01    0.2102503254E-01    0.4395302208E+00
    0.3900000000E+04    0.6000160004E+00    0.1023490066E+00    0.8842390323E-01    0.2114786667E-01    0.4420636586E+00
    0.4100000000E+04    0.6031142691E+00    0.1002970982E+00    0.8886430657E-01    0.2125862545E-01    0.4444406862E+00
    0.4300000000E+04    0.6059172885E+00    0.9838455366E-01    0.8927786205E-01    0.2135893004E-01    0.4466775083E+00
    0.4500000000E+04    0.6084633858E+00    0.9659585493E-01    0.8966726645E-01    0.2145013337E-01    0.4487880155E+00
    0.4700000000E+04    0.6107847485E+00    0.9491778293E-01    0.9003484482E-01    0.2153337199E-01    0.4507841992E+00
    0.4900000000E+04    0.6129085751E+00    0.9333900492E-01    0.9038261472E-01    0.2160960654E-01    0.4526764777E+00
    0.1000000000E+04    0.4448459369E+00    0.1760111789E+00    0.7409771173E-01    0.1565219758E-01    0.3667692969E+00
    0.3000000000E+04    0.5809338459E+00    0.1138920195E+00    0.8601053800E-01    0.2046764948E-01    0.4291219061E+00
    0.5000000000E+04    0.6139037748E+00    0.9258374347E-01    0.9054963068E-01    0.2164535741E-01    0.4535865433E+00
    0.7000000000E+04    0.6275555316E+00    0.8090081957E-01    0.9317979105E-01    0.2213824875E-01    0.4680416400E+00
    0.9000000000E+04    0.6348158405E+00    0.7314878784E-01    0.9495953146E-01    0.2240339009E-01    0.4779777626E+00
    0.1100000000E+05    0.6392664984E+00    0.6747126108E-01    0.9626952240E-01    0.2256786289E-01    0.4853908558E+00
    0.1300000000E+05    0.6422546054E+00    0.6305654832E-01    0.9728663545E-01    0.2267963274E-01    0.4912163582E+00
    0.1500000000E+05    0.6443912218E+00    0.5948313202E-01    0.9810618667E-01    0.2276053796E-01    0.4959621423E+00
    0.1700000000E+05    0.6459910707E+00    0.5650607722E-01    0.9878484828E-01    0.2282186917E-01    0.4999321813E+00
    0.1900000000E+05    0.6472318504E+00    0.5397134800E-01    0.9935877600E-01    0.2287002616E-01    0.5033215753E+00
    0.2100000000E+05    0.6482211260E+00    0.5177622411E-01    0.9985229646E-01    0.2290889830E-01    0.5062623251E+00
    0.2300000000E+05    0.6490276624E+00    0.4984903654E-01    0.1002824736E+00    0.2294098203E-01    0.5088475041E+00
    0.2500000000E+05    0.6496973942E+00    0.4813795001E-01    0.1006616856E+00    0.2296795182E-01    0.5111449573E+00
    0.2700000000E+05    0.6502621350E+00    0.4660435945E-01    0.1009991630E+00    0.2299097214E-01    0.5132055128E+00
    0.2900000000E+05    0.6507445945E+00    0.4521880474E-01    0.1013019510E+00    0.2301087770E-01    0.5150681341E+00
    0.3100000000E+05    0.6511614053E+00    0.4395833755E-01    0.1015755336E+00    0.2302828240E-01    0.5167632791E+00
    0.3300000000E+05    0.6515250208E+00    0.4280476467E-01    0.1018242528E+00    0.2304364782E-01    0.5183151608E+00
    0.3500000000E+05    0.6518449460E+00    0.4174344130E-01    0.1020515980E+00    0.2305732775E-01    0.5197433117E+00
    0.3700000000E+05    0.6521285581E+00    0.4076242079E-01    0.1022604097E+00    0.2306959792E-01    0.5210636933E+00
    0.3900000000E+05    0.6523816687E+00    0.3985184229E-01    0.1024530273E+00    0.2308067650E-01    0.5222894978E+00
    0.4100000000E+05    0.6526089167E+00    0.3900348109E-01    0.1026313974E+00    0.2309073836E-01    0.5234317408E+00
    0.4300000000E+05    0.6528140494E+00    0.3821041264E-01    0.1027971546E+00    0.2309992535E-01    0.5244997047E+00
    0.4500000000E+05    0.6530001261E+00    0.3746675768E-01    0.1029516833E+00    0.2310835377E-01    0.5255012758E+00
    0.4700000000E+05    0.6531696684E+00    0.3676748630E-01    0.1030961644E+00    0.2311611991E-01    0.5264432051E+00
    0.4900000000E+05    0.6533247736E+00    0.3610826524E-01    0.1032316129E+00    0.2312330417E-01    0.5273313110E+00
    0.1000000000E+05    0.6372821271E+00    0.7011469260E-01    0.9565947480E-01    0.2249428816E-01    0.4819270171E+00
    0.3000000000E+05    0.6509603466E+00    0.4457416748E-01    0.1014420987E+00    0.2301986085E-01    0.5159350025E+00
    0.5000000000E+05    0.6533974730E+00    0.3579247980E-01    0.1032962288E+00    0.2312669967E-01    0.5277567836E+00
    0.7000000000E+05    0.6544011549E+00    0.3088389395E-01    0.1042759322E+00    0.2317599787E-01    0.5343750866E+00
    0.9000000000E+05    0.6549463571E+00    0.2762335722E-01    0.1048967737E+00    0.2320566104E-01    0.5387787518E+00
    0.1100000000E+06    0.6552879785E+00    0.2524889846E-01    0.1053304700E+00    0.2322606715E-01    0.5419919578E+00
    0.1300000000E+06    0.6555216885E+00    0.2341702953E-01    0.1056525880E+00    0.2324128192E-01    0.5444761380E+00
    0.1500000000E+06    0.6556913995E+00    0.2194650750E-01    0.1059021646E+00    0.2325324902E-01    0.5464746475E+00
    0.1700000000E+06    0.6558200769E+00    0.2073124556E-01    0.1061016170E+00    0.2326302530E-01    0.5481298877E+00
    0.1900000000E+06    0.6559208897E+00    0.1970437714E-01    0.1062648296E+00    0.2327123996E-01    0.5495316052E+00
    0.2100000000E+06    0.6560019271E+00    0.1882134317E-01    0.1064009057E+00    0.2327829368E-01    0.5507396103E+00
    0.2300000000E+06    0.6560684300E+00    0.1805113025E-01    0.1065160854E+00    0.2328445530E-01    0.5517955393E+00
    0.2500000000E+06    0.6561239424E+00    0.1737138510E-01    0.1066148019E+00    0.2328991285E-01    0.5527294111E+00
    0.2700000000E+06    0.6561709459E+00    0.1676552679E-01    0.1067002989E+00    0.2329480238E-01    0.5535635009E+00
    0.2900000000E+06    0.6562112296E+00    0.1622095687E-01    0.1067750085E+00    0.2329922513E-01    0.5543147414E+00
    0.3100000000E+06    0.6562461156E+00    0.1572790523E-01    0.1068407934E+00    0.2330325827E-01    0.5549962701E+00
    0.3300000000E+06    0.6562766017E+00    0.1527866084E-01    0.1068991058E+00    0.2330696183E-01    0.5556184615E+00
    0.3500000000E+06    0.6563034552E+00    0.1486704405E-01    0.1069510959E+00    0.2331038333E-01    0.5561896340E+00
    0.3700000000E+06    0.6563272755E+00    0.1448803556E-01    0.1069976870E+00    0.2331356095E-01    0.5567165484E+00
    0.3900000000E+06    0.6563485377E+00    0.1413750985E-01    0.1070396300E+00    0.2331652582E-01    0.5572047647E+00
    0.4100000000E+06    0.6563676230E+00    0.1381203993E-01    0.1070775416E+00    0.2331930361E-01    0.5576589044E+00
    0.4300000000E+06    0.6563848411E+00    0.1350875193E-01    0.1071119335E+00    0.2332191571E-01    0.5580828457E+00
    0.4500000000E+06    0.6564004457E+00    0.1322521509E-01    0.1071432341E+00    0.2332438013E-01    0.5584798706E+00
    0.4700000000E+06    0.6564146469E+00    0.1295935740E-01    0.1071718048E+00    0.2332671214E-01    0.5588527789E+00
    0.4900000000E+06    0.6564276202E+00    0.1270940013E-01    0.1071979530E+00    0.2332892483E-01    0.5592039754E+00
    0.1000000000E+06    0.6551348044E+00    0.2635229019E-01    0.1051310558E+00    0.2321669284E-01    0.5404979899E+00
    0.3000000000E+06    0.6562292786E+00    0.1596851435E-01    0.1068089176E+00    0.2330128631E-01    0.5546635161E+00
    0.5000000000E+06    0.6564336934E+00    0.1258989559E-01    0.1072102022E+00    0.2332999001E-01    0.5593720927E+00
    0.7000000000E+06    0.6565166414E+00    0.1075172478E-01    0.1073755070E+00    0.2334709791E-01    0.5619777279E+00
    0.9000000000E+06    0.6565602682E+00    0.9550928169E-02    0.1074554268E+00    0.2335924011E-01    0.5637045703E+00
    0.1100000000E+07    0.6565864922E+00    0.8686583810E-02    0.1074955127E+00    0.2336863757E-01    0.5649634064E+00
    0.1300000000E+07    0.6566035873E+00    0.8025548823E-02    0.1075142647E+00    0.2337629738E-01    0.5659371665E+00
    0.1500000000E+07    0.6566153471E+00    0.7498537325E-02    0.1075205665E+00    0.2338275966E-01    0.5667216157E+00
    0.1700000000E+07    0.6566237455E+00    0.7065432160E-02    0.1075191761E+00    0.2338834714E-01    0.5673725123E+00
    0.1900000000E+07    0.6566299059E+00    0.6701169335E-02    0.1075128466E+00    0.2339326786E-01    0.5679248750E+00
    0.2100000000E+07    0.6566345119E+00    0.6389168778E-02    0.1075032642E+00    0.2339766367E-01    0.5684019837E+00
    0.2300000000E+07    0.6566380016E+00    0.6117962576E-02    0.1074915083E+00    0.2340163557E-01    0.5688200160E+00
    0.2500000000E+07    0.6566406676E+00    0.5879329665E-02    0.1074782935E+00    0.2340525801E-01    0.5691906211E+00
    0.2700000000E+07    0.6566427122E+00    0.5667200751E-02    0.1074641061E+00    0.2340858743E-01    0.5695224358E+00
    0.2900000000E+07    0.6566442793E+00    0.5476983594E-02    0.1074492844E+00    0.2341166766E-01    0.5698220221E+00
    0.3100000000E+07    0.6566454737E+00    0.5305130263E-02    0.1074340676E+00    0.2341453335E-01    0.5700944694E+00
    0.3300000000E+07    0.6566463732E+00    0.5148850012E-02    0.1074186273E+00    0.2341721244E-01    0.5703437965E+00
    0.3500000000E+07    0.6566470368E+00    0.5005913181E-02    0.1074030877E+00    0.2341972772E-01    0.5705732257E+00
    0.3700000000E+07    0.6566475098E+00    0.4874513842E-02    0.1073875394E+00    0.2342209806E-01    0.5707853766E+00
    0.3900000000E+07    0.6566478274E+00    0.4753171454E-02    0.1073720487E+00    0.2342433925E-01    0.5709824038E+00
    0.4100000000E+07    0.6566480176E+00    0.4640659082E-02    0.1073566643E+00    0.2342646463E-01    0.5711660989E+00
    0.4300000000E+07    0.6566481024E+00    0.4535950070E-02    0.1073414216E+00    0.2342848558E-01    0.5713379662E+00
    0.4500000000E+07    0.6566480998E+00    0.4438177830E-02    0.1073263462E+00    0.2343041188E-01    0.5714992792E+00
    0.4700000000E+07    0.6566480242E+00    0.4346605079E-02    0.1073114565E+00    0.2343225200E-01    0.5716511248E+00
    0.4900000000E+07    0.6566478874E+00    0.4260600014E-02    0.1072967651E+00    0.2343401331E-01    0.5717944372E+00
    0.1000000000E+07    0.6565748802E+00    0.9087179477E-02    0.1074789602E+00    0.2336420330E-01    0.5643781146E+00
    0.3000000000E+07    0.6566449177E+00    0.5388950972E-02    0.1074417134E+00    0.2341312544E-01    0.5699613655E+00
    0.5000000000E+07    0.6566477993E+00    0.4219512091E-02    0.1072894966E+00    0.2343486648E-01    0.5718631503E+00
    0.7000000000E+07    0.6566444803E+00    0.3590034321E-02    0.1071552725E+00    0.2344901582E-01    0.5729385377E+00
    0.9000000000E+07    0.6566401230E+00    0.3181360149E-02    0.1070403267E+00    0.2345952440E-01    0.5736643735E+00
    0.1100000000E+08    0.6566357516E+00    0.2888421303E-02    0.1069406232E+00    0.2346788785E-01    0.5742019339E+00
    0.1300000000E+08    0.6566316174E+00    0.2665076153E-02    0.1068527807E+00    0.2347483548E-01    0.5746236140E+00
    0.1500000000E+08    0.6566277724E+00    0.2487439472E-02    0.1067743207E+00    0.2348077816E-01    0.5749676041E+00
    0.1700000000E+08    0.6566242092E+00    0.2341736786E-02    0.1067034358E+00    0.2348597033E-01    0.5752563015E+00
    0.1900000000E+08    0.6566209039E+00    0.2219389606E-02    0.1066387837E+00    0.2349058059E-01    0.5755038688E+00
    0.2100000000E+08    0.6566178291E+00    0.2114738021E-02    0.1065793461E+00    0.2349472640E-01    0.5757197822E+00
    0.2300000000E+08    0.6566149591E+00    0.2023875873E-02    0.1065243342E+00    0.2349849288E-01    0.5759106670E+00
    0.2500000000E+08    0.6566122708E+00    0.1944008219E-02    0.1064731252E+00    0.2350194373E-01    0.5760813218E+00
    0.2700000000E+08    0.6566097442E+00    0.1873075056E-02    0.1064252194E+00    0.2350512780E-01    0.5762353242E+00
