  Pressure (Pa) 22mC5-400 (mol/kg) 2mC6-400 (mol/kg) 3mC6-400 (mol/kg) 23mC5-400 (mol/kg) C7-400 (mol/kg)
    0.1000000000E+01    0.2646639381E-02    0.2360941366E-02    0.2086849195E-02    0.1858884894E-03    0.1015952150E-01
    0.3000000000E+01    0.7838767965E-02    0.6799102199E-02    0.6011109987E-02    0.5505664195E-03    0.2926983232E-01
    0.5000000000E+01    0.1290104879E-01    0.1089419943E-01    0.9635212632E-02    0.9061311541E-03    0.4692539301E-01
    0.7000000000E+01    0.1783918749E-01    0.1468304484E-01    0.1299293358E-01    0.1252983070E-02    0.6328965260E-01
    0.9000000000E+01    0.2265855119E-01    0.1819722075E-01    0.1611314227E-01    0.1591498795E-02    0.7850233275E-01
    0.1100000000E+02    0.2736419327E-01    0.2146399267E-01    0.1902066212E-01    0.1922032938E-02    0.9268358909E-01
    0.1300000000E+02    0.3196087588E-01    0.2450703586E-01    0.2173695637E-01    0.2244919678E-02    0.1059373261E+00
    0.1500000000E+02    0.3645309069E-01    0.2734701880E-01    0.2428067887E-01    0.2560474214E-02    0.1183538596E+00
    0.1700000000E+02    0.4084507780E-01    0.3000207538E-01    0.2666811993E-01    0.2868994091E-02    0.1300120725E+00
    0.1900000000E+02    0.4514084312E-01    0.3248819003E-01    0.2891356990E-01    0.3170760424E-02    0.1409811719E+00
    0.2100000000E+02    0.4934417433E-01    0.3481951389E-01    0.3102961750E-01    0.3466039014E-02    0.1513221321E+00
    0.2300000000E+02    0.5345865559E-01    0.3700862617E-01    0.3302739632E-01    0.3755081384E-02    0.1610888863E+00
    0.2500000000E+02    0.5748768103E-01    0.3906675150E-01    0.3491678961E-01    0.4038125718E-02    0.1703293173E+00
    0.2700000000E+02    0.6143446721E-01    0.4100394167E-01    0.3670660147E-01    0.4315397744E-02    0.1790860845E+00
    0.2900000000E+02    0.6530206463E-01    0.4282922857E-01    0.3840470055E-01    0.4587111536E-02    0.1873973202E+00
    0.3100000000E+02    0.6909336831E-01    0.4455075333E-01    0.4001814140E-01    0.4853470260E-02    0.1952972155E+00
    0.3300000000E+02    0.7281112764E-01    0.4617587621E-01    0.4155326743E-01    0.5114666859E-02    0.2028165189E+00
    0.3500000000E+02    0.7645795541E-01    0.4771127014E-01    0.4301579855E-01    0.5370884696E-02    0.2099829601E+00
    0.3700000000E+02    0.8003633630E-01    0.4916300112E-01    0.4441090617E-01    0.5622298139E-02    0.2168216131E+00
    0.3900000000E+02    0.8354863459E-01    0.5053659728E-01    0.4574327762E-01    0.5869073112E-02    0.2233552074E+00
    0.4100000000E+02    0.8699710145E-01    0.5183710858E-01    0.4701717169E-01    0.6111367600E-02    0.2296043975E+00
    0.4300000000E+02    0.9038388167E-01    0.5306915862E-01    0.4823646667E-01    0.6349332122E-02    0.2355879945E+00
    0.4500000000E+02    0.9371101987E-01    0.5423698972E-01    0.4940470205E-01    0.6583110169E-02    0.2413231688E+00
    0.4700000000E+02    0.9698046633E-01    0.5534450228E-01    0.5052511492E-01    0.6812838612E-02    0.2468256254E+00
    0.4900000000E+02    0.1001940824E+00    0.5639528931E-01    0.5160067165E-01    0.7038648084E-02    0.2521097581E+00
    0.1000000000E+02    0.2502528323E-01    0.1985997581E-01    0.1759207512E-01    0.1757742217E-02    0.8571504797E-01
    0.3000000000E+02    0.6720707805E-01    0.4370248407E-01    0.3922159121E-01    0.4720947991E-02    0.1913966882E+00
    0.5000000000E+02    0.1017805127E+00    0.5690045705E-01    0.5212248885E-01    0.7150122409E-02    0.2546741258E+00
    0.7000000000E+02    0.1309702671E+00    0.6470934004E-01    0.6075953740E-01    0.9201391073E-02    0.2971967044E+00
    0.9000000000E+02    0.1561793030E+00    0.6942680905E-01    0.6698348794E-01    0.1097321696E-01    0.3279505672E+00
    0.1100000000E+03    0.1783382947E+00    0.7223108821E-01    0.7170304885E-01    0.1253091952E-01    0.3513536036E+00
    0.1300000000E+03    0.1980907350E+00    0.7379087004E-01    0.7541810036E-01    0.1391966400E-01    0.3698392017E+00
    0.1500000000E+03    0.2158972366E+00    0.7451313187E-01    0.7842712816E-01    0.1517178071E-01    0.3848622059E+00
    0.1700000000E+03    0.2320973650E+00    0.7465849481E-01    0.8091978380E-01    0.1631110439E-01    0.3973481469E+00
    0.1900000000E+03    0.2469478912E+00    0.7440041334E-01    0.8302258577E-01    0.1735565872E-01    0.4079152172E+00
    0.2100000000E+03    0.2606473300E+00    0.7385784505E-01    0.8482331735E-01    0.1831937851E-01    0.4169928662E+00
    0.2300000000E+03    0.2733521799E+00    0.7311433610E-01    0.8638488823E-01    0.1921324949E-01    0.4248892305E+00
    0.2500000000E+03    0.2851879690E+00    0.7222968954E-01    0.8775362119E-01    0.2004608353E-01    0.4318314748E+00
    0.2700000000E+03    0.2962569488E+00    0.7124736988E-01    0.8896442048E-01    0.2082505872E-01    0.4379909713E+00
    0.2900000000E+03    0.3066435700E+00    0.7019935055E-01    0.9004411314E-01    0.2155610363E-01    0.4434995904E+00
    0.3100000000E+03    0.3164184535E+00    0.6910937227E-01    0.9101367681E-01    0.2224417609E-01    0.4484605696E+00
    0.3300000000E+03    0.3256413209E+00    0.6799518354E-01    0.9188976517E-01    0.2289346884E-01    0.4529559623E+00
    0.3500000000E+03    0.3343631904E+00    0.6687011194E-01    0.9268577741E-01    0.2350756373E-01    0.4570518623E+00
    0.3700000000E+03    0.3426280462E+00    0.6574418521E-01    0.9341262348E-01    0.2408954883E-01    0.4608021468E+00
    0.3900000000E+03    0.3504741248E+00    0.6462494339E-01    0.9407928204E-01    0.2464210873E-01    0.4642512053E+00
    0.4100000000E+03    0.3579349169E+00    0.6351803509E-01    0.9469321384E-01    0.2516759493E-01    0.4674359647E+00
    0.4300000000E+03    0.3650399578E+00    0.6242766060E-01    0.9526067269E-01    0.2566808125E-01    0.4703874124E+00
    0.4500000000E+03    0.3718154571E+00    0.6135690456E-01    0.9578694255E-01    0.2614540805E-01    0.4731317594E+00
    0.4700000000E+03    0.3782848049E+00    0.6030798830E-01    0.9627652048E-01    0.2660121776E-01    0.4756913377E+00
    0.4900000000E+03    0.3844689826E+00    0.5928246267E-01    0.9673325939E-01    0.2703698376E-01    0.4780853013E+00
    0.1000000000E+03    0.1675945994E+00    0.7101821015E-01    0.6949375268E-01    0.1177564331E-01    0.3403881463E+00
    0.3000000000E+03    0.3116035196E+00    0.6965837760E-01    0.9054153322E-01    0.2190523345E-01    0.4460429800E+00
    0.5000000000E+03    0.3874601149E+00    0.5877880993E-01    0.9695037032E-01    0.2724777047E-01    0.4792254328E+00
    0.7000000000E+03    0.4360649793E+00    0.5001364171E-01    0.1001765114E+00    0.3067482837E-01    0.4963650695E+00
    0.9000000000E+03    0.4698523016E+00    0.4343837874E-01    0.1021519264E+00    0.3305972820E-01    0.5071050771E+00
    0.1100000000E+04    0.4945514711E+00    0.3846490754E-01    0.1034978063E+00    0.3480505108E-01    0.5145803627E+00
    0.1300000000E+04    0.5132820287E+00    0.3462144098E-01    0.1044789547E+00    0.3613009030E-01    0.5201405794E+00
    0.1500000000E+04    0.5279016844E+00    0.3158308527E-01    0.1052285028E+00    0.3716549204E-01    0.5244705063E+00
    0.1700000000E+04    0.5395841023E+00    0.2913014478E-01    0.1058211485E+00    0.3799382986E-01    0.5279576768E+00
    0.1900000000E+04    0.5491043051E+00    0.2711235898E-01    0.1063022388E+00    0.3866965269E-01    0.5308392760E+00
    0.2100000000E+04    0.5569925450E+00    0.2542493981E-01    0.1067009892E+00    0.3923029639E-01    0.5332693086E+00
    0.2300000000E+04    0.5636224930E+00    0.2399325204E-01    0.1070371190E+00    0.3970208202E-01    0.5353525055E+00
    0.2500000000E+04    0.5692642080E+00    0.2276303245E-01    0.1073244467E+00    0.4010403973E-01    0.5371627915E+00
    0.2700000000E+04    0.5741171866E+00    0.2169406227E-01    0.1075729591E+00    0.4045023287E-01    0.5387539706E+00
    0.2900000000E+04    0.5783316575E+00    0.2075599907E-01    0.1077900626E+00    0.4075125585E-01    0.5401662208E+00
    0.3100000000E+04    0.5820226880E+00    0.1992557756E-01    0.1079813726E+00    0.4101522661E-01    0.5414302068E+00
    0.3300000000E+04    0.5852797588E+00    0.1918469330E-01    0.1081512272E+00    0.4124846044E-01    0.5425697761E+00
    0.3500000000E+04    0.5881734054E+00    0.1851906685E-01    0.1083030340E+00    0.4145593754E-01    0.5436037808E+00
    0.3700000000E+04    0.5907599146E+00    0.1791729632E-01    0.1084395086E+00    0.4164163364E-01    0.5445473388E+00
    0.3900000000E+04    0.5930847042E+00    0.1737017448E-01    0.1085628426E+00    0.4180875805E-01    0.5454127286E+00
    0.4100000000E+04    0.5951847938E+00    0.1687018942E-01    0.1086748256E+00    0.4195992768E-01    0.5462100363E+00
    0.4300000000E+04    0.5970906377E+00    0.1641115403E-01    0.1087769336E+00    0.4209729623E-01    0.5469476313E+00
    0.4500000000E+04    0.5988275015E+00    0.1598792783E-01    0.1088703954E+00    0.4222265119E-01    0.5476325228E+00
    0.4700000000E+04    0.6004165106E+00    0.1559620540E-01    0.1089562426E+00    0.4233748776E-01    0.5482706297E+00
    0.4900000000E+04    0.6018754555E+00    0.1523235384E-01    0.1090353480E+00    0.4244306561E-01    0.5488669878E+00
    0.1000000000E+04    0.4831033136E+00    0.4078476374E-01    0.1028825105E+00    0.3399584785E-01    0.5111438072E+00
    0.3000000000E+04    0.5802364998E+00    0.2032856766E-01    0.1078886454E+00    0.4088744208E-01    0.5408151212E+00
    0.5000000000E+04    0.6025609587E+00    0.1505989657E-01    0.1090726093E+00    0.4249272285E-01    0.5491508840E+00
    0.7000000000E+04    0.6121245756E+00    0.1252231868E-01    0.1095973870E+00    0.4318990681E-01    0.5534198511E+00
    0.9000000000E+04    0.6173862980E+00    0.1096903991E-01    0.1098861633E+00    0.4357882357E-01    0.5561130761E+00
    0.1100000000E+05    0.6207030156E+00    0.9893608212E-02    0.1100636486E+00    0.4382738871E-01    0.5580081862E+00
    0.1300000000E+05    0.6229805452E+00    0.9091620476E-02    0.1101800712E+00    0.4400043913E-01    0.5594348639E+00
    0.1500000000E+05    0.6246392636E+00    0.8463245883E-02    0.1102595868E+00    0.4412820589E-01    0.5605594166E+00
    0.1700000000E+05    0.6259002890E+00    0.7953265963E-02    0.1103152425E+00    0.4422666530E-01    0.5614758522E+00
    0.1900000000E+05    0.6268908338E+00    0.7528341055E-02    0.1103546910E+00    0.4430505204E-01    0.5622417844E+00
    0.2100000000E+05    0.6276891924E+00    0.7166988743E-02    0.1103827069E+00    0.4436907647E-01    0.5628947266E+00
    0.2300000000E+05    0.6283461582E+00    0.6854654632E-02    0.1104024155E+00    0.4442246060E-01    0.5634602840E+00
    0.2500000000E+05    0.6288961067E+00    0.6581076976E-02    0.1104159424E+00    0.4446773530E-01    0.5639566063E+00
    0.2700000000E+05    0.6293631251E+00    0.6338782016E-02    0.1104247797E+00    0.4450668224E-01    0.5643969632E+00
    0.2900000000E+05    0.6297645883E+00    0.6122178041E-02    0.1104300024E+00    0.4454059265E-01    0.5647913107E+00
    0.3100000000E+05    0.6301133422E+00    0.5926985450E-02    0.1104324022E+00    0.4457042567E-01    0.5651472839E+00
    0.3300000000E+05    0.6304190874E+00    0.5749864769E-02    0.1104325734E+00    0.4459690896E-01    0.5654708497E+00
    0.3500000000E+05    0.6306892855E+00    0.5588166108E-02    0.1104309693E+00    0.4462060484E-01    0.5657667475E+00
    0.3700000000E+05    0.6309297690E+00    0.5439755804E-02    0.1104279408E+00    0.4464195490E-01    0.5660387966E+00
    0.3900000000E+05    0.6311451626E+00    0.5302893587E-02    0.1104237627E+00    0.4466131091E-01    0.5662901134E+00
    0.4100000000E+05    0.6313391802E+00    0.5176143748E-02    0.1104186527E+00    0.4467895666E-01    0.5665232701E+00
    0.4300000000E+05    0.6315148380E+00    0.5058309692E-02    0.1104127849E+00    0.4469512369E-01    0.5667404109E+00
    0.4500000000E+05    0.6316746115E+00    0.4948384920E-02    0.1104062997E+00    0.4471000291E-01    0.5669433396E+00
    0.4700000000E+05    0.6318205507E+00    0.4845515790E-02    0.1103993114E+00    0.4472375313E-01    0.5671335862E+00
    0.4900000000E+05    0.6319543681E+00    0.4748972833E-02    0.1103919133E+00    0.4473650762E-01    0.5673124581E+00
    0.1000000000E+05    0.6192140934E+00    0.1038800044E-01    0.1099847735E+00    0.4371538195E-01    0.5571341984E+00
    0.3000000000E+05    0.6299448863E+00    0.6022132677E-02    0.1104315142E+00    0.4455596883E-01    0.5649736880E+00
    0.5000000000E+05    0.6320171906E+00    0.4702874058E-02    0.1103880853E+00    0.4474254737E-01    0.5673979864E+00
    0.7000000000E+05    0.6328911304E+00    0.3998263424E-02    0.1103029565E+00    0.4483107837E-01    0.5687170700E+00
    0.9000000000E+05    0.6333708449E+00    0.3542101226E-02    0.1102161332E+00    0.4488509790E-01    0.5695872619E+00
    0.1100000000E+06    0.6336729197E+00    0.3215557077E-02    0.1101346751E+00    0.4492256920E-01    0.5702216893E+00
    0.1300000000E+06    0.6338799970E+00    0.2966768600E-02    0.1100596176E+00    0.4495065962E-01    0.5707135750E+00
    0.1500000000E+06    0.6340304127E+00    0.2768978648E-02    0.1099905989E+00    0.4497283729E-01    0.5711111849E+00
    0.1700000000E+06    0.6341443621E+00    0.2606787629E-02    0.1099269558E+00    0.4499100442E-01    0.5714424191E+00
    0.1900000000E+06    0.6342334869E+00    0.2470617558E-02    0.1098680207E+00    0.4500630082E-01    0.5717247160E+00
    0.2100000000E+06    0.6343049658E+00    0.2354154782E-02    0.1098131990E+00    0.4501945607E-01    0.5719696312E+00
    0.2300000000E+06    0.6343634633E+00    0.2253044762E-02    0.1097619819E+00    0.4503096167E-01    0.5721851779E+00
    0.2500000000E+06    0.6344121406E+00    0.2164173205E-02    0.1097139392E+00    0.4504116252E-01    0.5723771190E+00
    0.2700000000E+06    0.6344532146E+00    0.2085245542E-02    0.1096687079E+00    0.4505030889E-01    0.5725497244E+00
    0.2900000000E+06    0.6344882857E+00    0.2014528607E-02    0.1096259809E+00    0.4505858743E-01    0.5727062374E+00
    0.3100000000E+06    0.6345185375E+00    0.1950685375E-02    0.1095854968E+00    0.4506614072E-01    0.5728491737E+00
    0.3300000000E+06    0.6345448639E+00    0.1892665558E-02    0.1095470322E+00    0.4507307983E-01    0.5729805209E+00
    0.3500000000E+06    0.6345679524E+00    0.1839631014E-02    0.1095103949E+00    0.4507949281E-01    0.5731018735E+00
    0.3700000000E+06    0.6345883401E+00    0.1790903605E-02    0.1094754184E+00    0.4508545054E-01    0.5732145287E+00
    0.3900000000E+06    0.6346064530E+00    0.1745927909E-02    0.1094419577E+00    0.4509101086E-01    0.5733195547E+00
    0.4100000000E+06    0.6346226325E+00    0.1704244044E-02    0.1094098859E+00    0.4509622148E-01    0.5734178406E+00
    0.4300000000E+06    0.6346371559E+00    0.1665467503E-02    0.1093790912E+00    0.4510112222E-01    0.5735101336E+00
    0.4500000000E+06    0.6346502507E+00    0.1629273967E-02    0.1093494749E+00    0.4510574664E-01    0.5735970671E+00
    0.4700000000E+06    0.6346621048E+00    0.1595387694E-02    0.1093209492E+00    0.4511012321E-01    0.5736791826E+00
    0.4900000000E+06    0.6346728751E+00    0.1563572541E-02    0.1092934356E+00    0.4511427633E-01    0.5737569458E+00
    0.1000000000E+06    0.6335373612E+00    0.3366720357E-02    0.1101746120E+00    0.4490532528E-01    0.5699265943E+00
    0.3000000000E+06    0.6345039525E+00    0.1981819134E-02    0.1096054732E+00    0.4506244717E-01    0.5727792679E+00
    0.5000000000E+06    0.6346778959E+00    0.1548376906E-02    0.1092800362E+00    0.4511627579E-01    0.5737943236E+00
    0.7000000000E+06    0.6347445799E+00    0.1315870617E-02    0.1090514416E+00    0.4514839899E-01    0.5743880573E+00
    0.9000000000E+06    0.6347772598E+00    0.1165213591E-02    0.1088747482E+00    0.4517120329E-01    0.5747996387E+00
    0.1100000000E+07    0.6347952630E+00    0.1057361776E-02    0.1087305230E+00    0.4518885197E-01    0.5751112241E+00
    0.1300000000E+07    0.6348057825E+00    0.9752100190E-03    0.1086085727E+00    0.4520323556E-01    0.5753602313E+00
    0.1500000000E+07    0.6348120639E+00    0.9099186130E-03    0.1085028741E+00    0.4521536869E-01    0.5755666618E+00
    0.1700000000E+07    0.6348157668E+00    0.8563961315E-03    0.1084095668E+00    0.4522585783E-01    0.5757423875E+00
    0.1900000000E+07    0.6348178178E+00    0.8114748581E-03    0.1083260255E+00    0.4523509399E-01    0.5758949990E+00
    0.2100000000E+07    0.6348187696E+00    0.7730664844E-03    0.1082503831E+00    0.4524334379E-01    0.5760296268E+00
    0.2300000000E+07    0.6348189689E+00    0.7397307478E-03    0.1081812631E+00    0.4525079710E-01    0.5761498919E+00
    0.2500000000E+07    0.6348186417E+00    0.7104377045E-03    0.1081176215E+00    0.4525759386E-01    0.5762584399E+00
    0.2700000000E+07    0.6348179408E+00    0.6844286171E-03    0.1080586475E+00    0.4526384017E-01    0.5763572596E+00
    0.2900000000E+07    0.6348169718E+00    0.6611304824E-03    0.1080036983E+00    0.4526961838E-01    0.5764478814E+00
    0.3100000000E+07    0.6348158095E+00    0.6401013460E-03    0.1079522559E+00    0.4527499365E-01    0.5765315072E+00
    0.3300000000E+07    0.6348145077E+00    0.6209940980E-03    0.1079038968E+00    0.4528001845E-01    0.5766090971E+00
    0.3500000000E+07    0.6348131060E+00    0.6035317937E-03    0.1078582698E+00    0.4528473563E-01    0.5766814296E+00
    0.3700000000E+07    0.6348116337E+00    0.5874903984E-03    0.1078150810E+00    0.4528918065E-01    0.5767491442E+00
    0.3900000000E+07    0.6348101128E+00    0.5726864520E-03    0.1077740813E+00    0.4529338318E-01    0.5768127725E+00
    0.4100000000E+07    0.6348085599E+00    0.5589680784E-03    0.1077350584E+00    0.4529736827E-01    0.5768727608E+00
    0.4300000000E+07    0.6348069876E+00    0.5462083161E-03    0.1076978293E+00    0.4530115732E-01    0.5769294872E+00
    0.4500000000E+07    0.6348054056E+00    0.5343000942E-03    0.1076622355E+00    0.4530476868E-01    0.5769832749E+00
    0.4700000000E+07    0.6348038213E+00    0.5231523942E-03    0.1076281385E+00    0.4530821828E-01    0.5770344020E+00
    0.4900000000E+07    0.6348022406E+00    0.5126872800E-03    0.1075954170E+00    0.4531151996E-01    0.5770831097E+00
    0.1000000000E+07    0.6347875065E+00    0.1107286319E-02    0.1087993480E+00    0.4518052450E-01    0.5749650081E+00
    0.3000000000E+07    0.6348164110E+00    0.6503558734E-03    0.1079775671E+00    0.4527235284E-01    0.5764905039E+00
    0.5000000000E+07    0.6348014529E+00    0.5076893323E-03    0.1075795380E+00    0.4531311920E-01    0.5771066231E+00
    0.7000000000E+07    0.6347865255E+00    0.4312516600E-03    0.1073136841E+00    0.4533963590E-01    0.5774892326E+00
    0.9000000000E+07    0.6347735292E+00    0.3817586657E-03    0.1071136063E+00    0.4535932257E-01    0.5777649506E+00
    0.1100000000E+08    0.6347622668E+00    0.3463458372E-03    0.1069530680E+00    0.4537498655E-01    0.5779796659E+00
    0.1300000000E+08    0.6347523963E+00    0.3193818094E-03    0.1068189645E+00    0.4538799621E-01    0.5781550713E+00
    0.1500000000E+08    0.6347436354E+00    0.2979581148E-03    0.1067037954E+00    0.4539912225E-01    0.5783030991E+00
    0.1700000000E+08    0.6347357700E+00    0.2804003413E-03    0.1066028623E+00    0.4540884188E-01    0.5784309976E+00
    0.1900000000E+08    0.6347286388E+00    0.2656671206E-03    0.1065130257E+00    0.4541747117E-01    0.5785434922E+00
    0.2100000000E+08    0.6347221191E+00    0.2530721504E-03    0.1064320831E+00    0.4542523034E-01    0.5786438304E+00
    0.2300000000E+08    0.6347161155E+00    0.2421422295E-03    0.1063584295E+00    0.4543227896E-01    0.5787343378E+00
    0.2500000000E+08    0.6347105530E+00    0.2325390460E-03    0.1062908589E+00    0.4543873637E-01    0.5788167357E+00
    0.2700000000E+08    0.6347053718E+00    0.2240134237E-03    0.1062284420E+00    0.4544469415E-01    0.5788923330E+00
