  Pressure (Pa) 22mC5-400 (mol/kg) 2mC6-400 (mol/kg) 3mC6-400 (mol/kg) 23mC5-400 (mol/kg) C7-400 (mol/kg)
    0.1000000000E+01    0.2646998621E-02    0.2356382229E-02    0.2081693569E-02    0.9295684892E-04    0.1182363606E-01
    0.3000000000E+01    0.7841910951E-02    0.6761831023E-02    0.5968558548E-02    0.2753934844E-03    0.3390761100E-01
    0.5000000000E+01    0.1290953983E-01    0.1079979966E-01    0.9526417078E-02    0.4533634944E-03    0.5413123638E-01
    0.7000000000E+01    0.1785538088E-01    0.1451374826E-01    0.1279598888E-01    0.6270596997E-03    0.7272440213E-01
    0.9000000000E+01    0.2268460919E-01    0.1794032146E-01    0.1581151396E-01    0.7966636770E-03    0.8988044433E-01
    0.1100000000E+02    0.2740210241E-01    0.2111065451E-01    0.1860199364E-01    0.9623465665E-03    0.1057631428E+00
    0.1300000000E+02    0.3201246175E-01    0.2405138873E-01    0.2119215681E-01    0.1124269811E-02    0.1205121700E+00
    0.1500000000E+02    0.3652003132E-01    0.2678546894E-01    0.2360321981E-01    0.1282585833E-02    0.1342473764E+00
    0.1700000000E+02    0.4092891586E-01    0.2933277583E-01    0.2585348966E-01    0.1437438656E-02    0.1470721929E+00
    0.1900000000E+02    0.4524299698E-01    0.3171063180E-01    0.2795884704E-01    0.1588964478E-02    0.1590763553E+00
    0.2100000000E+02    0.4946594820E-01    0.3393420891E-01    0.2993313611E-01    0.1737292194E-02    0.1703381029E+00
    0.2300000000E+02    0.5360124867E-01    0.3601686039E-01    0.3178848145E-01    0.1882543879E-02    0.1809259669E+00
    0.2500000000E+02    0.5765219590E-01    0.3797039209E-01    0.3353554751E-01    0.2024835239E-02    0.1909002343E+00
    0.2700000000E+02    0.6162191753E-01    0.3980528605E-01    0.3518375254E-01    0.2164276016E-02    0.2003141548E+00
    0.2900000000E+02    0.6551338210E-01    0.4153088595E-01    0.3674144585E-01    0.2300970372E-02    0.2092149412E+00
    0.3100000000E+02    0.6932940909E-01    0.4315555183E-01    0.3821605562E-01    0.2435017239E-02    0.2176446039E+00
    0.3300000000E+02    0.7307267823E-01    0.4468678984E-01    0.3961421292E-01    0.2566510646E-02    0.2256406504E+00
    0.3500000000E+02    0.7674573803E-01    0.4613136166E-01    0.4094185607E-01    0.2695540018E-02    0.2332366748E+00
    0.3700000000E+02    0.8035101377E-01    0.4749537728E-01    0.4220431909E-01    0.2822190456E-02    0.2404628566E+00
    0.3900000000E+02    0.8389081492E-01    0.4878437393E-01    0.4340640691E-01    0.2946542998E-02    0.2473463859E+00
    0.4100000000E+02    0.8736734195E-01    0.5000338370E-01    0.4455245955E-01    0.3068674858E-02    0.2539118255E+00
    0.4300000000E+02    0.9078269280E-01    0.5115699152E-01    0.4564640724E-01    0.3188659652E-02    0.2601814220E+00
    0.4500000000E+02    0.9413886872E-01    0.5224938526E-01    0.4669181780E-01    0.3306567604E-02    0.2661753736E+00
    0.4700000000E+02    0.9743777990E-01    0.5328439904E-01    0.4769193767E-01    0.3422465742E-02    0.2719120618E+00
    0.4900000000E+02    0.1006812506E+00    0.5426555095E-01    0.4864972737E-01    0.3536418080E-02    0.2774082515E+00
    0.1000000000E+02    0.2505702887E-01    0.1955575786E-01    0.1723324856E-01    0.8799849485E-03    0.9797172212E-01
    0.3000000000E+02    0.6743065464E-01    0.4235534787E-01    0.3748870436E-01    0.2368318754E-02    0.2134862207E+00
    0.5000000000E+02    0.1022827435E+00    0.5473694984E-01    0.4911360310E-01    0.3592683795E-02    0.2800709999E+00
    0.7000000000E+02    0.1317871294E+00    0.6199973483E-01    0.5671599176E-01    0.4629358938E-02    0.3237999064E+00
    0.9000000000E+02    0.1573233199E+00    0.6636154584E-01    0.6210714504E-01    0.5526752724E-02    0.3549372083E+00
    0.1100000000E+03    0.1798109322E+00    0.6893625947E-01    0.6614703662E-01    0.6317136912E-02    0.3783634425E+00
    0.1300000000E+03    0.1998882854E+00    0.7034980483E-01    0.6929783098E-01    0.7022912562E-02    0.3967052880E+00
    0.1500000000E+03    0.2180136929E+00    0.7098147432E-01    0.7183077245E-01    0.7660164148E-02    0.4115065442E+00
    0.1700000000E+03    0.2345258429E+00    0.7107382629E-01    0.7391591917E-01    0.8240778235E-02    0.4237364705E+00
    0.1900000000E+03    0.2496813251E+00    0.7078834061E-01    0.7566551362E-01    0.8773760299E-02    0.4340356952E+00
    0.2100000000E+03    0.2636787997E+00    0.7023590094E-01    0.7715675334E-01    0.9266082831E-02    0.4428454354E+00
    0.2300000000E+03    0.2766750477E+00    0.6949452471E-01    0.7844455546E-01    0.9723248598E-02    0.4504799960E+00
    0.2500000000E+03    0.2887959208E+00    0.6862017887E-01    0.7956910341E-01    0.1014967488E-01    0.4571696693E+00
    0.2700000000E+03    0.3001439877E+00    0.6765363771E-01    0.8056051014E-01    0.1054896182E-01    0.4630872654E+00
    0.2900000000E+03    0.3108039892E+00    0.6662497289E-01    0.8144180896E-01    0.1092408388E-01    0.4683651425E+00
    0.3100000000E+03    0.3208468012E+00    0.6555657366E-01    0.8223093395E-01    0.1127752890E-01    0.4731064929E+00
    0.3300000000E+03    0.3303323650E+00    0.6446522596E-01    0.8294206789E-01    0.1161140094E-01    0.4773930314E+00
    0.3500000000E+03    0.3393118857E+00    0.6336357250E-01    0.8358658223E-01    0.1192749746E-01    0.4812903599E+00
    0.3700000000E+03    0.3478295063E+00    0.6226115622E-01    0.8417370646E-01    0.1222736805E-01    0.4848517922E+00
    0.3900000000E+03    0.3559235979E+00    0.6116517746E-01    0.8471101406E-01    0.1251235971E-01    0.4881211324E+00
    0.4100000000E+03    0.3636277663E+00    0.6008105097E-01    0.8520478117E-01    0.1278365221E-01    0.4911347269E+00
    0.4300000000E+03    0.3709716467E+00    0.5901282053E-01    0.8566025543E-01    0.1304228592E-01    0.4939230043E+00
    0.4500000000E+03    0.3779815357E+00    0.5796347100E-01    0.8608186029E-01    0.1328918408E-01    0.4965116459E+00
    0.4700000000E+03    0.3846809013E+00    0.5693516539E-01    0.8647335214E-01    0.1352517061E-01    0.4989224879E+00
    0.4900000000E+03    0.3910907961E+00    0.5592942648E-01    0.8683794271E-01    0.1375098466E-01    0.5011742228E+00
    0.1000000000E+03    0.1689031588E+00    0.6782550720E-01    0.6426106892E-01    0.5933740425E-02    0.3674157728E+00
    0.3000000000E+03    0.3158985700E+00    0.6609457917E-01    0.8184693144E-01    0.1110337653E-01    0.4707973449E+00
    0.5000000000E+03    0.3941931948E+00    0.5543535553E-01    0.8701102883E-01    0.1386028778E-01    0.5022455455E+00
    0.7000000000E+03    0.4448125068E+00    0.4682292385E-01    0.8956458205E-01    0.1564462352E-01    0.5182633794E+00
    0.9000000000E+03    0.4802531088E+00    0.4034962137E-01    0.9110845066E-01    0.1689521837E-01    0.5282103127E+00
    0.1100000000E+04    0.5063056387E+00    0.3545341941E-01    0.9214965460E-01    0.1781550237E-01    0.5350880125E+00
    0.1300000000E+04    0.5261478006E+00    0.3167570334E-01    0.9290211858E-01    0.1851715801E-01    0.5401773545E+00
    0.1500000000E+04    0.5416868967E+00    0.2869740770E-01    0.9347254032E-01    0.1906724615E-01    0.5441239218E+00
    0.1700000000E+04    0.5541364479E+00    0.2630127382E-01    0.9392039323E-01    0.1950845125E-01    0.5472911295E+00
    0.1900000000E+04    0.5643026511E+00    0.2433800045E-01    0.9428157801E-01    0.1986914152E-01    0.5499004178E+00
    0.2100000000E+04    0.5727399015E+00    0.2270314135E-01    0.9457910891E-01    0.2016883231E-01    0.5520950244E+00
    0.2300000000E+04    0.5798405541E+00    0.2132216222E-01    0.9482845031E-01    0.2042134017E-01    0.5539720358E+00
    0.2500000000E+04    0.5858891877E+00    0.2014082061E-01    0.9504039473E-01    0.2063669015E-01    0.5555997805E+00
    0.2700000000E+04    0.5910966596E+00    0.1911890370E-01    0.9522271271E-01    0.2082231306E-01    0.5570278588E+00
    0.2900000000E+04    0.5956221581E+00    0.1822608406E-01    0.9538114708E-01    0.2098382093E-01    0.5582932217E+00
    0.3100000000E+04    0.5995878772E+00    0.1743912653E-01    0.9552003736E-01    0.2112552322E-01    0.5594240101E+00
    0.3300000000E+04    0.6030890153E+00    0.1673997124E-01    0.9564272596E-01    0.2125077861E-01    0.5604420656E+00
    0.3500000000E+04    0.6062007337E+00    0.1611439461E-01    0.9575183051E-01    0.2136223984E-01    0.5613646227E+00
    0.3700000000E+04    0.6089830924E+00    0.1555105842E-01    0.9584943112E-01    0.2146202750E-01    0.5622054789E+00
    0.3900000000E+04    0.6114846111E+00    0.1504082401E-01    0.9593720234E-01    0.2155185534E-01    0.5629758229E+00
    0.4100000000E+04    0.6137448784E+00    0.1457625029E-01    0.9601650782E-01    0.2163312223E-01    0.5636848316E+00
    0.4300000000E+04    0.6157964905E+00    0.1415122151E-01    0.9608846957E-01    0.2170698039E-01    0.5643401101E+00
    0.4500000000E+04    0.6176665118E+00    0.1376066761E-01    0.9615401947E-01    0.2177438687E-01    0.5649480187E+00
    0.4700000000E+04    0.6193775867E+00    0.1340035178E-01    0.9621393804E-01    0.2183614277E-01    0.5655139221E+00
    0.4900000000E+04    0.6209487967E+00    0.1306670727E-01    0.9626888409E-01    0.2189292336E-01    0.5660423794E+00
    0.1000000000E+04    0.4942144945E+00    0.3773666680E-01    0.9167484216E-01    0.1738827196E-01    0.5319310648E+00
    0.3000000000E+04    0.5976685009E+00    0.1782060461E-01    0.9545280666E-01    0.2105691886E-01    0.5588739479E+00
    0.5000000000E+04    0.6216871082E+00    0.1290892359E-01    0.9629467077E-01    0.2191963045E-01    0.5662938075E+00
    0.7000000000E+04    0.6319906072E+00    0.1061549512E-01    0.9664952415E-01    0.2229461468E-01    0.5700631233E+00
    0.9000000000E+04    0.6376611503E+00    0.9239447128E-02    0.9683460492E-01    0.2250374583E-01    0.5724298324E+00
    0.1100000000E+05    0.6412360879E+00    0.8299468865E-02    0.9694150972E-01    0.2263735360E-01    0.5740898426E+00
    0.1300000000E+05    0.6436913138E+00    0.7605137053E-02    0.9700650112E-01    0.2273033585E-01    0.5753366131E+00
    0.1500000000E+05    0.6454798065E+00    0.7064916349E-02    0.9704674468E-01    0.2279896399E-01    0.5763176051E+00
    0.1700000000E+05    0.6468398293E+00    0.6628818399E-02    0.9707137228E-01    0.2285183529E-01    0.5771159235E+00
    0.1900000000E+05    0.6479084482E+00    0.6266972049E-02    0.9708566060E-01    0.2289391792E-01    0.5777823773E+00
    0.2100000000E+05    0.6487700146E+00    0.5960292756E-02    0.9709285268E-01    0.2292828314E-01    0.5783499835E+00
    0.2300000000E+05    0.6494792468E+00    0.5695941817E-02    0.9709503918E-01    0.2295693231E-01    0.5788412402E+00
    0.2500000000E+05    0.6500731746E+00    0.5464920884E-02    0.9709362010E-01    0.2298122595E-01    0.5792720716E+00
    0.2700000000E+05    0.6505777435E+00    0.5260709455E-02    0.9708956233E-01    0.2300212162E-01    0.5796541055E+00
    0.2900000000E+05    0.6510116687E+00    0.5078450197E-02    0.9708355095E-01    0.2302031316E-01    0.5799960566E+00
    0.3100000000E+05    0.6513887865E+00    0.4914439552E-02    0.9707608174E-01    0.2303631586E-01    0.5803046014E+00
    0.3300000000E+05    0.6517195458E+00    0.4765797042E-02    0.9706752007E-01    0.2305052058E-01    0.5805849528E+00
    0.3500000000E+05    0.6520119839E+00    0.4630243602E-02    0.9705813930E-01    0.2306322934E-01    0.5808412484E+00
    0.3700000000E+05    0.6522723835E+00    0.4505948848E-02    0.9704814666E-01    0.2307467925E-01    0.5810768199E+00
    0.3900000000E+05    0.6525057264E+00    0.4391423283E-02    0.9703770098E-01    0.2308505919E-01    0.5812943843E+00
    0.4100000000E+05    0.6527160134E+00    0.4285440591E-02    0.9702692513E-01    0.2309452152E-01    0.5814961825E+00
    0.4300000000E+05    0.6529064945E+00    0.4186980573E-02    0.9701591497E-01    0.2310319053E-01    0.5816840818E+00
    0.4500000000E+05    0.6530798365E+00    0.4095186536E-02    0.9700474573E-01    0.2311116869E-01    0.5818596519E+00
    0.4700000000E+05    0.6532382485E+00    0.4009332985E-02    0.9699347680E-01    0.2311854123E-01    0.5820242240E+00
    0.4900000000E+05    0.6533835760E+00    0.3928800812E-02    0.9698215527E-01    0.2312537968E-01    0.5821789350E+00
    0.1000000000E+05    0.6396311860E+00    0.8730304743E-02    0.9689489742E-01    0.2257715469E-01    0.5733248288E+00
    0.3000000000E+05    0.6512066094E+00    0.4994360109E-02    0.9707997320E-01    0.2302856126E-01    0.5801541499E+00
    0.5000000000E+05    0.6534518284E+00    0.3890361021E-02    0.9697648678E-01    0.2312861789E-01    0.5822529035E+00
    0.7000000000E+05    0.6544036137E+00    0.3303854251E-02    0.9686619717E-01    0.2317607924E-01    0.5833932359E+00
    0.9000000000E+05    0.6549288879E+00    0.2925078818E-02    0.9676660416E-01    0.2320503587E-01    0.5841452158E+00
    0.1100000000E+06    0.6552614789E+00    0.2654316415E-02    0.9667813001E-01    0.2322512111E-01    0.5846934577E+00
    0.1300000000E+06    0.6554907529E+00    0.2448219856E-02    0.9659914769E-01    0.2324017773E-01    0.5851185950E+00
    0.1500000000E+06    0.6556582359E+00    0.2284479810E-02    0.9652802447E-01    0.2325206497E-01    0.5854623378E+00
    0.1700000000E+06    0.6557858423E+00    0.2150277837E-02    0.9646341794E-01    0.2326180247E-01    0.5857487830E+00
    0.1900000000E+06    0.6558862275E+00    0.2037650940E-02    0.9640426690E-01    0.2327000122E-01    0.5859929860E+00
    0.2100000000E+06    0.6559672093E+00    0.1941354856E-02    0.9634973490E-01    0.2327705228E-01    0.5862049210E+00
    0.2300000000E+06    0.6560338767E+00    0.1857775232E-02    0.9629915733E-01    0.2328321910E-01    0.5863915033E+00
    0.2500000000E+06    0.6560896851E+00    0.1784328660E-02    0.9625200002E-01    0.2328868655E-01    0.5865577059E+00
    0.2700000000E+06    0.6561370621E+00    0.1719112651E-02    0.9620782853E-01    0.2329358877E-01    0.5867072131E+00
    0.2900000000E+06    0.6561777634E+00    0.1660690779E-02    0.9616628539E-01    0.2329802582E-01    0.5868428234E+00
    0.3100000000E+06    0.6562130900E+00    0.1607955329E-02    0.9612707322E-01    0.2330207411E-01    0.5869667077E+00
    0.3300000000E+06    0.6562440261E+00    0.1560036408E-02    0.9608994222E-01    0.2330579317E-01    0.5870805810E+00
    0.3500000000E+06    0.6562713304E+00    0.1516240021E-02    0.9605468059E-01    0.2330923022E-01    0.5871858194E+00
    0.3700000000E+06    0.6562955964E+00    0.1476004791E-02    0.9602110728E-01    0.2331242325E-01    0.5872835423E+00
    0.3900000000E+06    0.6563172958E+00    0.1438871026E-02    0.9598906631E-01    0.2331540324E-01    0.5873746716E+00
    0.4100000000E+06    0.6563368076E+00    0.1404458178E-02    0.9595842241E-01    0.2331819579E-01    0.5874599749E+00
    0.4300000000E+06    0.6563544401E+00    0.1372448130E-02    0.9592905747E-01    0.2332082223E-01    0.5875400971E+00
    0.4500000000E+06    0.6563704463E+00    0.1342572599E-02    0.9590086781E-01    0.2332330055E-01    0.5876155851E+00
    0.4700000000E+06    0.6563850361E+00    0.1314603521E-02    0.9587376189E-01    0.2332564602E-01    0.5876869063E+00
    0.4900000000E+06    0.6563983849E+00    0.1288345609E-02    0.9584765850E-01    0.2332787172E-01    0.5877544630E+00
    0.1000000000E+06    0.6551119987E+00    0.2779620043E-02    0.9672107049E-01    0.2321587815E-01    0.5844384432E+00
    0.3000000000E+06    0.6561960308E+00    0.1633671358E-02    0.9614640453E-01    0.2330009450E-01    0.5869061150E+00
    0.5000000000E+06    0.6564046411E+00    0.1275804816E-02    0.9583495983E-01    0.2332894323E-01    0.5877869405E+00
    0.7000000000E+06    0.6564906541E+00    0.1083965750E-02    0.9561956751E-01    0.2334615727E-01    0.5883033495E+00
    0.9000000000E+06    0.6565365037E+00    0.9597048908E-03    0.9545442881E-01    0.2335837633E-01    0.5886619560E+00
    0.1100000000E+07    0.6565644183E+00    0.8707708702E-03    0.9532033342E-01    0.2336783211E-01    0.5889338168E+00
    0.1300000000E+07    0.6565828521E+00    0.8030409259E-03    0.9520736456E-01    0.2337553798E-01    0.5891513289E+00
    0.1500000000E+07    0.6565957057E+00    0.7492188783E-03    0.9510972180E-01    0.2338203780E-01    0.5893318263E+00
    0.1700000000E+07    0.6566050198E+00    0.7051032965E-03    0.9502371429E-01    0.2338765663E-01    0.5894856068E+00
    0.1900000000E+07    0.6566119617E+00    0.6680806595E-03    0.9494684598E-01    0.2339260404E-01    0.5896192593E+00
    0.2100000000E+07    0.6566172452E+00    0.6364282628E-03    0.9487734900E-01    0.2339702292E-01    0.5897372403E+00
    0.2300000000E+07    0.6566213298E+00    0.6089581382E-03    0.9481392491E-01    0.2340101503E-01    0.5898426974E+00
    0.2500000000E+07    0.6566245239E+00    0.5848208483E-03    0.9475559168E-01    0.2340465536E-01    0.5899379315E+00
    0.2700000000E+07    0.6566270415E+00    0.5633906882E-03    0.9470158838E-01    0.2340800078E-01    0.5900246731E+00
    0.2900000000E+07    0.6566290358E+00    0.5441951591E-03    0.9465131333E-01    0.2341109541E-01    0.5901042548E+00
    0.3100000000E+07    0.6566306184E+00    0.5268698511E-03    0.9460428248E-01    0.2341397417E-01    0.5901777233E+00
    0.3300000000E+07    0.6566318729E+00    0.5111285762E-03    0.9456010055E-01    0.2341666517E-01    0.5902459154E+00
    0.3500000000E+07    0.6566328629E+00    0.4967430098E-03    0.9451844055E-01    0.2341919138E-01    0.5903095097E+00
    0.3700000000E+07    0.6566336374E+00    0.4835284582E-03    0.9447902889E-01    0.2342157179E-01    0.5903690641E+00
    0.3900000000E+07    0.6566342347E+00    0.4713336850E-03    0.9444163430E-01    0.2342382230E-01    0.5904250422E+00
    0.4100000000E+07    0.6566346851E+00    0.4600334958E-03    0.9440605954E-01    0.2342595633E-01    0.5904778336E+00
    0.4300000000E+07    0.6566350132E+00    0.4495232379E-03    0.9437213504E-01    0.2342798535E-01    0.5905277684E+00
    0.4500000000E+07    0.6566352384E+00    0.4397146581E-03    0.9433971391E-01    0.2342991919E-01    0.5905751288E+00
    0.4700000000E+07    0.6566353770E+00    0.4305327365E-03    0.9430866808E-01    0.2343176638E-01    0.5906201579E+00
    0.4900000000E+07    0.6566354421E+00    0.4219132387E-03    0.9427888523E-01    0.2343353435E-01    0.5906630663E+00
    0.1000000000E+07    0.6565520139E+00    0.9119361640E-03    0.9538425331E-01    0.2336337052E-01    0.5888061997E+00
    0.3000000000E+07    0.6566298727E+00    0.5353181726E-03    0.9462741890E-01    0.2341255988E-01    0.5901416967E+00
    0.5000000000E+07    0.6566354506E+00    0.4177967943E-03    0.9426443599E-01    0.2343439069E-01    0.5906837836E+00
    0.7000000000E+07    0.6566336309E+00    0.3548465029E-03    0.9402284968E-01    0.2344858884E-01    0.5910212182E+00
    0.9000000000E+07    0.6566302672E+00    0.3140926322E-03    0.9384140253E-01    0.2345912907E-01    0.5912647512E+00
    0.1100000000E+08    0.6566266188E+00    0.2849359010E-03    0.9369601034E-01    0.2346751509E-01    0.5914546095E+00
    0.1300000000E+08    0.6566230426E+00    0.2627372515E-03    0.9357467951E-01    0.2347447980E-01    0.5916098387E+00
    0.1500000000E+08    0.6566196456E+00    0.2451009910E-03    0.9347055979E-01    0.2348043592E-01    0.5917409275E+00
    0.1700000000E+08    0.6566164530E+00    0.2306480359E-03    0.9337936679E-01    0.2348563901E-01    0.5918542535E+00
    0.1900000000E+08    0.6566134612E+00    0.2185207543E-03    0.9329824110E-01    0.2349025832E-01    0.5919539775E+00
    0.2100000000E+08    0.6566106562E+00    0.2081539687E-03    0.9322517877E-01    0.2349441178E-01    0.5920429611E+00
    0.2300000000E+08    0.6566080218E+00    0.1991580133E-03    0.9315872068E-01    0.2349818482E-01    0.5921232549E+00
    0.2500000000E+08    0.6566055417E+00    0.1912543124E-03    0.9309777126E-01    0.2350164135E-01    0.5921963772E+00
    0.2700000000E+08    0.6566032008E+00    0.1842376959E-03    0.9304148691E-01    0.2350483040E-01    0.5922634830E+00
