  Pressure (Pa) 22mC5-400 (mol/kg) 2mC6-400 (mol/kg) 3mC6-400 (mol/kg) 23mC5-400 (mol/kg) C7-400 (mol/kg)
    0.1000000000E+01    0.2642816681E-02    0.3177227613E-02    0.1584470309E-02    0.6496706315E-03    0.1714064722E-02
    0.3000000000E+01    0.7805544359E-02    0.9312749504E-02    0.4672461481E-02    0.1918820733E-02    0.5054993474E-02
    0.5000000000E+01    0.1281187244E-01    0.1517098464E-01    0.7657316355E-02    0.3149551776E-02    0.8284814729E-02
    0.7000000000E+01    0.1767019265E-01    0.2076831406E-01    0.1054443390E-01    0.4343924837E-02    0.1140933722E-01
    0.9000000000E+01    0.2238829001E-01    0.2611989415E-01    0.1333883760E-01    0.5503851996E-02    0.1443396595E-01
    0.1100000000E+02    0.2697339671E-01    0.3123976726E-01    0.1604520769E-01    0.6631109573E-02    0.1736373686E-01
    0.1300000000E+02    0.3143224043E-01    0.3614096074E-01    0.1866791008E-01    0.7727349973E-02    0.2020334794E-01
    0.1500000000E+02    0.3577108755E-01    0.4083557559E-01    0.2121102248E-01    0.8794112323E-02    0.2295718724E-01
    0.1700000000E+02    0.3999578217E-01    0.4533486610E-01    0.2367835789E-01    0.9832832033E-02    0.2562935816E-01
    0.1900000000E+02    0.4411178110E-01    0.4964931153E-01    0.2607348583E-01    0.1084484940E-01    0.2822370228E-01
    0.2100000000E+02    0.4812418557E-01    0.5378868065E-01    0.2839975159E-01    0.1183141740E-01    0.3074382003E-01
    0.2300000000E+02    0.5203776974E-01    0.5776208999E-01    0.3066029365E-01    0.1279370867E-01    0.3319308941E-01
    0.2500000000E+02    0.5585700667E-01    0.6157805657E-01    0.3285805950E-01    0.1373282190E-01    0.3557468301E-01
    0.2700000000E+02    0.5958609171E-01    0.6524454555E-01    0.3499582003E-01    0.1464978757E-01    0.3789158350E-01
    0.2900000000E+02    0.6322896387E-01    0.6876901354E-01    0.3707618265E-01    0.1554557323E-01    0.4014659768E-01
    0.3100000000E+02    0.6678932517E-01    0.7215844787E-01    0.3910160323E-01    0.1642108818E-01    0.4234236937E-01
    0.3300000000E+02    0.7027065829E-01    0.7541940236E-01    0.4107439702E-01    0.1727718789E-01    0.4448139112E-01
    0.3500000000E+02    0.7367624270E-01    0.7855802983E-01    0.4299674864E-01    0.1811467789E-01    0.4656601495E-01
    0.3700000000E+02    0.7700916932E-01    0.8158011184E-01    0.4487072121E-01    0.1893431742E-01    0.4859846219E-01
    0.3900000000E+02    0.8027235400E-01    0.8449108578E-01    0.4669826474E-01    0.1973682272E-01    0.5058083246E-01
    0.4100000000E+02    0.8346854982E-01    0.8729606971E-01    0.4848122383E-01    0.2052287003E-01    0.5251511202E-01
    0.4300000000E+02    0.8660035838E-01    0.8999988499E-01    0.5022134475E-01    0.2129309841E-01    0.5440318130E-01
    0.4500000000E+02    0.8967024016E-01    0.9260707718E-01    0.5192028193E-01    0.2204811225E-01    0.5624682194E-01
    0.4700000000E+02    0.9268052404E-01    0.9512193510E-01    0.5357960399E-01    0.2278848362E-01    0.5804772322E-01
    0.4900000000E+02    0.9563341609E-01    0.9754850838E-01    0.5520079925E-01    0.2351475442E-01    0.5980748806E-01
    0.1000000000E+02    0.2469703542E-01    0.2870795716E-01    0.1470274693E-01    0.6071458433E-02    0.1591040743E-01
    0.3000000000E+02    0.6501923576E-01    0.7048019054E-01    0.3809561281E-01    0.1598580986E-01    0.4125172964E-01
    0.5000000000E+02    0.9708899798E-01    0.9872989239E-01    0.5599754374E-01    0.2387276368E-01    0.6067242295E-01
    0.7000000000E+02    0.1236420918E+00    0.1185482867E+00    0.7023889897E-01    0.3040432167E-01    0.7614335013E-01
    0.9000000000E+02    0.1462791243E+00    0.1328176216E+00    0.8190802339E-01    0.3597367053E-01    0.8883695624E-01
    0.1100000000E+03    0.1660029167E+00    0.1432803310E+00    0.9169425650E-01    0.4082716282E-01    0.9949619095E-01
    0.1300000000E+03    0.1834767677E+00    0.1510452173E+00    0.1000564139E+00    0.4512775034E-01    0.1086157750E+00
    0.1500000000E+03    0.1991592189E+00    0.1568474840E+00    0.1073123422E+00    0.4898808609E-01    0.1165385804E+00
    0.1700000000E+03    0.2133791437E+00    0.1611912911E+00    0.1136896130E+00    0.5248896892E-01    0.1235102027E+00
    0.1900000000E+03    0.2263798901E+00    0.1644321672E+00    0.1193557313E+00    0.5569018704E-01    0.1297114914E+00
    0.2100000000E+03    0.2383464160E+00    0.1668268041E+00    0.1244369255E+00    0.5863718382E-01    0.1352787888E+00
    0.2300000000E+03    0.2494226128E+00    0.1685642891E+00    0.1290302665E+00    0.6136531366E-01    0.1403169874E+00
    0.2500000000E+03    0.2597227316E+00    0.1697863313E+00    0.1332117312E+00    0.6390264887E-01    0.1449082199E+00
    0.2700000000E+03    0.2693391343E+00    0.1706007289E+00    0.1370417146E+00    0.6627188397E-01    0.1491178013E+00
    0.2900000000E+03    0.2783476851E+00    0.1710905566E+00    0.1405688884E+00    0.6849166030E-01    0.1529983896E+00
    0.3100000000E+03    0.2868115844E+00    0.1713205672E+00    0.1438329587E+00    0.7057750778E-01    0.1565929604E+00
    0.3300000000E+03    0.2947841484E+00    0.1713417392E+00    0.1468666745E+00    0.7254252799E-01    0.1599369732E+00
    0.3500000000E+03    0.3023108626E+00    0.1711945615E+00    0.1496973150E+00    0.7439789851E-01    0.1630599768E+00
    0.3700000000E+03    0.3094309214E+00    0.1709114420E+00    0.1523478077E+00    0.7615325135E-01    0.1659868157E+00
    0.3900000000E+03    0.3161784024E+00    0.1705184988E+00    0.1548375802E+00    0.7781696124E-01    0.1687385501E+00
    0.4100000000E+03    0.3225831714E+00    0.1700369089E+00    0.1571832176E+00    0.7939636821E-01    0.1713331659E+00
    0.4300000000E+03    0.3286715916E+00    0.1694839341E+00    0.1593989757E+00    0.8089795169E-01    0.1737861285E+00
    0.4500000000E+03    0.3344670841E+00    0.1688737107E+00    0.1614971853E+00    0.8232746821E-01    0.1761108203E+00
    0.4700000000E+03    0.3399905765E+00    0.1682178626E+00    0.1634885744E+00    0.8369006167E-01    0.1783188884E+00
    0.4900000000E+03    0.3452608653E+00    0.1675259812E+00    0.1653825271E+00    0.8499035240E-01    0.1804205246E+00
    0.1000000000E+03    0.1564577340E+00    0.1384444781E+00    0.8700372621E-01    0.3847824398E-01    0.9438553506E-01
    0.3000000000E+03    0.2826441793E+00    0.1712345736E+00    0.1422316212E+00    0.6955045602E-01    0.1548290559E+00
    0.5000000000E+03    0.3478064237E+00    0.1671690644E+00    0.1662955821E+00    0.8561845309E-01    0.1814342743E+00
    0.7000000000E+03    0.3887982675E+00    0.1594698801E+00    0.1810027524E+00    0.9573900320E-01    0.1978192797E+00
    0.9000000000E+03    0.4167986011E+00    0.1521304484E+00    0.1913704490E+00    0.1026605714E+00    0.2094413771E+00
    0.1100000000E+04    0.4369582739E+00    0.1457043417E+00    0.1992754944E+00    0.1076501972E+00    0.2183493079E+00
    0.1300000000E+04    0.4520521864E+00    0.1401440351E+00    0.2056083418E+00    0.1113908054E+00    0.2255181617E+00
    0.1500000000E+04    0.4637085940E+00    0.1353062552E+00    0.2108569255E+00    0.1142833126E+00    0.2314837652E+00
    0.1700000000E+04    0.4729406592E+00    0.1310555448E+00    0.2153158961E+00    0.1165772988E+00    0.2365705242E+00
    0.1900000000E+04    0.4804079785E+00    0.1272820190E+00    0.2191760965E+00    0.1184353207E+00    0.2409890515E+00
    0.2100000000E+04    0.4865561130E+00    0.1238998925E+00    0.2225678502E+00    0.1199672351E+00    0.2448834870E+00
    0.2300000000E+04    0.4916955329E+00    0.1208425655E+00    0.2255839117E+00    0.1212496250E+00    0.2483566286E+00
    0.2500000000E+04    0.4960484102E+00    0.1180580118E+00    0.2282925269E+00    0.1223373175E+00    0.2514842570E+00
    0.2700000000E+04    0.4997774454E+00    0.1155051574E+00    0.2307452966E+00    0.1232704812E+00    0.2543237738E+00
    0.2900000000E+04    0.5030042236E+00    0.1131511847E+00    0.2329821352E+00    0.1240791473E+00    0.2569196562E+00
    0.3100000000E+04    0.5058212443E+00    0.1109695542E+00    0.2350345189E+00    0.1247861734E+00    0.2593070361E+00
    0.3300000000E+04    0.5083000079E+00    0.1089385545E+00    0.2369276845E+00    0.1254092357E+00    0.2615141248E+00
    0.3500000000E+04    0.5104965752E+00    0.1070402298E+00    0.2386821594E+00    0.1259622001E+00    0.2635639034E+00
    0.3700000000E+04    0.5124554685E+00    0.1052595809E+00    0.2403148520E+00    0.1264560835E+00    0.2654753279E+00
    0.3900000000E+04    0.5142124580E+00    0.1035839619E+00    0.2418398457E+00    0.1268997412E+00    0.2672642091E+00
    0.4100000000E+04    0.5157965864E+00    0.1020026204E+00    0.2432689874E+00    0.1273003666E+00    0.2689438644E+00
    0.4300000000E+04    0.5172316613E+00    0.1005063424E+00    0.2446123315E+00    0.1276638590E+00    0.2705256106E+00
    0.4500000000E+04    0.5185373709E+00    0.9908717607E-01    0.2458784798E+00    0.1279950992E+00    0.2720191410E+00
    0.4700000000E+04    0.5197301286E+00    0.9773821339E-01    0.2470748445E+00    0.1282981585E+00    0.2734328186E+00
    0.4900000000E+04    0.5208237195E+00    0.9645341709E-01    0.2482078548E+00    0.1285764575E+00    0.2747739057E+00
    0.1000000000E+04    0.4276489773E+00    0.1488014911E+00    0.1955618146E+00    0.1053453143E+00    0.2141591307E+00
    0.3000000000E+04    0.5044590677E+00    0.1120402827E+00    0.2340296809E+00    0.1244441576E+00    0.2581375062E+00
    0.5000000000E+04    0.5213370423E+00    0.9583339795E-01    0.2487523835E+00    0.1287072441E+00    0.2754192421E+00
    0.7000000000E+04    0.5284623414E+00    0.8579616436E-01    0.2573672869E+00    0.1305362217E+00    0.2857052216E+00
    0.9000000000E+04    0.5323503890E+00    0.7868376425E-01    0.2632480259E+00    0.1315506343E+00    0.2928218101E+00
    0.1100000000E+05    0.5347867313E+00    0.7326139855E-01    0.2676097794E+00    0.1321967624E+00    0.2981608601E+00
    0.1300000000E+05    0.5364516318E+00    0.6893040023E-01    0.2710192941E+00    0.1326455652E+00    0.3023765850E+00
    0.1500000000E+05    0.5376590165E+00    0.6535690115E-01    0.2737832509E+00    0.1329763709E+00    0.3058253451E+00
    0.1700000000E+05    0.5385733359E+00    0.6233666980E-01    0.2760847268E+00    0.1332309652E+00    0.3087211194E+00
    0.1900000000E+05    0.5392888983E+00    0.5973623202E-01    0.2780409643E+00    0.1334334438E+00    0.3112016639E+00
    0.2100000000E+05    0.5398635926E+00    0.5746389379E-01    0.2797311274E+00    0.1335986795E+00    0.3133604445E+00
    0.2300000000E+05    0.5403348885E+00    0.5545415193E-01    0.2812109295E+00    0.1337363521E+00    0.3152635357E+00
    0.2500000000E+05    0.5407280933E+00    0.5365871489E-01    0.2825209102E+00    0.1338530359E+00    0.3169592184E+00
    0.2700000000E+05    0.5410609071E+00    0.5204104295E-01    0.2836913889E+00    0.1339533545E+00    0.3184837451E+00
    0.2900000000E+05    0.5413460759E+00    0.5057287879E-01    0.2847455695E+00    0.1340406559E+00    0.3198649643E+00
    0.3100000000E+05    0.5415930084E+00    0.4923196022E-01    0.2857015610E+00    0.1341174251E+00    0.3211246881E+00
    0.3300000000E+05    0.5418087989E+00    0.4800046482E-01    0.2865737370E+00    0.1341855462E+00    0.3222802883E+00
    0.3500000000E+05    0.5419988964E+00    0.4686392371E-01    0.2873736748E+00    0.1342464744E+00    0.3233458031E+00
    0.3700000000E+05    0.5421675542E+00    0.4581044522E-01    0.2881108208E+00    0.1343013517E+00    0.3243327229E+00
    0.3900000000E+05    0.5423181405E+00    0.4483014860E-01    0.2887929710E+00    0.1343510876E+00    0.3252505595E+00
    0.4100000000E+05    0.5424533564E+00    0.4391474367E-01    0.2894266254E+00    0.1343964153E+00    0.3261072672E+00
    0.4300000000E+05    0.5425753929E+00    0.4305721358E-01    0.2900172537E+00    0.1344379330E+00    0.3269095579E+00
    0.4500000000E+05    0.5426860461E+00    0.4225157205E-01    0.2905694963E+00    0.1344761336E+00    0.3276631420E+00
    0.4700000000E+05    0.5427868014E+00    0.4149267519E-01    0.2910873200E+00    0.1345114270E+00    0.3283729142E+00
    0.4900000000E+05    0.5428788982E+00    0.4077607387E-01    0.2915741391E+00    0.1345441571E+00    0.3290430981E+00
    0.1000000000E+05    0.5336945905E+00    0.7580745085E-01    0.2655747012E+00    0.1319058227E+00    0.2956627508E+00
    0.3000000000E+05    0.5414738332E+00    0.4988771722E-01    0.2852348656E+00    0.1340802276E+00    0.3205088382E+00
    0.5000000000E+05    0.5429220320E+00    0.4043240437E-01    0.2918068616E+00    0.1345596535E+00    0.3293645097E+00
    0.7000000000E+05    0.5435132845E+00    0.3505861643E-01    0.2953798622E+00    0.1347866062E+00    0.3343950176E+00
    0.9000000000E+05    0.5438274130E+00    0.3145783642E-01    0.2976988404E+00    0.1349249015E+00    0.3377788813E+00
    0.1100000000E+06    0.5440186821E+00    0.2882084860E-01    0.2993539026E+00    0.1350207485E+00    0.3402700797E+00
    0.1300000000E+06    0.5441452966E+00    0.2677824994E-01    0.3006078921E+00    0.1350925576E+00    0.3422108310E+00
    0.1500000000E+06    0.5442339648E+00    0.2513351826E-01    0.3015980075E+00    0.1351492278E+00    0.3437827070E+00
    0.1700000000E+06    0.5442986061E+00    0.2377094214E-01    0.3024037722E+00    0.1351956361E+00    0.3450925033E+00
    0.1900000000E+06    0.5443471595E+00    0.2261725816E-01    0.3030748627E+00    0.1352347027E+00    0.3462078323E+00
    0.2100000000E+06    0.5443844678E+00    0.2162346783E-01    0.3036441091E+00    0.1352682956E+00    0.3471739363E+00
    0.2300000000E+06    0.5444136444E+00    0.2075536632E-01    0.3041341857E+00    0.1352976728E+00    0.3480224277E+00
    0.2500000000E+06    0.5444367762E+00    0.1998823817E-01    0.3045613165E+00    0.1353237168E+00    0.3487761758E+00
    0.2700000000E+06    0.5444553110E+00    0.1930371074E-01    0.3049374536E+00    0.1353470673E+00    0.3494522052E+00
    0.2900000000E+06    0.5444702823E+00    0.1868779792E-01    0.3052716191E+00    0.1353682018E+00    0.3500634954E+00
    0.3100000000E+06    0.5444824458E+00    0.1812963550E-01    0.3055707661E+00    0.1353874845E+00    0.3506201453E+00
    0.3300000000E+06    0.5444923660E+00    0.1762063625E-01    0.3058403496E+00    0.1354051994E+00    0.3511301507E+00
    0.3500000000E+06    0.5445004720E+00    0.1715390913E-01    0.3060847159E+00    0.1354215712E+00    0.3515999395E+00
    0.3700000000E+06    0.5445070951E+00    0.1672385030E-01    0.3063073759E+00    0.1354367812E+00    0.3520347481E+00
    0.3900000000E+06    0.5445124949E+00    0.1632584869E-01    0.3065111996E+00    0.1354509769E+00    0.3524388929E+00
    0.4100000000E+06    0.5445168772E+00    0.1595607011E-01    0.3066985588E+00    0.1354642802E+00    0.3528159699E+00
    0.4300000000E+06    0.5445204070E+00    0.1561129621E-01    0.3068714323E+00    0.1354767928E+00    0.3531690027E+00
    0.4500000000E+06    0.5445232178E+00    0.1528880250E-01    0.3070314858E+00    0.1354886004E+00    0.3535005558E+00
    0.4700000000E+06    0.5445254188E+00    0.1498626475E-01    0.3071801320E+00    0.1354997756E+00    0.3538128209E+00
    0.4900000000E+06    0.5445270998E+00    0.1470168616E-01    0.3073185784E+00    0.1355103806E+00    0.3541076843E+00
    0.1000000000E+06    0.5439336543E+00    0.3004774585E-01    0.2985886954E+00    0.1349766490E+00    0.3391092848E+00
    0.3000000000E+06    0.5444766760E+00    0.1840208016E-01    0.3054251991E+00    0.1353780553E+00    0.3503481085E+00
    0.5000000000E+06    0.5445277691E+00    0.1456558278E-01    0.3073843068E+00    0.1355154865E+00    0.3542491096E+00
    0.7000000000E+06    0.5445266407E+00    0.1246825256E-01    0.3083529019E+00    0.1355975348E+00    0.3564661101E+00
    0.9000000000E+06    0.5445134135E+00    0.1109415097E-01    0.3089340870E+00    0.1356558078E+00    0.3579654839E+00
    0.1100000000E+07    0.5444970230E+00    0.1010301194E-01    0.3093203515E+00    0.1357009249E+00    0.3590768449E+00
    0.1300000000E+07    0.5444801701E+00    0.9343802924E-02    0.3095938386E+00    0.1357377083E+00    0.3599488500E+00
    0.1500000000E+07    0.5444637795E+00    0.8737747225E-02    0.3097959349E+00    0.1357687462E+00    0.3606601550E+00
    0.1700000000E+07    0.5444481646E+00    0.8239150824E-02    0.3099498995E+00    0.1357955859E+00    0.3612569836E+00
    0.1900000000E+07    0.5444334059E+00    0.7819423981E-02    0.3100698619E+00    0.1358192252E+00    0.3617686081E+00
    0.2100000000E+07    0.5444194908E+00    0.7459631263E-02    0.3101649225E+00    0.1358403445E+00    0.3622146349E+00
    0.2300000000E+07    0.5444063705E+00    0.7146661930E-02    0.3102412162E+00    0.1358594284E+00    0.3626087833E+00
    0.2500000000E+07    0.5443939844E+00    0.6871108632E-02    0.3103030333E+00    0.1358768344E+00    0.3629609956E+00
    0.2700000000E+07    0.5443822705E+00    0.6626020669E-02    0.3103534651E+00    0.1358928332E+00    0.3632786874E+00
    0.2900000000E+07    0.5443711699E+00    0.6406135083E-02    0.3103947965E+00    0.1359076352E+00    0.3635675241E+00
    0.3100000000E+07    0.5443606286E+00    0.6207383087E-02    0.3104287521E+00    0.1359214069E+00    0.3638319234E+00
    0.3300000000E+07    0.5443505977E+00    0.6026562324E-02    0.3104566580E+00    0.1359342822E+00    0.3640753909E+00
    0.3500000000E+07    0.5443410336E+00    0.5861112875E-02    0.3104795503E+00    0.1359463707E+00    0.3643007512E+00
    0.3700000000E+07    0.5443318973E+00    0.5708960264E-02    0.3104982497E+00    0.1359577630E+00    0.3645103103E+00
    0.3900000000E+07    0.5443231541E+00    0.5568402992E-02    0.3105134143E+00    0.1359685348E+00    0.3647059739E+00
    0.4100000000E+07    0.5443147728E+00    0.5438030393E-02    0.3105255781E+00    0.1359787504E+00    0.3648893328E+00
    0.4300000000E+07    0.5443067259E+00    0.5316661591E-02    0.3105351780E+00    0.1359884642E+00    0.3650617281E+00
    0.4500000000E+07    0.5442989885E+00    0.5203299433E-02    0.3105425751E+00    0.1359977232E+00    0.3652242994E+00
    0.4700000000E+07    0.5442915383E+00    0.5097095250E-02    0.3105480702E+00    0.1360065683E+00    0.3653780232E+00
    0.4900000000E+07    0.5442843553E+00    0.4997321536E-02    0.3105519155E+00    0.1360150347E+00    0.3655237415E+00
    0.1000000000E+07    0.5445053789E+00    0.1056259088E-01    0.3091450591E+00    0.1356796344E+00    0.3585580212E+00
    0.3000000000E+07    0.5443658325E+00    0.6304334818E-02    0.3104126055E+00    0.1359146408E+00    0.3637025410E+00
    0.5000000000E+07    0.5442808583E+00    0.4949646528E-02    0.3105532874E+00    0.1360191358E+00    0.3655938309E+00
    0.7000000000E+07    0.5442213710E+00    0.4218471328E-02    0.3105316894E+00    0.1360871561E+00    0.3667110586E+00
    0.9000000000E+07    0.5441756777E+00    0.3742933227E-02    0.3104657731E+00    0.1361376803E+00    0.3674892814E+00
    0.1100000000E+08    0.5441385947E+00    0.3401620651E-02    0.3103861515E+00    0.1361778945E+00    0.3680800939E+00
    0.1300000000E+08    0.5441073931E+00    0.3141124826E-02    0.3103032950E+00    0.1362113032E+00    0.3685531034E+00
    0.1500000000E+08    0.5440804629E+00    0.2933763532E-02    0.3102212764E+00    0.1362398809E+00    0.3689457180E+00
    0.1700000000E+08    0.5440567752E+00    0.2763556296E-02    0.3101417428E+00    0.1362648508E+00    0.3692802268E+00
    0.1900000000E+08    0.5440356328E+00    0.2620542290E-02    0.3100653185E+00    0.1362870231E+00    0.3695709213E+00
    0.2100000000E+08    0.5440165417E+00    0.2498144762E-02    0.3099921683E+00    0.1363069623E+00    0.3698274827E+00
    0.2300000000E+08    0.5439991387E+00    0.2391821895E-02    0.3099222462E+00    0.1363250778E+00    0.3700567559E+00
    0.2500000000E+08    0.5439831495E+00    0.2298322076E-02    0.3098554106E+00    0.1363416757E+00    0.3702637492E+00
    0.2700000000E+08    0.5439683616E+00    0.2215247491E-02    0.3097914810E+00    0.1363569909E+00    0.3704522317E+00
