  Pressure (Pa) 22mC5-400 (mol/kg) 2mC6-400 (mol/kg) 3mC6-400 (mol/kg) 23mC5-400 (mol/kg) C7-400 (mol/kg)
    0.1000000000E+01    0.2644124125E-02    0.2386744049E-02    0.1058150048E-02    0.8357039534E-03    0.1717031986E-02
    0.3000000000E+01    0.7816808512E-02    0.7017674541E-02    0.3130963898E-02    0.2470614664E-02    0.5080829118E-02
    0.5000000000E+01    0.1284184459E-01    0.1146680645E-01    0.5147868832E-02    0.4058894966E-02    0.8354282167E-02
    0.7000000000E+01    0.1772650113E-01    0.1574349644E-01    0.7111227833E-02    0.5602840094E-02    0.1154120469E-01
    0.9000000000E+01    0.2247756517E-01    0.1985648944E-01    0.9023270854E-02    0.7104593173E-02    0.1464519567E-01
    0.1100000000E+02    0.2710138112E-01    0.2381396716E-01    0.1088610409E-01    0.8566157585E-02    0.1766965451E-01
    0.1300000000E+02    0.3160388629E-01    0.2762359223E-01    0.1270171847E-01    0.9989408168E-02    0.2061779467E-01
    0.1500000000E+02    0.3599064294E-01    0.3129254816E-01    0.1447199750E-01    0.1137610135E-01    0.2349265633E-01
    0.1700000000E+02    0.4026686743E-01    0.3482757575E-01    0.1619872441E-01    0.1272788433E-01    0.2629711794E-01
    0.1900000000E+02    0.4443745673E-01    0.3823500623E-01    0.1788358878E-01    0.1404630348E-01    0.2903390690E-01
    0.2100000000E+02    0.4850701243E-01    0.4152079152E-01    0.1952819266E-01    0.1533281190E-01    0.3170560936E-01
    0.2300000000E+02    0.5247986278E-01    0.4469053180E-01    0.2113405617E-01    0.1658877637E-01    0.3431467933E-01
    0.2500000000E+02    0.5636008265E-01    0.4774950080E-01    0.2270262269E-01    0.1781548368E-01    0.3686344705E-01
    0.2700000000E+02    0.6015151187E-01    0.5070266889E-01    0.2423526369E-01    0.1901414640E-01    0.3935412670E-01
    0.2900000000E+02    0.6385777196E-01    0.5355472432E-01    0.2573328317E-01    0.2018590818E-01    0.4178882362E-01
    0.3100000000E+02    0.6748228148E-01    0.5631009262E-01    0.2719792175E-01    0.2133184855E-01    0.4416954094E-01
    0.3300000000E+02    0.7102827007E-01    0.5897295454E-01    0.2863036055E-01    0.2245298743E-01    0.4649818574E-01
    0.3500000000E+02    0.7449879143E-01    0.6154726246E-01    0.3003172468E-01    0.2355028916E-01    0.4877657476E-01
    0.3700000000E+02    0.7789673511E-01    0.6403675554E-01    0.3140308658E-01    0.2462466624E-01    0.5100643974E-01
    0.3900000000E+02    0.8122483752E-01    0.6644497374E-01    0.3274546907E-01    0.2567698284E-01    0.5318943235E-01
    0.4100000000E+02    0.8448569195E-01    0.6877527066E-01    0.3405984818E-01    0.2670805792E-01    0.5532712880E-01
    0.4300000000E+02    0.8768175790E-01    0.7103082544E-01    0.3534715585E-01    0.2771866820E-01    0.5742103410E-01
    0.4500000000E+02    0.9081536960E-01    0.7321465386E-01    0.3660828239E-01    0.2870955083E-01    0.5947258613E-01
    0.4700000000E+02    0.9388874399E-01    0.7532961846E-01    0.3784407878E-01    0.2968140594E-01    0.6148315927E-01
    0.4900000000E+02    0.9690398803E-01    0.7737843802E-01    0.3905535885E-01    0.3063489892E-01    0.6345406796E-01
    0.1000000000E+02    0.2480499893E-01    0.2185417712E-01    0.9960711654E-02    0.7840278896E-02    0.1616716156E-01
    0.3000000000E+02    0.6568003942E-01    0.5494422753E-01    0.2646969990E-01    0.2076204095E-01    0.4298580836E-01
    0.5000000000E+02    0.9839044120E-01    0.7837885589E-01    0.3965204992E-01    0.3110495859E-01    0.6442504332E-01
    0.7000000000E+02    0.1255060609E+00    0.9547877922E-01    0.5047131300E-01    0.3968059261E-01    0.8204088815E-01
    0.9000000000E+02    0.1485810434E+00    0.1082375990E+00    0.5954734639E-01    0.4697976825E-01    0.9683471101E-01
    0.1100000000E+03    0.1686136731E+00    0.1179181069E+00    0.6729762700E-01    0.5331777524E-01    0.1094811855E+00
    0.1300000000E+03    0.1862771871E+00    0.1253550561E+00    0.7401401921E-01    0.5890725168E-01    0.1204521569E+00
    0.1500000000E+03    0.2020442768E+00    0.1311197530E+00    0.7990698806E-01    0.6389749990E-01    0.1300879973E+00
    0.1700000000E+03    0.2162582837E+00    0.1356146161E+00    0.8513231797E-01    0.6839697005E-01    0.1386407364E+00
    0.1900000000E+03    0.2291759330E+00    0.1391300447E+00    0.8980792382E-01    0.7248675569E-01    0.1463012052E+00
    0.2100000000E+03    0.2409940519E+00    0.1418799625E+00    0.9402479772E-01    0.7622903198E-01    0.1532167144E+00
    0.2300000000E+03    0.2518668705E+00    0.1440247726E+00    0.9785435121E-01    0.7967251975E-01    0.1595029149E+00
    0.2500000000E+03    0.2619175698E+00    0.1456866109E+00    0.1013534684E+00    0.8285613281E-01    0.1652519619E+00
    0.2700000000E+03    0.2712461982E+00    0.1469597334E+00    0.1045680634E+00    0.8581147836E-01    0.1705382638E+00
    0.2900000000E+03    0.2799352296E+00    0.1479177457E+00    0.1075356357E+00    0.8856461235E-01    0.1754226130E+00
    0.3100000000E+03    0.2880535477E+00    0.1486187330E+00    0.1102871390E+00    0.9113729803E-01    0.1799552064E+00
    0.3300000000E+03    0.2956593586E+00    0.1491089616E+00    0.1128483697E+00    0.9354792588E-01    0.1841778915E+00
    0.3500000000E+03    0.3028023565E+00    0.1494255923E+00    0.1152410142E+00    0.9581219773E-01    0.1881258604E+00
    0.3700000000E+03    0.3095253611E+00    0.1495986966E+00    0.1174834492E+00    0.9794364373E-01    0.1918289436E+00
    0.3900000000E+03    0.3158655718E+00    0.1496527732E+00    0.1195913605E+00    0.9995401876E-01    0.1953126116E+00
    0.4100000000E+03    0.3218555432E+00    0.1496079029E+00    0.1215782264E+00    0.1018536105E+00    0.1985987582E+00
    0.4300000000E+03    0.3275239529E+00    0.1494806355E+00    0.1234557006E+00    0.1036514817E+00    0.2017063185E+00
    0.4500000000E+03    0.3328962120E+00    0.1492846792E+00    0.1252339162E+00    0.1053556634E+00    0.2046517628E+00
    0.4700000000E+03    0.3379949571E+00    0.1490314395E+00    0.1269217313E+00    0.1069733100E+00    0.2074494930E+00
    0.4900000000E+03    0.3428404494E+00    0.1487304454E+00    0.1285269271E+00    0.1085108255E+00    0.2101121648E+00
    0.1000000000E+03    0.1589297625E+00    0.1134028206E+00    0.6356764947E-01    0.5025379229E-01    0.1033931381E+00
    0.3000000000E+03    0.2840618681E+00    0.1482972346E+00    0.1089366765E+00    0.8987229175E-01    0.1777300901E+00
    0.5000000000E+03    0.3451739900E+00    0.1485645897E+00    0.1293007207E+00    0.1092513562E+00    0.2113963967E+00
    0.7000000000E+03    0.3821397516E+00    0.1441173644E+00    0.1417467017E+00    0.1209902027E+00    0.2321190894E+00
    0.9000000000E+03    0.4067459329E+00    0.1391497555E+00    0.1504802397E+00    0.1288152609E+00    0.2467470183E+00
    0.1100000000E+04    0.4241639789E+00    0.1344840349E+00    0.1571054635E+00    0.1343624171E+00    0.2579005909E+00
    0.1300000000E+04    0.4370604020E+00    0.1302616575E+00    0.1623880463E+00    0.1384756265E+00    0.2668340592E+00
    0.1500000000E+04    0.4469468642E+00    0.1264646157E+00    0.1667479041E+00    0.1416335818E+00    0.2742370522E+00
    0.1700000000E+04    0.4547396425E+00    0.1230407743E+00    0.1704382623E+00    0.1441265853E+00    0.2805264310E+00
    0.1900000000E+04    0.4610235396E+00    0.1199366822E+00    0.1736227463E+00    0.1461400122E+00    0.2859721529E+00
    0.2100000000E+04    0.4661876841E+00    0.1171056162E+00    0.1764127853E+00    0.1477972734E+00    0.2907584420E+00
    0.2300000000E+04    0.4705001205E+00    0.1145086107E+00    0.1788874592E+00    0.1491834210E+00    0.2950162958E+00
    0.2500000000E+04    0.4741509725E+00    0.1121135986E+00    0.1811047881E+00    0.1503588126E+00    0.2988420036E+00
    0.2700000000E+04    0.4772785251E+00    0.1098942015E+00    0.1831085215E+00    0.1513673712E+00    0.3023082995E+00
    0.2900000000E+04    0.4799855743E+00    0.1078286134E+00    0.1849324131E+00    0.1522417639E+00    0.3054713931E+00
    0.3100000000E+04    0.4823500073E+00    0.1058986804E+00    0.1866030159E+00    0.1530067552E+00    0.3083755739E+00
    0.3300000000E+04    0.4844318408E+00    0.1040891705E+00    0.1881415709E+00    0.1536814369E+00    0.3110563251E+00
    0.3500000000E+04    0.4862780189E+00    0.1023872024E+00    0.1895653179E+00    0.1542807506E+00    0.3135424884E+00
    0.3700000000E+04    0.4879257554E+00    0.1007817992E+00    0.1908884290E+00    0.1548165466E+00    0.3158578066E+00
    0.3900000000E+04    0.4894049086E+00    0.9926353982E-01    0.1921226860E+00    0.1552983382E+00    0.3180220451E+00
    0.4100000000E+04    0.4907396973E+00    0.9782428327E-01    0.1932779823E+00    0.1557338459E+00    0.3200518231E+00
    0.4300000000E+04    0.4919499612E+00    0.9645695086E-01    0.1943627005E+00    0.1561293974E+00    0.3219612394E+00
    0.4500000000E+04    0.4930521002E+00    0.9515535149E-01    0.1953840007E+00    0.1564902264E+00    0.3237623518E+00
    0.4700000000E+04    0.4940597833E+00    0.9391404111E-01    0.1963480435E+00    0.1568206972E+00    0.3254655476E+00
    0.4900000000E+04    0.4949844896E+00    0.9272820850E-01    0.1972601656E+00    0.1571244769E+00    0.3270798345E+00
    0.1000000000E+04    0.4161498359E+00    0.1367638236E+00    0.1539971068E+00    0.1318091352E+00    0.2526610586E+00
    0.3000000000E+04    0.4812065127E+00    0.1068477031E+00    0.1857854411E+00    0.1526366291E+00    0.3069534526E+00
    0.5000000000E+04    0.4954188201E+00    0.9215474259E-01    0.1976982332E+00    0.1572673464E+00    0.3278561326E+00
    0.7000000000E+04    0.5014697935E+00    0.8277475388E-01    0.2046025137E+00    0.1592739868E+00    0.3401854907E+00
    0.9000000000E+04    0.5047932280E+00    0.7603789135E-01    0.2092863673E+00    0.1603957396E+00    0.3486671862E+00
    0.1100000000E+05    0.5068854290E+00    0.7086381144E-01    0.2127443107E+00    0.1611144599E+00    0.3550037894E+00
    0.1300000000E+05    0.5083198716E+00    0.6671226960E-01    0.2154372583E+00    0.1616159389E+00    0.3599906645E+00
    0.1500000000E+05    0.5093625861E+00    0.6327641447E-01    0.2176134699E+00    0.1619868814E+00    0.3640591287E+00
    0.1700000000E+05    0.5101535417E+00    0.6036628804E-01    0.2194206063E+00    0.1622731798E+00    0.3674672655E+00
    0.1900000000E+05    0.5107732984E+00    0.5785670821E-01    0.2209529439E+00    0.1625014059E+00    0.3703807493E+00
    0.2100000000E+05    0.5112714563E+00    0.5566115336E-01    0.2222739757E+00    0.1626880176E+00    0.3729117153E+00
    0.2300000000E+05    0.5116802019E+00    0.5371752991E-01    0.2234282861E+00    0.1628437586E+00    0.3751392697E+00
    0.2500000000E+05    0.5120213211E+00    0.5197989524E-01    0.2244482514E+00    0.1629759442E+00    0.3771211081E+00
    0.2700000000E+05    0.5123100795E+00    0.5041338712E-01    0.2253580425E+00    0.1630897308E+00    0.3789004801E+00
    0.2900000000E+05    0.5125574874E+00    0.4899098248E-01    0.2261761270E+00    0.1631888597E+00    0.3805105594E+00
    0.3100000000E+05    0.5127716836E+00    0.4769135047E-01    0.2269168961E+00    0.1632761128E+00    0.3819772932E+00
    0.3300000000E+05    0.5129588118E+00    0.4649738669E-01    0.2275917564E+00    0.1633536025E+00    0.3833213203E+00
    0.3500000000E+05    0.5131235960E+00    0.4539518618E-01    0.2282098835E+00    0.1634229625E+00    0.3845592996E+00
    0.3700000000E+05    0.5132697270E+00    0.4437330734E-01    0.2287787549E+00    0.1634854771E+00    0.3857048516E+00
    0.3900000000E+05    0.5134001295E+00    0.4342223382E-01    0.2293045348E+00    0.1635421695E+00    0.3867692398E+00
    0.4100000000E+05    0.5135171510E+00    0.4253397417E-01    0.2297923569E+00    0.1635938663E+00    0.3877618742E+00
    0.4300000000E+05    0.5136226967E+00    0.4170175915E-01    0.2302465369E+00    0.1636412419E+00    0.3886906881E+00
    0.4500000000E+05    0.5137183289E+00    0.4091980988E-01    0.2306707324E+00    0.1636848526E+00    0.3895624252E+00
    0.4700000000E+05    0.5138053406E+00    0.4018315766E-01    0.2310680674E+00    0.1637251618E+00    0.3903828609E+00
    0.4900000000E+05    0.5138848111E+00    0.3948750265E-01    0.2314412280E+00    0.1637625582E+00    0.3911569752E+00
    0.1000000000E+05    0.5059465693E+00    0.7329686543E-01    0.2111326816E+00    0.1607903846E+00    0.3520418057E+00
    0.3000000000E+05    0.5126683141E+00    0.4832697423E-01    0.2265554032E+00    0.1632338256E+00    0.3812604480E+00
    0.5000000000E+05    0.5139220077E+00    0.3915386015E-01    0.2316194818E+00    0.1637802689E+00    0.3915280348E+00
    0.7000000000E+05    0.5144296173E+00    0.3393580194E-01    0.2343442160E+00    0.1640400065E+00    0.3973182652E+00
    0.9000000000E+05    0.5146962537E+00    0.3043899023E-01    0.2360986064E+00    0.1641985908E+00    0.4011934064E+00
    0.1100000000E+06    0.5148564332E+00    0.2787839666E-01    0.2373423376E+00    0.1643086240E+00    0.4040350146E+00
    0.1300000000E+06    0.5149608485E+00    0.2589530147E-01    0.2382790913E+00    0.1643911216E+00    0.4062415440E+00
    0.1500000000E+06    0.5150327098E+00    0.2429877900E-01    0.2390147328E+00    0.1644562593E+00    0.4080237125E+00
    0.1700000000E+06    0.5150840803E+00    0.2297638944E-01    0.2396104005E+00    0.1645096208E+00    0.4095051236E+00
    0.1900000000E+06    0.5151218179E+00    0.2185693485E-01    0.2401041632E+00    0.1645545524E+00    0.4107638495E+00
    0.2100000000E+06    0.5151500918E+00    0.2089279755E-01    0.2405211069E+00    0.1645931964E+00    0.4118520260E+00
    0.2300000000E+06    0.5151715720E+00    0.2005073755E-01    0.2408785110E+00    0.1646269962E+00    0.4128060158E+00
    0.2500000000E+06    0.5151880412E+00    0.1930673787E-01    0.2411887088E+00    0.1646569645E+00    0.4136520827E+00
    0.2700000000E+06    0.5152007309E+00    0.1864294630E-01    0.2414607651E+00    0.1646838363E+00    0.4144097483E+00
    0.2900000000E+06    0.5152105162E+00    0.1804577400E-01    0.2417015078E+00    0.1647081598E+00    0.4150938759E+00
    0.3100000000E+06    0.5152180344E+00    0.1750466622E-01    0.2419161878E+00    0.1647303537E+00    0.4157160152E+00
    0.3300000000E+06    0.5152237589E+00    0.1701128104E-01    0.2421089165E+00    0.1647507440E+00    0.4162853000E+00
    0.3500000000E+06    0.5152280479E+00    0.1655892489E-01    0.2422829636E+00    0.1647695895E+00    0.4168090646E+00
    0.3700000000E+06    0.5152311767E+00    0.1614215497E-01    0.2424409656E+00    0.1647870981E+00    0.4172932778E+00
    0.3900000000E+06    0.5152333595E+00    0.1575649311E-01    0.2425850737E+00    0.1648034398E+00    0.4177428549E+00
    0.4100000000E+06    0.5152347655E+00    0.1539821598E-01    0.2427170628E+00    0.1648187547E+00    0.4181618866E+00
    0.4300000000E+06    0.5152355293E+00    0.1506419850E-01    0.2428384113E+00    0.1648331596E+00    0.4185538098E+00
    0.4500000000E+06    0.5152357593E+00    0.1475179540E-01    0.2429503613E+00    0.1648467531E+00    0.4189215369E+00
    0.4700000000E+06    0.5152355436E+00    0.1445875017E-01    0.2430539652E+00    0.1648596189E+00    0.4192675548E+00
    0.4900000000E+06    0.5152349541E+00    0.1418312440E-01    0.2431501206E+00    0.1648718285E+00    0.4195940024E+00
    0.1000000000E+06    0.5147855110E+00    0.2906970374E-01    0.2367682701E+00    0.1642579854E+00    0.4027121919E+00
    0.3000000000E+06    0.5152145259E+00    0.1776877767E-01    0.2418118260E+00    0.1647195007E+00    0.4154120749E+00
    0.5000000000E+06    0.5152345381E+00    0.1405131110E-01    0.2431956504E+00    0.1648777068E+00    0.4197504756E+00
    0.7000000000E+06    0.5152166336E+00    0.1202081088E-01    0.2438555350E+00    0.1649721740E+00    0.4221943077E+00
    0.9000000000E+06    0.5151921826E+00    0.1069129571E-01    0.2442376071E+00    0.1650392701E+00    0.4238365206E+00
    0.1100000000E+07    0.5151674423E+00    0.9732757494E-02    0.2444822439E+00    0.1650912190E+00    0.4250475706E+00
    0.1300000000E+07    0.5151439748E+00    0.8998792132E-02    0.2446486255E+00    0.1651335723E+00    0.4259937643E+00
    0.1500000000E+07    0.5151221223E+00    0.8413068543E-02    0.2447662377E+00    0.1651693099E+00    0.4267627677E+00
    0.1700000000E+07    0.5151018638E+00    0.7931326467E-02    0.2448514770E+00    0.1652002135E+00    0.4274059370E+00
    0.1900000000E+07    0.5150830706E+00    0.7525881370E-02    0.2449142024E+00    0.1652274320E+00    0.4279557045E+00
    0.2100000000E+07    0.5150655914E+00    0.7178402048E-02    0.2449607002E+00    0.1652517488E+00    0.4284337403E+00
    0.2300000000E+07    0.5150492807E+00    0.6876199007E-02    0.2449951666E+00    0.1652737220E+00    0.4288551736E+00
    0.2500000000E+07    0.5150340079E+00    0.6610169005E-02    0.2450205068E+00    0.1652937630E+00    0.4292309465E+00
    0.2700000000E+07    0.5150196588E+00    0.6373587275E-02    0.2450387938E+00    0.1653121838E+00    0.4295692047E+00
    0.2900000000E+07    0.5150061348E+00    0.6161362788E-02    0.2450515442E+00    0.1653292266E+00    0.4298761610E+00
    0.3100000000E+07    0.5149933506E+00    0.5969560283E-02    0.2450598916E+00    0.1653450830E+00    0.4301566517E+00
    0.3300000000E+07    0.5149812325E+00    0.5795082939E-02    0.2450646985E+00    0.1653599073E+00    0.4304145090E+00
    0.3500000000E+07    0.5149697170E+00    0.5635455532E-02    0.2450666318E+00    0.1653738257E+00    0.4306528159E+00
    0.3700000000E+07    0.5149587485E+00    0.5488672465E-02    0.2450662145E+00    0.1653869424E+00    0.4308740864E+00
    0.3900000000E+07    0.5149482786E+00    0.5353088929E-02    0.2450638612E+00    0.1653993448E+00    0.4310803948E+00
    0.4100000000E+07    0.5149382649E+00    0.5227341406E-02    0.2450599046E+00    0.1654111066E+00    0.4312734710E+00
    0.4300000000E+07    0.5149286700E+00    0.5110288605E-02    0.2450546140E+00    0.1654222907E+00    0.4314547715E+00
    0.4500000000E+07    0.5149194609E+00    0.5000966896E-02    0.2450482095E+00    0.1654329512E+00    0.4316255325E+00
    0.4700000000E+07    0.5149106082E+00    0.4898556214E-02    0.2450408719E+00    0.1654431350E+00    0.4317868122E+00
    0.4900000000E+07    0.5149020856E+00    0.4802353640E-02    0.2450327512E+00    0.1654528829E+00    0.4319395221E+00
    0.1000000000E+07    0.5151797041E+00    0.1017717158E-01    0.2443723893E+00    0.1650667046E+00    0.4244828991E+00
    0.3000000000E+07    0.5149996551E+00    0.6063119064E-02    0.2450562090E+00    0.1653372927E+00    0.4300194549E+00
    0.5000000000E+07    0.5148979407E+00    0.4756387574E-02    0.2450284371E+00    0.1654576047E+00    0.4320129147E+00
    0.7000000000E+07    0.5148277913E+00    0.4051638007E-02    0.2449225629E+00    0.1655359201E+00    0.4331773769E+00
    0.9000000000E+07    0.5147742648E+00    0.3593521574E-02    0.2448054302E+00    0.1655940910E+00    0.4339821926E+00
    0.1100000000E+08    0.5147309889E+00    0.3264839842E-02    0.2446913127E+00    0.1656403914E+00    0.4345895452E+00
    0.1300000000E+08    0.5146946659E+00    0.3014061347E-02    0.2445836888E+00    0.1656788566E+00    0.4350734472E+00
    0.1500000000E+08    0.5146633693E+00    0.2814486452E-02    0.2444830966E+00    0.1657117597E+00    0.4354734777E+00
    0.1700000000E+08    0.5146358763E+00    0.2650706401E-02    0.2443891900E+00    0.1657405090E+00    0.4358131222E+00
    0.1900000000E+08    0.5146113618E+00    0.2513119085E-02    0.2443013778E+00    0.1657660374E+00    0.4361073849E+00
    0.2100000000E+08    0.5145892432E+00    0.2395385948E-02    0.2442190393E+00    0.1657889949E+00    0.4363663983E+00
    0.2300000000E+08    0.5145690935E+00    0.2293130489E-02    0.2441415966E+00    0.1658098527E+00    0.4365973059E+00
    0.2500000000E+08    0.5145505907E+00    0.2203219971E-02    0.2440685350E+00    0.1658289632E+00    0.4368053214E+00
    0.2700000000E+08    0.5145334856E+00    0.2123344590E-02    0.2439994042E+00    0.1658465969E+00    0.4369943590E+00
