  Pressure (Pa) 22mC5-400 (mol/kg) 2mC6-400 (mol/kg) 3mC6-400 (mol/kg) 23mC5-400 (mol/kg) C7-400 (mol/kg)
    0.1000000000E+01    0.2646647651E-02    0.2377623798E-02    0.4735896566E-02    0.1858890701E-03    0.1707781754E-02
    0.3000000000E+01    0.7838840228E-02    0.6939014927E-02    0.1386620565E-01    0.5505714935E-03    0.5000757878E-02
    0.5000000000E+01    0.1290124378E-01    0.1125722579E-01    0.2256880771E-01    0.9061448453E-03    0.8140179678E-02
    0.7000000000E+01    0.1783955891E-01    0.1534913816E-01    0.3087406233E-01    0.1253009150E-02    0.1113693082E-01
    0.9000000000E+01    0.2265914817E-01    0.1923012221E-01    0.3880949972E-01    0.1591540712E-02    0.1400088142E-01
    0.1100000000E+02    0.2736506075E-01    0.2291420320E-01    0.4640014359E-01    0.1922093847E-02    0.1674100367E-01
    0.1300000000E+02    0.3196205498E-01    0.2641420638E-01    0.5366879078E-01    0.2245002467E-02    0.1936547195E-01
    0.1500000000E+02    0.3645461903E-01    0.2974188339E-01    0.6063625419E-01    0.2560581524E-02    0.2188174981E-01
    0.1700000000E+02    0.4084698980E-01    0.3290802284E-01    0.6732157464E-01    0.2869128338E-02    0.2429666587E-01
    0.1900000000E+02    0.4514317026E-01    0.3592254747E-01    0.7374220605E-01    0.3170923820E-02    0.2661648009E-01
    0.2100000000E+02    0.4934694542E-01    0.3879459957E-01    0.7991417790E-01    0.3466233581E-02    0.2884694200E-01
    0.2300000000E+02    0.5346189697E-01    0.4153261648E-01    0.8585223805E-01    0.3755308970E-02    0.3099334182E-01
    0.2500000000E+02    0.5749141678E-01    0.4414439744E-01    0.9156997879E-01    0.4038388015E-02    0.3306055564E-01
    0.2700000000E+02    0.6143871932E-01    0.4663716282E-01    0.9707994820E-01    0.4315696295E-02    0.3505308525E-01
    0.2900000000E+02    0.6530685318E-01    0.4901760697E-01    0.1023937489E+00    0.4587447752E-02    0.3697509359E-01
    0.3100000000E+02    0.6909871162E-01    0.5129194519E-01    0.1075221256E+00    0.4853845427E-02    0.3883043612E-01
    0.3300000000E+02    0.7281704241E-01    0.5346595587E-01    0.1124750438E+00    0.5115082150E-02    0.4062268881E-01
    0.3500000000E+02    0.7646445688E-01    0.5554501813E-01    0.1172617586E+00    0.5371341179E-02    0.4235517315E-01
    0.3700000000E+02    0.8004343829E-01    0.5753414565E-01    0.1218908780E+00    0.5622796787E-02    0.4403097848E-01
    0.3900000000E+02    0.8355634969E-01    0.5943801711E-01    0.1263704180E+00    0.5869614808E-02    0.4565298200E-01
    0.4100000000E+02    0.8700544107E-01    0.6126100361E-01    0.1307078535E+00    0.6111953145E-02    0.4722386678E-01
    0.4300000000E+02    0.9039285614E-01    0.6300719342E-01    0.1349101628E+00    0.6349962242E-02    0.4874613792E-01
    0.4500000000E+02    0.9372063853E-01    0.6468041439E-01    0.1389838688E+00    0.6583785520E-02    0.5022213715E-01
    0.4700000000E+02    0.9699073761E-01    0.6628425424E-01    0.1429350755E+00    0.6813559786E-02    0.5165405599E-01
    0.4900000000E+02    0.1002050139E+00    0.6782207897E-01    0.1467695013E+00    0.7039415612E-02    0.5304394769E-01
    0.1000000000E+02    0.2502601008E-01    0.2109594745E-01    0.4264644687E-01    0.1757793253E-02    0.1538589257E-01
    0.3000000000E+02    0.6721214179E-01    0.5016766839E-01    0.1049804750E+00    0.4721303529E-02    0.3791086834E-01
    0.5000000000E+02    0.1017917769E+00    0.6856723107E-01    0.1486446104E+00    0.7150913297E-02    0.5372373987E-01
    0.7000000000E+02    0.1309884222E+00    0.8067814536E-01    0.1811560657E+00    0.9202665812E-02    0.6552267311E-01
    0.9000000000E+02    0.1562045107E+00    0.8882516827E-01    0.2064450986E+00    0.1097498693E-01    0.7471941612E-01
    0.1100000000E+03    0.1783704739E+00    0.9435003170E-01    0.2267720374E+00    0.1253317907E-01    0.8212646840E-01
    0.1300000000E+03    0.1981296958E+00    0.9807670018E-01    0.2435321871E+00    0.1392239981E-01    0.8824574404E-01
    0.1500000000E+03    0.2159427436E+00    0.1005358359E+00    0.2576353695E+00    0.1517497630E-01    0.9340474981E-01
    0.1700000000E+03    0.2321491693E+00    0.1020823163E+00    0.2697013361E+00    0.1631474229E-01    0.9782673030E-01
    0.1900000000E+03    0.2470057448E+00    0.1029608075E+00    0.2801675818E+00    0.1735972156E-01    0.1016693858E+00
    0.2100000000E+03    0.2607109930E+00    0.1033442781E+00    0.2893522510E+00    0.1832384947E-01    0.1050474727E+00
    0.2300000000E+03    0.2734214232E+00    0.1033575943E+00    0.2974925775E+00    0.1921811250E-01    0.1080466194E+00
    0.2500000000E+03    0.2852625749E+00    0.1030924971E+00    0.3047693052E+00    0.2005132334E-01    0.1107321083E+00
    0.2700000000E+03    0.2963367110E+00    0.1026173997E+00    0.3113227276E+00    0.2083066086E-01    0.1131546444E+00
    0.2900000000E+03    0.3067282928E+00    0.1019839672E+00    0.3172635274E+00    0.2156205437E-01    0.1153542571E+00
    0.3100000000E+03    0.3165079510E+00    0.1012316349E+00    0.3226802883E+00    0.2225046238E-01    0.1173630042E+00
    0.3300000000E+03    0.3257354160E+00    0.1003907755E+00    0.3276448170E+00    0.2290007828E-01    0.1192068887E+00
    0.3500000000E+03    0.3344617140E+00    0.9948495750E-01    0.3322159876E+00    0.2351448446E-01    0.1209072439E+00
    0.3700000000E+03    0.3427308368E+00    0.9853258175E-01    0.3364425678E+00    0.2409676952E-01    0.1224817522E+00
    0.3900000000E+03    0.3505810276E+00    0.9754808427E-01    0.3403653298E+00    0.2464961853E-01    0.1239452063E+00
    0.4100000000E+03    0.3580457833E+00    0.9654283130E-01    0.3440186491E+00    0.2517538340E-01    0.1253100857E+00
    0.4300000000E+03    0.3651546452E+00    0.9552579320E-01    0.3474317311E+00    0.2567613839E-01    0.1265869998E+00
    0.4500000000E+03    0.3719338281E+00    0.9450405707E-01    0.3506295639E+00    0.2615372422E-01    0.1277850313E+00
    0.4700000000E+03    0.3784067271E+00    0.9348322048E-01    0.3536336654E+00    0.2660978368E-01    0.1289120064E+00
    0.4900000000E+03    0.3845943287E+00    0.9246769625E-01    0.3564626763E+00    0.2704579049E-01    0.1299747089E+00
    0.1000000000E+03    0.1676233119E+00    0.9185509031E-01    0.2171270516E+00    0.1177765941E-01    0.7861005037E-01
    0.3000000000E+03    0.3116906525E+00    0.1016205829E+00    0.3200325825E+00    0.2191135356E-01    0.1163807401E+00
    0.5000000000E+03    0.3875871265E+00    0.9196304101E-01    0.3578166797E+00    0.2725669434E-01    0.1304838357E+00
    0.7000000000E+03    0.4362196079E+00    0.8266220743E-01    0.3787292887E+00    0.3068569556E-01    0.1383947691E+00
    0.9000000000E+03    0.4700259430E+00    0.7513703386E-01    0.3924293405E+00    0.3307193450E-01    0.1436369407E+00
    0.1100000000E+04    0.4947380665E+00    0.6914207239E-01    0.4022790622E+00    0.3481817076E-01    0.1474442179E+00
    0.1300000000E+04    0.5134773247E+00    0.6430932101E-01    0.4097919692E+00    0.3614382433E-01    0.1503750141E+00
    0.1500000000E+04    0.5281026887E+00    0.6034520884E-01    0.4157621994E+00    0.3717962992E-01    0.1527237637E+00
    0.1700000000E+04    0.5397886977E+00    0.5703648419E-01    0.4206515230E+00    0.3800822260E-01    0.1546624487E+00
    0.1900000000E+04    0.5493109828E+00    0.5423042680E-01    0.4247490677E+00    0.3868419402E-01    0.1562992081E+00
    0.2100000000E+04    0.5572002221E+00    0.5181679850E-01    0.4282462822E+00    0.3924491001E-01    0.1577059331E+00
    0.2300000000E+04    0.5638303877E+00    0.4971482536E-01    0.4312756184E+00    0.3971671279E-01    0.1589325487E+00
    0.2500000000E+04    0.5694717537E+00    0.4786431289E-01    0.4339320057E+00    0.4011864766E-01    0.1600149658E+00
    0.2700000000E+04    0.5743239719E+00    0.4621963933E-01    0.4362854878E+00    0.4046478891E-01    0.1609797723E+00
    0.2900000000E+04    0.5785373846E+00    0.4474566803E-01    0.4383890208E+00    0.4076573892E-01    0.1618471366E+00
    0.3100000000E+04    0.5822271422E+00    0.4341493010E-01    0.4402834792E+00    0.4102962151E-01    0.1626326754E+00
    0.3300000000E+04    0.5854827873E+00    0.4220565313E-01    0.4420009805E+00    0.4126275634E-01    0.1633486974E+00
    0.3500000000E+04    0.5883749016E+00    0.4110036041E-01    0.4435671552E+00    0.4147012684E-01    0.1640050543E+00
    0.3700000000E+04    0.5909598066E+00    0.4008485999E-01    0.4450027379E+00    0.4165571121E-01    0.1646097393E+00
    0.3900000000E+04    0.5932829463E+00    0.3914750457E-01    0.4463247060E+00    0.4182272059E-01    0.1651693152E+00
    0.4100000000E+04    0.5953813601E+00    0.3827864186E-01    0.4475471105E+00    0.4197377330E-01    0.1656892289E+00
    0.4300000000E+04    0.5972855171E+00    0.3747020124E-01    0.4486816937E+00    0.4211102411E-01    0.1661740438E+00
    0.4500000000E+04    0.5990206946E+00    0.3671537902E-01    0.4497383538E+00    0.4223626131E-01    0.1666276172E+00
    0.4700000000E+04    0.6006080265E+00    0.3600839605E-01    0.4507255010E+00    0.4235098070E-01    0.1670532343E+00
    0.4900000000E+04    0.6020653097E+00    0.3534430908E-01    0.4516503326E+00    0.4245644241E-01    0.1674537139E+00
    0.1000000000E+04    0.4832840617E+00    0.7197246424E-01    0.3977167064E+00    0.3400855510E-01    0.1456761762E+00
    0.3000000000E+04    0.5804416130E+00    0.4406387050E-01    0.4393602024E+00    0.4090188267E-01    0.1622492989E+00
    0.5000000000E+04    0.6027499894E+00    0.3502699824E-01    0.4520913515E+00    0.4250604209E-01    0.1676453009E+00
    0.7000000000E+04    0.6122985965E+00    0.3015472623E-01    0.4587752140E+00    0.4320217576E-01    0.1706048586E+00
    0.9000000000E+04    0.6175481900E+00    0.2696872843E-01    0.4630292162E+00    0.4359024283E-01    0.1725568169E+00
    0.1100000000E+05    0.6208550845E+00    0.2466590038E-01    0.4660281040E+00    0.4383811939E-01    0.1739758155E+00
    0.1300000000E+05    0.6231245050E+00    0.2289599758E-01    0.4682817065E+00    0.4401060114E-01    0.1750717352E+00
    0.1500000000E+05    0.6247763977E+00    0.2147792570E-01    0.4700512004E+00    0.4413788909E-01    0.1759538694E+00
    0.1700000000E+05    0.6260315790E+00    0.2030705669E-01    0.4714858076E+00    0.4423593845E-01    0.1766855903E+00
    0.1900000000E+05    0.6270170474E+00    0.1931801325E-01    0.4726776804E+00    0.4431396893E-01    0.1773065665E+00
    0.2100000000E+05    0.6278109420E+00    0.1846748712E-01    0.4736871514E+00    0.4437768002E-01    0.1778430972E+00
    0.2300000000E+05    0.6284639413E+00    0.1772546066E-01    0.4745555638E+00    0.4443078572E-01    0.1783134177E+00
    0.2500000000E+05    0.6290103338E+00    0.1707036213E-01    0.4753123043E+00    0.4447581075E-01    0.1787306339E+00
    0.2700000000E+05    0.6294741396E+00    0.1648622409E-01    0.4759788992E+00    0.4451453212E-01    0.1791044479E+00
    0.2900000000E+05    0.6298726807E+00    0.1596093253E-01    0.4765715178E+00    0.4454823735E-01    0.1794422208E+00
    0.3100000000E+05    0.6302187610E+00    0.1548510319E-01    0.4771025685E+00    0.4457788262E-01    0.1797496560E+00
    0.3300000000E+05    0.6305220474E+00    0.1505133516E-01    0.4775817494E+00    0.4460419323E-01    0.1800312525E+00
    0.3500000000E+05    0.6307899735E+00    0.1465370035E-01    0.4780167628E+00    0.4462772954E-01    0.1802906148E+00
    0.3700000000E+05    0.6310283488E+00    0.1428738544E-01    0.4784138117E+00    0.4464893153E-01    0.1805306712E+00
    0.3900000000E+05    0.6312417790E+00    0.1394843493E-01    0.4787779544E+00    0.4466814963E-01    0.1807538291E+00
    0.4100000000E+05    0.6314339616E+00    0.1363356339E-01    0.4791133610E+00    0.4468566648E-01    0.1809620893E+00
    0.4300000000E+05    0.6316078994E+00    0.1334001565E-01    0.4794235042E+00    0.4470171269E-01    0.1811571307E+00
    0.4500000000E+05    0.6317660557E+00    0.1306546122E-01    0.4797113013E+00    0.4471647831E-01    0.1813403747E+00
    0.4700000000E+05    0.6319104708E+00    0.1280791335E-01    0.4799792232E+00    0.4473012146E-01    0.1815130339E+00
    0.4900000000E+05    0.6320428482E+00    0.1256566621E-01    0.4802293781E+00    0.4474277479E-01    0.1816761502E+00
    0.1000000000E+05    0.6193708264E+00    0.2573455345E-01    0.4646452335E+00    0.4372643962E-01    0.1733164173E+00
    0.3000000000E+05    0.6300516131E+00    0.1571733724E-01    0.4768440791E+00    0.4456351764E-01    0.1795994254E+00
    0.5000000000E+05    0.6321049800E+00    0.1244981183E-01    0.4803483690E+00    0.4474876601E-01    0.1817544163E+00
    0.7000000000E+05    0.6329680952E+00    0.1066459423E-01    0.4821253742E+00    0.4483653650E-01    0.1829850322E+00
    0.9000000000E+05    0.6334405303E+00    0.9494787364E-02    0.4832254625E+00    0.4489004457E-01    0.1838232040E+00
    0.1100000000E+06    0.6337372569E+00    0.8650760861E-02    0.4839821838E+00    0.4492714013E-01    0.1844490090E+00
    0.1300000000E+06    0.6339401787E+00    0.8004044508E-02    0.4845380571E+00    0.4495493862E-01    0.1849434809E+00
    0.1500000000E+06    0.6340872383E+00    0.7487641128E-02    0.4849651897E+00    0.4497688057E-01    0.1853494938E+00
    0.1700000000E+06    0.6341983993E+00    0.7062688597E-02    0.4853043430E+00    0.4499485187E-01    0.1856922706E+00
    0.1900000000E+06    0.6342851567E+00    0.6704869394E-02    0.4855804505E+00    0.4500998204E-01    0.1859878111E+00
    0.2100000000E+06    0.6343545908E+00    0.6398075555E-02    0.4858096943E+00    0.4502299374E-01    0.1862468536E+00
    0.2300000000E+06    0.6344112975E+00    0.6131152468E-02    0.4860030729E+00    0.4503437365E-01    0.1864769286E+00
    0.2500000000E+06    0.6344583883E+00    0.5896095194E-02    0.4861683437E+00    0.4504446318E-01    0.1866835065E+00
    0.2700000000E+06    0.6344980433E+00    0.5686988365E-02    0.4863111469E+00    0.4505350999E-01    0.1868706767E+00
    0.2900000000E+06    0.6345318347E+00    0.5499352330E-02    0.4864356892E+00    0.4506169877E-01    0.1870415715E+00
    0.3100000000E+06    0.6345609241E+00    0.5329723402E-02    0.4865451763E+00    0.4506917054E-01    0.1871986388E+00
    0.3300000000E+06    0.6345861883E+00    0.5175375120E-02    0.4866420971E+00    0.4507603517E-01    0.1873438258E+00
    0.3500000000E+06    0.6346083006E+00    0.5034127712E-02    0.4867284151E+00    0.4508237973E-01    0.1874787051E+00
    0.3700000000E+06    0.6346277871E+00    0.4904214551E-02    0.4868057014E+00    0.4508827430E-01    0.1876045638E+00
    0.3900000000E+06    0.6346450642E+00    0.4784186471E-02    0.4868752292E+00    0.4509377606E-01    0.1877224676E+00
    0.4100000000E+06    0.6346604658E+00    0.4672841874E-02    0.4869380415E+00    0.4509893219E-01    0.1878333083E+00
    0.4300000000E+06    0.6346742626E+00    0.4569174790E-02    0.4869950015E+00    0.4510378205E-01    0.1879378391E+00
    0.4500000000E+06    0.6346866764E+00    0.4472335676E-02    0.4870468302E+00    0.4510835878E-01    0.1880367019E+00
    0.4700000000E+06    0.6346978906E+00    0.4381601415E-02    0.4870941342E+00    0.4511269056E-01    0.1881304473E+00
    0.4900000000E+06    0.6347080579E+00    0.4296352077E-02    0.4871374284E+00    0.4511680148E-01    0.1882195515E+00
    0.1000000000E+06    0.6336041888E+00    0.9042157422E-02    0.4836354330E+00    0.4491007117E-01    0.1841563035E+00
    0.3000000000E+06    0.6345469068E+00    0.5412472090E-02    0.4864921449E+00    0.4506551680E-01    0.1871217018E+00
    0.5000000000E+06    0.6347127900E+00    0.4255614173E-02    0.4871577117E+00    0.4511878073E-01    0.1882624947E+00
    0.7000000000E+06    0.6347749912E+00    0.3630560160E-02    0.4874320777E+00    0.4515059061E-01    0.1889548493E+00
    0.9000000000E+06    0.6348046943E+00    0.3223734122E-02    0.4875663149E+00    0.4517318732E-01    0.1894465078E+00
    0.1100000000E+07    0.6348205262E+00    0.2931565157E-02    0.4876354173E+00    0.4519068492E-01    0.1898253695E+00
    0.1300000000E+07    0.6348293666E+00    0.2708466400E-02    0.4876696513E+00    0.4520495192E-01    0.1901323753E+00
    0.1500000000E+07    0.6348342963E+00    0.2530798831E-02    0.4876835005E+00    0.4521699139E-01    0.1903897899E+00
    0.1700000000E+07    0.6348368788E+00    0.2384910695E-02    0.4876847104E+00    0.4522740306E-01    0.1906110150E+00
    0.1900000000E+07    0.6348379803E+00    0.2262289773E-02    0.4876777599E+00    0.4523657370E-01    0.1908047201E+00
    0.2100000000E+07    0.6348381131E+00    0.2157314073E-02    0.4876653942E+00    0.4524476709E-01    0.1909768247E+00
    0.2300000000E+07    0.6348375958E+00    0.2066100058E-02    0.4876493724E+00    0.4525217114E-01    0.1911315437E+00
    0.2500000000E+07    0.6348366345E+00    0.1985866708E-02    0.4876308616E+00    0.4525892439E-01    0.1912719811E+00
    0.2700000000E+07    0.6348353668E+00    0.1914562759E-02    0.4876106583E+00    0.4526513189E-01    0.1914004866E+00
    0.2900000000E+07    0.6348338868E+00    0.1850637356E-02    0.4875893183E+00    0.4527087517E-01    0.1915188802E+00
    0.3100000000E+07    0.6348322607E+00    0.1792893120E-02    0.4875672364E+00    0.4527621880E-01    0.1916285993E+00
    0.3300000000E+07    0.6348305352E+00    0.1740388761E-02    0.4875446973E+00    0.4528121474E-01    0.1917307986E+00
    0.3500000000E+07    0.6348287443E+00    0.1692372621E-02    0.4875219083E+00    0.4528590547E-01    0.1918264190E+00
    0.3700000000E+07    0.6348269128E+00    0.1648236164E-02    0.4874990218E+00    0.4529032611E-01    0.1919162368E+00
    0.3900000000E+07    0.6348250588E+00    0.1607480701E-02    0.4874761506E+00    0.4529450607E-01    0.1920009003E+00
    0.4100000000E+07    0.6348231959E+00    0.1569693109E-02    0.4874533781E+00    0.4529847020E-01    0.1920809558E+00
    0.4300000000E+07    0.6348213341E+00    0.1534527816E-02    0.4874307660E+00    0.4530223970E-01    0.1921568680E+00
    0.4500000000E+07    0.6348194809E+00    0.1501693212E-02    0.4874083601E+00    0.4530583278E-01    0.1922290356E+00
    0.4700000000E+07    0.6348176417E+00    0.1470941262E-02    0.4873861935E+00    0.4530926522E-01    0.1922978026E+00
    0.4900000000E+07    0.6348158208E+00    0.1442059468E-02    0.4873642904E+00    0.4531255078E-01    0.1923634685E+00
    0.1000000000E+07    0.6348137793E+00    0.3066909748E-02    0.4876065696E+00    0.4518242765E-01    0.1896468571E+00
    0.3000000000E+07    0.6348330887E+00    0.1821056528E-02    0.4875783502E+00    0.4527359344E-01    0.1915747462E+00
    0.5000000000E+07    0.6348149182E+00    0.1428261613E-02    0.4873534432E+00    0.4531414230E-01    0.1923952216E+00
    0.7000000000E+07    0.6347982059E+00    0.1216864784E-02    0.4871521645E+00    0.4534054017E-01    0.1929167463E+00
    0.9000000000E+07    0.6347840240E+00    0.1079581506E-02    0.4869787736E+00    0.4536014914E-01    0.1932981285E+00
    0.1100000000E+08    0.6347718964E+00    0.9811370484E-03    0.4868278465E+00    0.4537575723E-01    0.1935982718E+00
    0.1300000000E+08    0.6347613563E+00    0.9060478455E-03    0.4866945451E+00    0.4538872426E-01    0.1938454585E+00
    0.1500000000E+08    0.6347520559E+00    0.8463003459E-03    0.4865752549E+00    0.4539981642E-01    0.1940554280E+00
    0.1700000000E+08    0.6347437430E+00    0.7972733614E-03    0.4864673143E+00    0.4540950831E-01    0.1942378310E+00
    0.1900000000E+08    0.6347362323E+00    0.7560887717E-03    0.4863687356E+00    0.4541811439E-01    0.1943990071E+00
    0.2100000000E+08    0.6347293849E+00    0.7208474741E-03    0.4862780045E+00    0.4542585377E-01    0.1945433419E+00
    0.2300000000E+08    0.6347230944E+00    0.6902386489E-03    0.4861939444E+00    0.4543288529E-01    0.1946739938E+00
    0.2500000000E+08    0.6347172779E+00    0.6633242425E-03    0.4861156246E+00    0.4543932774E-01    0.1947933117E+00
    0.2700000000E+08    0.6347118693E+00    0.6394127581E-03    0.4860422964E+00    0.4544527230E-01    0.1949030899E+00
