  Pressure (Pa) 22mC5-400 (mol/kg) 2mC6-400 (mol/kg) 3mC6-400 (mol/kg) 23mC5-400 (mol/kg) C7-400 (mol/kg)
    0.1000000000E+01    0.2636530794E-02    0.6324349310E-02    0.2102931260E-02    0.1851788353E-03    0.1706229465E-02
    0.3000000000E+01    0.7751682908E-02    0.1836859369E-01    0.6146716863E-02    0.5444527174E-03    0.4987729033E-02
    0.5000000000E+01    0.1266927253E-01    0.2966451457E-01    0.9988978965E-02    0.8898594193E-03    0.8106381513E-02
    0.7000000000E+01    0.1740352428E-01    0.4027465022E-01    0.1364557685E-01    0.1222397259E-02    0.1107498632E-01
    0.9000000000E+01    0.2196728393E-01    0.5025488923E-01    0.1713072066E-01    0.1542967794E-02    0.1390501280E-01
    0.1100000000E+02    0.2637218283E-01    0.5965532392E-01    0.2045718155E-01    0.1852387354E-02    0.1660676964E-01
    0.1300000000E+02    0.3062877921E-01    0.6852097625E-01    0.2363647042E-01    0.2151396962E-02    0.1918954899E-01
    0.1500000000E+02    0.3474668028E-01    0.7689241785E-01    0.2667899063E-01    0.2440670900E-02    0.2166174957E-01
    0.1700000000E+02    0.3873464789E-01    0.8480630171E-01    0.2959416889E-01    0.2720824123E-02    0.2403098220E-01
    0.1900000000E+02    0.4260069038E-01    0.9229581980E-01    0.3239056805E-01    0.2992418704E-02    0.2630416076E-01
    0.2100000000E+02    0.4635214268E-01    0.9939109836E-01    0.3507598447E-01    0.3255969459E-02    0.2848758075E-01
    0.2300000000E+02    0.4999573640E-01    0.1061195405E+00    0.3765753259E-01    0.3511948860E-02    0.3058698741E-01
    0.2500000000E+02    0.5353766125E-01    0.1125061242E+00    0.4014171840E-01    0.3760791350E-02    0.3260763499E-01
    0.2700000000E+02    0.5698361914E-01    0.1185736621E+00    0.4253450362E-01    0.4002897135E-02    0.3455433860E-01
    0.2900000000E+02    0.6033887183E-01    0.1243430287E+00    0.4484136193E-01    0.4238635532E-02    0.3643151942E-01
    0.3100000000E+02    0.6360828316E-01    0.1298333601E+00    0.4706732829E-01    0.4468347932E-02    0.3824324460E-01
    0.3300000000E+02    0.6679635641E-01    0.1350622293E+00    0.4921704238E-01    0.4692350417E-02    0.3999326227E-01
    0.3500000000E+02    0.6990726753E-01    0.1400458008E+00    0.5129478704E-01    0.4910936100E-02    0.4168503249E-01
    0.3700000000E+02    0.7294489481E-01    0.1447989678E+00    0.5330452216E-01    0.5124377200E-02    0.4332175466E-01
    0.3900000000E+02    0.7591284524E-01    0.1493354729E+00    0.5524991489E-01    0.5332926897E-02    0.4490639188E-01
    0.4100000000E+02    0.7881447820E-01    0.1536680167E+00    0.5713436642E-01    0.5536820991E-02    0.4644169251E-01
    0.4300000000E+02    0.8165292668E-01    0.1578083526E+00    0.5896103590E-01    0.5736279394E-02    0.4793020953E-01
    0.4500000000E+02    0.8443111629E-01    0.1617673735E+00    0.6073286182E-01    0.5931507461E-02    0.4937431775E-01
    0.4700000000E+02    0.8715178243E-01    0.1655551876E+00    0.6245258110E-01    0.6122697199E-02    0.5077622924E-01
    0.4900000000E+02    0.8981748577E-01    0.1691811873E+00    0.6412274632E-01    0.6310028349E-02    0.5213800721E-01
    0.1000000000E+02    0.2418890745E-01    0.5502465714E-01    0.1881303940E-01    0.1699023473E-02    0.1527132187E-01
    0.3000000000E+02    0.6198401817E-01    0.1271219408E+00    0.4596415783E-01    0.4354224662E-02    0.3734532261E-01
    0.5000000000E+02    0.9113048228E-01    0.1709362612E+00    0.6493999725E-01    0.6402300013E-02    0.5280445325E-01
    0.7000000000E+02    0.1150146217E+00    0.1993699164E+00    0.7918600454E-01    0.8080939626E-02    0.6443267579E-01
    0.9000000000E+02    0.1353933273E+00    0.2186222644E+00    0.9042219040E-01    0.9513469342E-02    0.7362075366E-01
    0.1100000000E+03    0.1532774724E+00    0.2320185004E+00    0.9960866639E-01    0.1077085143E-01    0.8114552916E-01
    0.1300000000E+03    0.1692947523E+00    0.2414906580E+00    0.1073265170E+00    0.1189715118E-01    0.8747746823E-01
    0.1500000000E+03    0.1838584838E+00    0.2482317080E+00    0.1139497146E+00    0.1292138509E-01    0.9291953919E-01
    0.1700000000E+03    0.1972538344E+00    0.2530143687E+00    0.1197308542E+00    0.1386357356E-01    0.9767650127E-01
    0.1900000000E+03    0.2096852093E+00    0.2563588375E+00    0.1248473370E+00    0.1473806726E-01    0.1018922444E+00
    0.2100000000E+03    0.2213038675E+00    0.2586266050E+00    0.1294278298E+00    0.1555548580E-01    0.1056711899E+00
    0.2300000000E+03    0.2322248121E+00    0.2600756227E+00    0.1335682064E+00    0.1632390340E-01    0.1090911891E+00
    0.2500000000E+03    0.2425375464E+00    0.2608941337E+00    0.1373415660E+00    0.1704960402E-01    0.1122116325E+00
    0.2700000000E+03    0.2523131629E+00    0.2612221681E+00    0.1408047564E+00    0.1773757899E-01    0.1150787320E+00
    0.2900000000E+03    0.2616091552E+00    0.2611656250E+00    0.1440027545E+00    0.1839186494E-01    0.1177290687E+00
    0.3100000000E+03    0.2704727693E+00    0.2608057456E+00    0.1469716867E+00    0.1901577897E-01    0.1201920406E+00
    0.3300000000E+03    0.2789433905E+00    0.2602056362E+00    0.1497409605E+00    0.1961208631E-01    0.1224915904E+00
    0.3500000000E+03    0.2870542777E+00    0.2594148527E+00    0.1523348007E+00    0.2018312203E-01    0.1246474512E+00
    0.3700000000E+03    0.2948338460E+00    0.2584726829E+00    0.1547733767E+00    0.2073088116E-01    0.1266760603E+00
    0.3900000000E+03    0.3023066305E+00    0.2574105351E+00    0.1570736432E+00    0.2125708628E-01    0.1285912423E+00
    0.4100000000E+03    0.3094940205E+00    0.2562537018E+00    0.1592499771E+00    0.2176323914E-01    0.1304047253E+00
    0.4300000000E+03    0.3164148275E+00    0.2550226805E+00    0.1613146664E+00    0.2225066048E-01    0.1321265378E+00
    0.4500000000E+03    0.3230857275E+00    0.2537341739E+00    0.1632782892E+00    0.2272052115E-01    0.1337653170E+00
    0.4700000000E+03    0.3295216119E+00    0.2524018565E+00    0.1651500127E+00    0.2317386667E-01    0.1353285515E+00
    0.4900000000E+03    0.3357358665E+00    0.2510369681E+00    0.1669378295E+00    0.2361163690E-01    0.1368227731E+00
    0.1000000000E+03    0.1446015516E+00    0.2259089887E+00    0.9522905110E-01    0.1016084788E-01    0.7755657773E-01
    0.3000000000E+03    0.2660923866E+00    0.2610192945E+00    0.1455138788E+00    0.1870743430E-01    0.1189823675E+00
    0.5000000000E+03    0.3387637105E+00    0.2503452725E+00    0.1678024969E+00    0.2382495004E-01    0.1375458223E+00
    0.7000000000E+03    0.3901185191E+00    0.2363449979E+00    0.1820132907E+00    0.2744437897E-01    0.1494658256E+00
    0.9000000000E+03    0.4283921535E+00    0.2236331207E+00    0.1924057557E+00    0.3014400637E-01    0.1582293761E+00
    0.1100000000E+04    0.4577862008E+00    0.2127372917E+00    0.2005737529E+00    0.3221896119E-01    0.1651465877E+00
    0.1300000000E+04    0.4808687397E+00    0.2034709222E+00    0.2072849698E+00    0.3384969996E-01    0.1708505943E+00
    0.1500000000E+04    0.4993332016E+00    0.1955451643E+00    0.2129679587E+00    0.3515526384E-01    0.1756958417E+00
    0.1700000000E+04    0.5143426288E+00    0.1886994419E+00    0.2178864226E+00    0.3621743956E-01    0.1799009715E+00
    0.1900000000E+04    0.5267180301E+00    0.1827232784E+00    0.2222142529E+00    0.3709398154E-01    0.1836104750E+00
    0.2100000000E+04    0.5370516676E+00    0.1774520933E+00    0.2260722045E+00    0.3782656669E-01    0.1869248874E+00
    0.2300000000E+04    0.5457788143E+00    0.1727580953E+00    0.2295475677E+00    0.3844583460E-01    0.1899170113E+00
    0.2500000000E+04    0.5532247255E+00    0.1685417435E+00    0.2327054984E+00    0.3897468777E-01    0.1926412767E+00
    0.2700000000E+04    0.5596361450E+00    0.1647249114E+00    0.2355959211E+00    0.3943050575E-01    0.1951394527E+00
    0.2900000000E+04    0.5652028630E+00    0.1612456957E+00    0.2382579339E+00    0.3982666068E-01    0.1974442958E+00
    0.3100000000E+04    0.5700727313E+00    0.1580545486E+00    0.2407227260E+00    0.4017357303E-01    0.1995819708E+00
    0.3300000000E+04    0.5743622893E+00    0.1551114054E+00    0.2430155740E+00    0.4047945888E-01    0.2015737088E+00
    0.3500000000E+04    0.5781643951E+00    0.1523835477E+00    0.2451572453E+00    0.4075086681E-01    0.2034369735E+00
    0.3700000000E+04    0.5815537825E+00    0.1498440023E+00    0.2471650082E+00    0.4099306884E-01    0.2051863024E+00
    0.3900000000E+04    0.5845911586E+00    0.1474703326E+00    0.2490533743E+00    0.4121034883E-01    0.2068339252E+00
    0.4100000000E+04    0.5873262628E+00    0.1452437178E+00    0.2508346534E+00    0.4140621779E-01    0.2083902267E+00
    0.4300000000E+04    0.5898001748E+00    0.1431482456E+00    0.2525193763E+00    0.4158357636E-01    0.2098640993E+00
    0.4500000000E+04    0.5920470763E+00    0.1411703627E+00    0.2541166202E+00    0.4174483887E-01    0.2112632153E+00
    0.4700000000E+04    0.5940956063E+00    0.1392984458E+00    0.2556342631E+00    0.4189202883E-01    0.2125942394E+00
    0.4900000000E+04    0.5959699163E+00    0.1375224626E+00    0.2570791854E+00    0.4202685320E-01    0.2138629973E+00
    0.1000000000E+04    0.4440123679E+00    0.2179643905E+00    0.1967086398E+00    0.3124644615E-01    0.1618700146E+00
    0.3000000000E+04    0.5677169872E+00    0.1596168118E+00    0.2395132829E+00    0.4000571414E-01    0.1985326023E+00
    0.5000000000E+04    0.5968482663E+00    0.1366676783E+00    0.2577762938E+00    0.4209008977E-01    0.2144756512E+00
    0.7000000000E+04    0.6089109285E+00    0.1229918096E+00    0.2690450646E+00    0.4296329154E-01    0.2244310815E+00
    0.9000000000E+04    0.6153487169E+00    0.1134139175E+00    0.2770125815E+00    0.4343508479E-01    0.2315357356E+00
    0.1100000000E+05    0.6193095829E+00    0.1061282510E+00    0.2830785981E+00    0.4372906067E-01    0.2369872093E+00
    0.1300000000E+05    0.6219773573E+00    0.1003003664E+00    0.2879195224E+00    0.4392963156E-01    0.2413675016E+00
    0.1500000000E+05    0.6238900457E+00    0.9547730517E-01    0.2919114935E+00    0.4407531386E-01    0.2450017965E+00
    0.1700000000E+05    0.6253254135E+00    0.9138624694E-01    0.2952840721E+00    0.4418607503E-01    0.2480893847E+00
    0.1900000000E+05    0.6264406803E+00    0.8785046805E-01    0.2981870216E+00    0.4427326442E-01    0.2507607686E+00
    0.2100000000E+05    0.6273312402E+00    0.8474915772E-01    0.3007230902E+00    0.4434379777E-01    0.2531057874E+00
    0.2300000000E+05    0.6280582112E+00    0.8199622308E-01    0.3029656056E+00    0.4440212500E-01    0.2551887579E+00
    0.2500000000E+05    0.6286625024E+00    0.7952824768E-01    0.3049685891E+00    0.4445123767E-01    0.2570572022E+00
    0.2700000000E+05    0.6291724985E+00    0.7729723957E-01    0.3067728945E+00    0.4449322055E-01    0.2587471581E+00
    0.2900000000E+05    0.6296084956E+00    0.7526605359E-01    0.3084101044E+00    0.4452957094E-01    0.2602865572E+00
    0.3100000000E+05    0.6299853810E+00    0.7340538740E-01    0.3099050943E+00    0.4456139198E-01    0.2616974541E+00
    0.3300000000E+05    0.6303143170E+00    0.7169174503E-01    0.3112777760E+00    0.4458951446E-01    0.2629975437E+00
    0.3500000000E+05    0.6306038337E+00    0.7010601752E-01    0.3125443134E+00    0.4461457611E-01    0.2642012227E+00
    0.3700000000E+05    0.6308605593E+00    0.6863246961E-01    0.3137179909E+00    0.4463707468E-01    0.2653203486E+00
    0.3900000000E+05    0.6310897209E+00    0.6725800107E-01    0.3148098465E+00    0.4465740444E-01    0.2663647945E+00
    0.4100000000E+05    0.6312954948E+00    0.6597159834E-01    0.3158291421E+00    0.4467588184E-01    0.2673428609E+00
    0.4300000000E+05    0.6314812578E+00    0.6476392063E-01    0.3167837173E+00    0.4469276386E-01    0.2682615877E+00
    0.4500000000E+05    0.6316497684E+00    0.6362698296E-01    0.3176802612E+00    0.4470826142E-01    0.2691269924E+00
    0.4700000000E+05    0.6318033027E+00    0.6255391031E-01    0.3185245219E+00    0.4472254927E-01    0.2699442560E+00
    0.4900000000E+05    0.6319437546E+00    0.6153874455E-01    0.3193214720E+00    0.4473577350E-01    0.2707178677E+00
    0.1000000000E+05    0.6175419159E+00    0.1095494550E+00    0.2802311178E+00    0.4359740116E-01    0.2344233053E+00
    0.3000000000E+05    0.6298035573E+00    0.7431599108E-01    0.3091740323E+00    0.4454599041E-01    0.2610068745E+00
    0.5000000000E+05    0.6320095813E+00    0.6105122719E-01    0.3197035800E+00    0.4474202599E-01    0.2710895470E+00
    0.7000000000E+05    0.6329175574E+00    0.5337027914E-01    0.3256679299E+00    0.4483297006E-01    0.2769626300E+00
    0.9000000000E+05    0.6334091930E+00    0.4815958540E-01    0.3296484322E+00    0.4488783789E-01    0.2809713309E+00
    0.1100000000E+06    0.6337159187E+00    0.4430914439E-01    0.3325509489E+00    0.4492564237E-01    0.2839513496E+00
    0.1300000000E+06    0.6339247215E+00    0.4130582997E-01    0.3347892606E+00    0.4495385835E-01    0.2862891539E+00
    0.1500000000E+06    0.6340755399E+00    0.3887396692E-01    0.3365835358E+00    0.4497606752E-01    0.2881925729E+00
    0.1700000000E+06    0.6341892533E+00    0.3684994325E-01    0.3380633860E+00    0.4499422056E-01    0.2897851150E+00
    0.1900000000E+06    0.6342778256E+00    0.3512947846E-01    0.3393108398E+00    0.4500948020E-01    0.2911456212E+00
    0.2100000000E+06    0.6343485979E+00    0.3364243548E-01    0.3403807239E+00    0.4502258756E-01    0.2923272065E+00
    0.2300000000E+06    0.6344063209E+00    0.3233961341E-01    0.3413112817E+00    0.4503404026E-01    0.2933671962E+00
    0.2500000000E+06    0.6344542022E+00    0.3118530835E-01    0.3421301228E+00    0.4504418657E-01    0.2942927243E+00
    0.2700000000E+06    0.6344944849E+00    0.3015287803E-01    0.3428577511E+00    0.4505327857E-01    0.2951240750E+00
    0.2900000000E+06    0.6345287833E+00    0.2922197185E-01    0.3435097592E+00    0.4506150396E-01    0.2958767703E+00
    0.3100000000E+06    0.6345582885E+00    0.2837673300E-01    0.3440982458E+00    0.4506900586E-01    0.2965629264E+00
    0.3300000000E+06    0.6345838981E+00    0.2760459283E-01    0.3446327630E+00    0.4507589559E-01    0.2971921644E+00
    0.3500000000E+06    0.6346063007E+00    0.2689543946E-01    0.3451209675E+00    0.4508226132E-01    0.2977722385E+00
    0.3700000000E+06    0.6346260336E+00    0.2624103037E-01    0.3455690780E+00    0.4508817394E-01    0.2983094804E+00
    0.3900000000E+06    0.6346435218E+00    0.2563456851E-01    0.3459822057E+00    0.4509369121E-01    0.2988091207E+00
    0.4100000000E+06    0.6346591057E+00    0.2507039057E-01    0.3463645949E+00    0.4509886080E-01    0.2992755249E+00
    0.4300000000E+06    0.6346730611E+00    0.2454373385E-01    0.3467198044E+00    0.4510372242E-01    0.2997123706E+00
    0.4500000000E+06    0.6346856138E+00    0.2405055942E-01    0.3470508426E+00    0.4510830950E-01    0.3001227817E+00
    0.4700000000E+06    0.6346969504E+00    0.2358741598E-01    0.3473602731E+00    0.4511265045E-01    0.3005094319E+00
    0.4900000000E+06    0.6347072262E+00    0.2315133388E-01    0.3476502952E+00    0.4511676953E-01    0.3008746257E+00
    0.1000000000E+06    0.6335785686E+00    0.4610432580E-01    0.3312020953E+00    0.4490826972E-01    0.2825598111E+00
    0.3000000000E+06    0.6345440733E+00    0.2878949543E-01    0.3438112947E+00    0.4506533776E-01    0.2962275144E+00
    0.5000000000E+06    0.6347120080E+00    0.2294262361E-01    0.3477886320E+00    0.4511875254E-01    0.3010498115E+00
    0.7000000000E+06    0.6347748172E+00    0.1971416403E-01    0.3498855616E+00    0.4515060960E-01    0.3037973217E+00
    0.9000000000E+06    0.6348047880E+00    0.1758629092E-01    0.3512156437E+00    0.4517322864E-01    0.3056549154E+00
    0.1100000000E+07    0.6348207653E+00    0.1604509082E-01    0.3521468361E+00    0.4519073941E-01    0.3070300313E+00
    0.1300000000E+07    0.6348296955E+00    0.1486087328E-01    0.3528404247E+00    0.4520501532E-01    0.3081071840E+00
    0.1500000000E+07    0.6348346861E+00    0.1391323593E-01    0.3533795462E+00    0.4521706139E-01    0.3089842286E+00
    0.1700000000E+07    0.6348373127E+00    0.1313207082E-01    0.3538118857E+00    0.4522747827E-01    0.3097187482E+00
    0.1900000000E+07    0.6348384477E+00    0.1247337675E-01    0.3541669603E+00    0.4523665320E-01    0.3103472353E+00
    0.2100000000E+07    0.6348386072E+00    0.1190793594E-01    0.3544641195E+00    0.4524485027E-01    0.3108941410E+00
    0.2300000000E+07    0.6348381117E+00    0.1141547396E-01    0.3547166280E+00    0.4525225755E-01    0.3113765755E+00
    0.2500000000E+07    0.6348371687E+00    0.1098141579E-01    0.3549339124E+00    0.4525901368E-01    0.3118069374E+00
    0.2700000000E+07    0.6348359166E+00    0.1059497468E-01    0.3551228731E+00    0.4526522378E-01    0.3121944719E+00
    0.2900000000E+07    0.6348344504E+00    0.1024797112E-01    0.3552886874E+00    0.4527096946E-01    0.3125462399E+00
    0.3100000000E+07    0.6348328363E+00    0.9934073177E-02    0.3554353226E+00    0.4527631530E-01    0.3128677449E+00
    0.3300000000E+07    0.6348311217E+00    0.9648291397E-02    0.3555658741E+00    0.4528131331E-01    0.3131633520E+00
    0.3500000000E+07    0.6348293407E+00    0.9386632959E-02    0.3556827955E+00    0.4528600598E-01    0.3134365765E+00
    0.3700000000E+07    0.6348275181E+00    0.9145859024E-02    0.3557880587E+00    0.4529042846E-01    0.3136902871E+00
    0.3900000000E+07    0.6348256724E+00    0.8923310667E-02    0.3558832676E+00    0.4529461017E-01    0.3139268525E+00
    0.4100000000E+07    0.6348238172E+00    0.8716781595E-02    0.3559697416E+00    0.4529857596E-01    0.3141482496E+00
    0.4300000000E+07    0.6348219626E+00    0.8524423477E-02    0.3560485764E+00    0.4530234705E-01    0.3143561433E+00
    0.4500000000E+07    0.6348201160E+00    0.8344674424E-02    0.3561206900E+00    0.4530594165E-01    0.3145519481E+00
    0.4700000000E+07    0.6348182832E+00    0.8176204217E-02    0.3561868577E+00    0.4530937556E-01    0.3147368749E+00
    0.4900000000E+07    0.6348164683E+00    0.8017871835E-02    0.3562477393E+00    0.4531266253E-01    0.3149119675E+00
    0.1000000000E+07    0.6348139552E+00    0.1676039572E-01    0.3517183727E+00    0.4518247629E-01    0.3063883408E+00
    0.3000000000E+07    0.6348336585E+00    0.1008722259E-01    0.3553641916E+00    0.4527368885E-01    0.3127104797E+00
    0.5000000000E+07    0.6348155686E+00    0.7942194143E-02    0.3562763775E+00    0.4531425474E-01    0.3149961137E+00
    0.7000000000E+07    0.6347989024E+00    0.6779791848E-02    0.3566739496E+00    0.4534066442E-01    0.3163306686E+00
    0.9000000000E+07    0.6347847541E+00    0.6021994523E-02    0.3568816002E+00    0.4536028277E-01    0.3172520860E+00
    0.1100000000E+08    0.6347726532E+00    0.5477200147E-02    0.3569987448E+00    0.4537589878E-01    0.3179466472E+00
    0.1300000000E+08    0.6347621356E+00    0.5060892366E-02    0.3570662723E+00    0.4538887271E-01    0.3184994260E+00
    0.1500000000E+08    0.6347528547E+00    0.4729179767E-02    0.3571040758E+00    0.4539997105E-01    0.3189559259E+00
    0.1700000000E+08    0.6347445592E+00    0.4456686426E-02    0.3571229590E+00    0.4540966854E-01    0.3193431453E+00
    0.1900000000E+08    0.6347370641E+00    0.4227576063E-02    0.3571292646E+00    0.4541827976E-01    0.3196783294E+00
    0.2100000000E+08    0.6347302309E+00    0.4031382097E-02    0.3571269394E+00    0.4542602391E-01    0.3199731200E+00
    0.2300000000E+08    0.6347239535E+00    0.3860870289E-02    0.3571185520E+00    0.4543305988E-01    0.3202357220E+00
    0.2500000000E+08    0.6347181491E+00    0.3710857635E-02    0.3571058353E+00    0.4543950651E-01    0.3204721214E+00
    0.2700000000E+08    0.6347127519E+00    0.3577519596E-02    0.3570899921E+00    0.4544545503E-01    0.3206868108E+00
