  Pressure (Pa) 22mC5-400 (mol/kg) 2mC6-400 (mol/kg) 3mC6-400 (mol/kg) 23mC5-400 (mol/kg) C7-400 (mol/kg)
    0.1000000000E+01    0.3176216561E-02    0.7922283760E-03    0.1052243162E-02    0.6506611818E-03    0.6829988036E-02
    0.3000000000E+01    0.9408436354E-02    0.2310212279E-02    0.3079783185E-02    0.1927378274E-02    0.1999283276E-01
    0.5000000000E+01    0.1548571585E-01    0.3744720907E-02    0.5010887218E-02    0.3172381919E-02    0.3253256649E-01
    0.7000000000E+01    0.2141416826E-01    0.5101456619E-02    0.6852338163E-02    0.4386923079E-02    0.4449294726E-01
    0.9000000000E+01    0.2719958444E-01    0.6385623786E-02    0.8610295915E-02    0.5572186764E-02    0.5591371714E-01
    0.1100000000E+02    0.3284745379E-01    0.7601982551E-02    0.1029036733E-01    0.6729296298E-02    0.6683105301E-01
    0.1300000000E+02    0.3836298351E-01    0.8754895669E-02    0.1189766695E-01    0.7859317268E-02    0.7727795798E-01
    0.1500000000E+02    0.4375111645E-01    0.9848369476E-02    0.1343686994E-01    0.8963261172E-02    0.8728460226E-01
    0.1700000000E+02    0.4901654763E-01    0.1088608982E-01    0.1491225830E-01    0.1004208880E-01    0.9687862106E-01
    0.1900000000E+02    0.5416373951E-01    0.1187145367E-01    0.1632776136E-01    0.1109671335E-01    0.1060853756E+00
    0.2100000000E+02    0.5919693624E-01    0.1280759703E-01    0.1768699140E-01    0.1212800336E-01    0.1149281828E+00
    0.2300000000E+02    0.6412017675E-01    0.1369741963E-01    0.1899327504E-01    0.1313678538E-01    0.1234285170E+00
    0.2500000000E+02    0.6893730703E-01    0.1454360682E-01    0.2024968091E-01    0.1412384646E-01    0.1316061890E+00
    0.2700000000E+02    0.7365199151E-01    0.1534864904E-01    0.2145904425E-01    0.1508993652E-01    0.1394795042E+00
    0.2900000000E+02    0.7826772360E-01    0.1611485924E-01    0.2262398870E-01    0.1603577048E-01    0.1470654033E+00
    0.3100000000E+02    0.8278783561E-01    0.1684438834E-01    0.2374694568E-01    0.1696203029E-01    0.1543795870E+00
    0.3300000000E+02    0.8721550788E-01    0.1753923923E-01    0.2483017170E-01    0.1786936682E-01    0.1614366278E+00
    0.3500000000E+02    0.9155377740E-01    0.1820127915E-01    0.2587576387E-01    0.1875840158E-01    0.1682500695E+00
    0.3700000000E+02    0.9580554576E-01    0.1883225101E-01    0.2688567367E-01    0.1962972840E-01    0.1748325170E+00
    0.3900000000E+02    0.9997358666E-01    0.1943378348E-01    0.2786171947E-01    0.2048391493E-01    0.1811957158E+00
    0.4100000000E+02    0.1040605529E+00    0.2000740012E-01    0.2880559767E-01    0.2132150407E-01    0.1873506246E+00
    0.4300000000E+02    0.1080689829E+00    0.2055452766E-01    0.2971889274E-01    0.2214301534E-01    0.1933074801E+00
    0.4500000000E+02    0.1120013068E+00    0.2107650353E-01    0.3060308638E-01    0.2294894608E-01    0.1990758554E+00
    0.4700000000E+02    0.1158598523E+00    0.2157458261E-01    0.3145956568E-01    0.2373977267E-01    0.2046647133E+00
    0.4900000000E+02    0.1196468498E+00    0.2204994346E-01    0.3228963059E-01    0.2451595159E-01    0.2100824540E+00
    0.1000000000E+02    0.3004038062E-01    0.7001997740E-02    0.9459736871E-02    0.6154192891E-02    0.6143318147E-01
    0.3000000000E+02    0.8053952989E-01    0.1648408043E-01    0.2319057068E-01    0.1650130577E-01    0.1507555236E+00
    0.5000000000E+02    0.1215141898E+00    0.2227945338E-01    0.3269514172E-01    0.2489868566E-01    0.2127296375E+00
    0.7000000000E+02    0.1555805431E+00    0.2591346326E-01    0.3967805376E-01    0.3188174858E-01    0.2583666196E+00
    0.9000000000E+02    0.1844557693E+00    0.2820320902E-01    0.4503381459E-01    0.3780194591E-01    0.2934493293E+00
    0.1100000000E+03    0.2093154821E+00    0.2962193652E-01    0.4927736849E-01    0.4289990178E-01    0.3213094597E+00
    0.1300000000E+03    0.2309934299E+00    0.3045956576E-01    0.5272634288E-01    0.4734627696E-01    0.3440036835E+00
    0.1500000000E+03    0.2500988761E+00    0.3090135923E-01    0.5558743536E-01    0.5126578905E-01    0.3628714370E+00
    0.1700000000E+03    0.2670886136E+00    0.3106963483E-01    0.5800103858E-01    0.5475194973E-01    0.3788231953E+00
    0.1900000000E+03    0.2823128003E+00    0.3104726704E-01    0.6006590867E-01    0.5787644501E-01    0.3924999066E+00
    0.2100000000E+03    0.2960450796E+00    0.3089158116E-01    0.6185357171E-01    0.6069529967E-01    0.4043661466E+00
    0.2300000000E+03    0.3085029392E+00    0.3064289640E-01    0.6341712841E-01    0.6325304384E-01    0.4147670783E+00
    0.2500000000E+03    0.3198618172E+00    0.3032995233E-01    0.6479684534E-01    0.6558560023E-01    0.4239646401E+00
    0.2700000000E+03    0.3302650980E+00    0.2997345154E-01    0.6602382351E-01    0.6772232992E-01    0.4321613005E+00
    0.2900000000E+03    0.3398313375E+00    0.2958842705E-01    0.6712247451E-01    0.6968751128E-01    0.4395160995E+00
    0.3100000000E+03    0.3486595814E+00    0.2918585669E-01    0.6811223356E-01    0.7150142858E-01    0.4461557521E+00
    0.3300000000E+03    0.3568333449E+00    0.2877378325E-01    0.6900877084E-01    0.7318118647E-01    0.4521825017E+00
    0.3500000000E+03    0.3644236347E+00    0.2835810378E-01    0.6982486459E-01    0.7474132872E-01    0.4576797852E+00
    0.3700000000E+03    0.3714912761E+00    0.2794313321E-01    0.7057104154E-01    0.7619431446E-01    0.4627163890E+00
    0.3900000000E+03    0.3780887266E+00    0.2753201170E-01    0.7125605394E-01    0.7755088953E-01    0.4673495467E+00
    0.4100000000E+03    0.3842615066E+00    0.2712700204E-01    0.7188723995E-01    0.7882037924E-01    0.4716272800E+00
    0.4300000000E+03    0.3900493383E+00    0.2672970887E-01    0.7247079944E-01    0.8001092168E-01    0.4755901916E+00
    0.4500000000E+03    0.3954870630E+00    0.2634124153E-01    0.7301200741E-01    0.8112965538E-01    0.4792728523E+00
    0.4700000000E+03    0.4006053851E+00    0.2596233599E-01    0.7351538109E-01    0.8218287169E-01    0.4827048886E+00
    0.4900000000E+03    0.4054314808E+00    0.2559344664E-01    0.7398481194E-01    0.8317613939E-01    0.4859118413E+00
    0.1000000000E+03    0.1973291044E+00    0.2900020367E-01    0.4727143749E-01    0.4044173792E-01    0.3081321610E+00
    0.3000000000E+03    0.3443321646E+00    0.2938877420E-01    0.6762990947E-01    0.7061224243E-01    0.4429184305E+00
    0.5000000000E+03    0.4077425971E+00    0.2541284049E-01    0.7420787012E-01    0.8365186088E-01    0.4874379472E+00
    0.7000000000E+03    0.4432729906E+00    0.2232191422E-01    0.7750844699E-01    0.9097201343E-01    0.5102302465E+00
    0.9000000000E+03    0.4659113457E+00    0.2004497273E-01    0.7950494081E-01    0.9564483422E-01    0.5242831650E+00
    0.1100000000E+04    0.4815417883E+00    0.1832153004E-01    0.8084665737E-01    0.9887723008E-01    0.5339029074E+00
    0.1300000000E+04    0.4929533073E+00    0.1697256290E-01    0.8181165910E-01    0.1012416337E+00    0.5409468364E+00
    0.1500000000E+04    0.5016355620E+00    0.1588496604E-01    0.8253947235E-01    0.1030439915E+00    0.5463533737E+00
    0.1700000000E+04    0.5084545505E+00    0.1498621845E-01    0.8310801847E-01    0.1044622762E+00    0.5506501108E+00
    0.1900000000E+04    0.5139469588E+00    0.1422829379E-01    0.8356432367E-01    0.1056068532E+00    0.5541575357E+00
    0.2100000000E+04    0.5184625313E+00    0.1357829692E-01    0.8393849192E-01    0.1065496908E+00    0.5570821245E+00
    0.2300000000E+04    0.5222386415E+00    0.1301298519E-01    0.8425070948E-01    0.1073396654E+00    0.5595632016E+00
    0.2500000000E+04    0.5254418992E+00    0.1251547554E-01    0.8451502946E-01    0.1080111046E+00    0.5616983626E+00
    0.2700000000E+04    0.5281925956E+00    0.1207320253E-01    0.8474154291E-01    0.1085888085E+00    0.5635581155E+00
    0.2900000000E+04    0.5305796973E+00    0.1167661233E-01    0.8493768678E-01    0.1090911312E+00    0.5651947377E+00
    0.3100000000E+04    0.5326703852E+00    0.1131830318E-01    0.8510906479E-01    0.1095319408E+00    0.5666478552E+00
    0.3300000000E+04    0.5345163170E+00    0.1099244472E-01    0.8525998082E-01    0.1099219081E+00    0.5679480822E+00
    0.3500000000E+04    0.5361578522E+00    0.1069437632E-01    0.8539379595E-01    0.1102693754E+00    0.5691194662E+00
    0.3700000000E+04    0.5376269717E+00    0.1042032316E-01    0.8551317370E-01    0.1105809573E+00    0.5701811747E+00
    0.3900000000E+04    0.5389493388E+00    0.1016719181E-01    0.8562025242E-01    0.1108619654E+00    0.5711486841E+00
    0.4100000000E+04    0.5401457814E+00    0.9932420242E-02    0.8571676881E-01    0.1111167131E+00    0.5720346357E+00
    0.4300000000E+04    0.5412333768E+00    0.9713866223E-02    0.8580414814E-01    0.1113487394E+00    0.5728494625E+00
    0.4500000000E+04    0.5422262576E+00    0.9509722924E-02    0.8588357113E-01    0.1115609750E+00    0.5736018561E+00
    0.4700000000E+04    0.5431362185E+00    0.9318454337E-02    0.8595602428E-01    0.1117558674E+00    0.5742991190E+00
    0.4900000000E+04    0.5439731797E+00    0.9138745230E-02    0.8602233829E-01    0.1119354763E+00    0.5749474342E+00
    0.1000000000E+04    0.4743853542E+00    0.1912715258E-01    0.8023554270E-01    0.9739651330E-01    0.5294998180E+00
    0.3000000000E+04    0.5316585578E+00    0.1149306845E-01    0.8502617691E-01    0.1093184950E+00    0.5659421431E+00
    0.5000000000E+04    0.5443669624E+00    0.9052865013E-02    0.8605341751E-01    0.1120201058E+00    0.5752549149E+00
    0.7000000000E+04    0.5499040330E+00    0.7734310510E-02    0.8647820101E-01    0.1132210887E+00    0.5797836111E+00
    0.9000000000E+04    0.5529944001E+00    0.6874319233E-02    0.8669762398E-01    0.1139047118E+00    0.5825410639E+00
    0.1100000000E+05    0.5549626570E+00    0.6255313114E-02    0.8682397809E-01    0.1143486358E+00    0.5844302145E+00
    0.1300000000E+05    0.5563242086E+00    0.5781693794E-02    0.8690103385E-01    0.1146616527E+00    0.5858225597E+00
    0.1500000000E+05    0.5573210292E+00    0.5403874955E-02    0.8694925683E-01    0.1148951879E+00    0.5869010812E+00
    0.1700000000E+05    0.5580816623E+00    0.5093188567E-02    0.8697942434E-01    0.1150767445E+00    0.5877671825E+00
    0.1900000000E+05    0.5586806774E+00    0.4831734389E-02    0.8699771056E-01    0.1152223846E+00    0.5884819672E+00
    0.2100000000E+05    0.5591642901E+00    0.4607672620E-02    0.8700788221E-01    0.1153421289E+00    0.5890846395E+00
    0.2300000000E+05    0.5595626597E+00    0.4412812848E-02    0.8701235198E-01    0.1154425600E+00    0.5896016123E+00
    0.2500000000E+05    0.5598962991E+00    0.4241281869E-02    0.8701272642E-01    0.1155281846E+00    0.5900513913E+00
    0.2700000000E+05    0.5601796430E+00    0.4088742138E-02    0.8701010957E-01    0.1156021948E+00    0.5904473650E+00
    0.2900000000E+05    0.5604231417E+00    0.3951910396E-02    0.8700528016E-01    0.1156669164E+00    0.5907994830E+00
    0.3100000000E+05    0.5606345458E+00    0.3828248965E-02    0.8699879961E-01    0.1157240857E+00    0.5911153090E+00
    0.3300000000E+05    0.5608197241E+00    0.3715760920E-02    0.8699108015E-01    0.1157750260E+00    0.5914007065E+00
    0.3500000000E+05    0.5609832013E+00    0.3612850173E-02    0.8698242927E-01    0.1158207639E+00    0.5916602985E+00
    0.3700000000E+05    0.5611285217E+00    0.3518223453E-02    0.8697307942E-01    0.1158621088E+00    0.5918977843E+00
    0.3900000000E+05    0.5612585002E+00    0.3430820108E-02    0.8696320832E-01    0.1158997077E+00    0.5921161633E+00
    0.4100000000E+05    0.5613754011E+00    0.3349760848E-02    0.8695295320E-01    0.1159340840E+00    0.5923178960E+00
    0.4300000000E+05    0.5614810657E+00    0.3274309667E-02    0.8694242091E-01    0.1159656665E+00    0.5925050218E+00
    0.4500000000E+05    0.5615770069E+00    0.3203845106E-02    0.8693169519E-01    0.1159948094E+00    0.5926792472E+00
    0.4700000000E+05    0.5616644789E+00    0.3137838270E-02    0.8692084209E-01    0.1160218083E+00    0.5928420126E+00
    0.4900000000E+05    0.5617445301E+00    0.3075835804E-02    0.8690991390E-01    0.1160469117E+00    0.5929945427E+00
    0.1000000000E+05    0.5540769967E+00    0.6542226652E-02    0.8676888331E-01    0.1141478297E+00    0.5835644514E+00
    0.3000000000E+05    0.5605324520E+00    0.3888568985E-02    0.8700221763E-01    0.1156963543E+00    0.5909615324E+00
    0.5000000000E+05    0.5617820545E+00    0.3046211843E-02    0.8690443500E-01    0.1160588198E+00    0.5930673033E+00
    0.7000000000E+05    0.5622986541E+00    0.2592136000E-02    0.8679741164E-01    0.1162350427E+00    0.5941755286E+00
    0.9000000000E+05    0.5625750566E+00    0.2297131443E-02    0.8670071257E-01    0.1163443431E+00    0.5948926576E+00
    0.1100000000E+06    0.5627441802E+00    0.2085589200E-02    0.8661501277E-01    0.1164211015E+00    0.5954088588E+00
    0.1300000000E+06    0.5628565667E+00    0.1924265603E-02    0.8653871679E-01    0.1164792112E+00    0.5958054512E+00
    0.1500000000E+06    0.5629355297E+00    0.1795938755E-02    0.8647019144E-01    0.1165254618E+00    0.5961238515E+00
    0.1700000000E+06    0.5629932669E+00    0.1690671548E-02    0.8640809186E-01    0.1165636071E+00    0.5963877002E+00
    0.1900000000E+06    0.5630367563E+00    0.1602272911E-02    0.8635135673E-01    0.1165959125E+00    0.5966116239E+00
    0.2100000000E+06    0.5630702657E+00    0.1526656906E-02    0.8629915160E-01    0.1166238366E+00    0.5968052347E+00
    0.2300000000E+06    0.5630965441E+00    0.1461003003E-02    0.8625081519E-01    0.1166483676E+00    0.5969751518E+00
    0.2500000000E+06    0.5631174380E+00    0.1403292698E-02    0.8620581745E-01    0.1166702024E+00    0.5971261068E+00
    0.2700000000E+06    0.5631342304E+00    0.1352038047E-02    0.8616372827E-01    0.1166898486E+00    0.5972615876E+00
    0.2900000000E+06    0.5631478382E+00    0.1306114724E-02    0.8612419460E-01    0.1167076869E+00    0.5973842314E+00
    0.3100000000E+06    0.5631589335E+00    0.1264655124E-02    0.8608692335E-01    0.1167240086E+00    0.5974960762E+00
    0.3300000000E+06    0.5631680182E+00    0.1226977541E-02    0.8605166880E-01    0.1167390420E+00    0.5975987257E+00
    0.3500000000E+06    0.5631754747E+00    0.1192537866E-02    0.8601822302E-01    0.1167529683E+00    0.5976934630E+00
    0.3700000000E+06    0.5631815985E+00    0.1160895791E-02    0.8598640855E-01    0.1167659340E+00    0.5977813286E+00
    0.3900000000E+06    0.5631866214E+00    0.1131690642E-02    0.8595607276E-01    0.1167780588E+00    0.5978631774E+00
    0.4100000000E+06    0.5631907274E+00    0.1104623756E-02    0.8592708346E-01    0.1167894420E+00    0.5979397190E+00
    0.4300000000E+06    0.5631940640E+00    0.1079445400E-02    0.8589932545E-01    0.1168001664E+00    0.5980115488E+00
    0.4500000000E+06    0.5631967508E+00    0.1055944920E-02    0.8587269767E-01    0.1168103021E+00    0.5980791705E+00
    0.4700000000E+06    0.5631988857E+00    0.1033943202E-02    0.8584711105E-01    0.1168199086E+00    0.5981430135E+00
    0.4900000000E+06    0.5632005492E+00    0.1013286850E-02    0.8582248665E-01    0.1168290373E+00    0.5982034471E+00
    0.1000000000E+06    0.5626689094E+00    0.2183547852E-02    0.8665657754E-01    0.1163856751E+00    0.5951694290E+00
    0.3000000000E+06    0.5631536653E+00    0.1284873270E-02    0.8610529251E-01    0.1167160218E+00    0.5974413948E+00
    0.5000000000E+06    0.5632012257E+00    0.1003421137E-02    0.8581051302E-01    0.1168334364E+00    0.5982324869E+00
    0.7000000000E+06    0.5632015105E+00    0.8524892804E-03    0.8560794076E-01    0.1169044787E+00    0.5986932152E+00
    0.9000000000E+06    0.5631906199E+00    0.7547173274E-03    0.8545324131E-01    0.1169552952E+00    0.5990122606E+00
    0.1100000000E+07    0.5631766814E+00    0.6847410045E-03    0.8532796878E-01    0.1169948140E+00    0.5992538040E+00
    0.1300000000E+07    0.5631621852E+00    0.6314497443E-03    0.8522265176E-01    0.1170271309E+00    0.5994469315E+00
    0.1500000000E+07    0.5631480015E+00    0.5891026634E-03    0.8513177197E-01    0.1170544599E+00    0.5996071461E+00
    0.1700000000E+07    0.5631344380E+00    0.5543936780E-03    0.8505182876E-01    0.1170781316E+00    0.5997436335E+00
    0.1900000000E+07    0.5631215842E+00    0.5252661442E-03    0.8498046050E-01    0.1170990078E+00    0.5998622603E+00
    0.2100000000E+07    0.5631094414E+00    0.5003644013E-03    0.8491599799E-01    0.1171176781E+00    0.5999669891E+00
    0.2300000000E+07    0.5630979746E+00    0.4787535889E-03    0.8485721735E-01    0.1171345635E+00    0.6000606156E+00
    0.2500000000E+07    0.5630871361E+00    0.4597652530E-03    0.8480319436E-01    0.1171499751E+00    0.6001451819E+00
    0.2700000000E+07    0.5630768753E+00    0.4429070069E-03    0.8475321381E-01    0.1171641494E+00    0.6002222230E+00
    0.2900000000E+07    0.5630671433E+00    0.4278070313E-03    0.8470671087E-01    0.1171772701E+00    0.6002929203E+00
    0.3100000000E+07    0.5630578948E+00    0.4141785679E-03    0.8466323156E-01    0.1171894830E+00    0.6003582015E+00
    0.3300000000E+07    0.5630490883E+00    0.4017964155E-03    0.8462240556E-01    0.1172009054E+00    0.6004188079E+00
    0.3500000000E+07    0.5630406869E+00    0.3904809083E-03    0.8458392675E-01    0.1172116334E+00    0.6004753408E+00
    0.3700000000E+07    0.5630326572E+00    0.3800867153E-03    0.8454753922E-01    0.1172217466E+00    0.6005282940E+00
    0.3900000000E+07    0.5630249693E+00    0.3704948341E-03    0.8451302680E-01    0.1172313116E+00    0.6005780783E+00
    0.4100000000E+07    0.5630175968E+00    0.3616067554E-03    0.8448020527E-01    0.1172403848E+00    0.6006250387E+00
    0.4300000000E+07    0.5630105156E+00    0.3533401344E-03    0.8444891629E-01    0.1172490143E+00    0.6006694673E+00
    0.4500000000E+07    0.5630037045E+00    0.3456255310E-03    0.8441902285E-01    0.1172572414E+00    0.6007116142E+00
    0.4700000000E+07    0.5629971441E+00    0.3384039184E-03    0.8439040551E-01    0.1172651020E+00    0.6007516944E+00
    0.4900000000E+07    0.5629908172E+00    0.3316247567E-03    0.8436295959E-01    0.1172726273E+00    0.6007898945E+00
    0.1000000000E+07    0.5631838161E+00    0.7171311723E-03    0.8538764641E-01    0.1169761478E+00    0.5991404459E+00
    0.3000000000E+07    0.5630624613E+00    0.4208241620E-03    0.8468461811E-01    0.1171834821E+00    0.6003261878E+00
    0.5000000000E+07    0.5629877363E+00    0.3283872438E-03    0.8434964664E-01    0.1172762730E+00    0.6008083412E+00
    0.7000000000E+07    0.5629352704E+00    0.2788809679E-03    0.8412728748E-01    0.1173367736E+00    0.6011090527E+00
    0.9000000000E+07    0.5628949076E+00    0.2468340425E-03    0.8396054016E-01    0.1173817452E+00    0.6013264060E+00
    0.1100000000E+08    0.5628621177E+00    0.2239083439E-03    0.8382706892E-01    0.1174175541E+00    0.6014960533E+00
    0.1300000000E+08    0.5628345082E+00    0.2064548063E-03    0.8371577427E-01    0.1174473103E+00    0.6016348898E+00
    0.1500000000E+08    0.5628106649E+00    0.1925891239E-03    0.8362032621E-01    0.1174727678E+00    0.6017522279E+00
    0.1700000000E+08    0.5627896830E+00    0.1812266583E-03    0.8353677025E-01    0.1174950137E+00    0.6018537347E+00
    0.1900000000E+08    0.5627709488E+00    0.1716929235E-03    0.8346246966E-01    0.1175147687E+00    0.6019431100E+00
    0.2100000000E+08    0.5627540268E+00    0.1635434537E-03    0.8339557792E-01    0.1175325351E+00    0.6020229000E+00
    0.2300000000E+08    0.5627385971E+00    0.1564718207E-03    0.8333475143E-01    0.1175486770E+00    0.6020949303E+00
    0.2500000000E+08    0.5627244174E+00    0.1502589639E-03    0.8327898190E-01    0.1175634671E+00    0.6021605536E+00
    0.2700000000E+08    0.5627113003E+00    0.1447435504E-03    0.8322749332E-01    0.1175771144E+00    0.6022207994E+00
