  Pressure (Pa) 22mC5-400 (mol/kg) 2mC6-400 (mol/kg) 3mC6-400 (mol/kg) 23mC5-400 (mol/kg) C7-400 (mol/kg)
    0.1000000000E+01    0.3161391408E-02    0.6307266785E-02    0.5243323213E-03    0.1850358280E-03    0.5105118573E-02
    0.3000000000E+01    0.9281073231E-02    0.1822403357E-01    0.1524801243E-02    0.5432278484E-03    0.1484808975E-01
    0.5000000000E+01    0.1514767425E-01    0.2928623300E-01    0.2466093085E-02    0.8866167149E-03    0.2401726505E-01
    0.7000000000E+01    0.2078050091E-01    0.3957495781E-01    0.3353644319E-02    0.1216331548E-02    0.3266528829E-01
    0.9000000000E+01    0.2619688144E-01    0.4916155133E-01    0.4192235876E-02    0.1533385786E-02    0.4083845981E-01
    0.1100000000E+02    0.3141241450E-01    0.5810901991E-01    0.4986089525E-02    0.1838691720E-02    0.4857766869E-01
    0.1300000000E+02    0.3644118120E-01    0.6647320740E-01    0.5738947710E-02    0.2133072897E-02    0.5591916496E-01
    0.1500000000E+02    0.4129592657E-01    0.7430377705E-01    0.6454140050E-02    0.2417274729E-02    0.6289520298E-01
    0.1700000000E+02    0.4598821565E-01    0.8164503673E-01    0.7134639051E-02    0.2691973618E-02    0.6953458033E-01
    0.1900000000E+02    0.5052856801E-01    0.8853663579E-01    0.7783107003E-02    0.2957784828E-02    0.7586309162E-01
    0.2100000000E+02    0.5492657438E-01    0.9501415627E-01    0.8401935667E-02    0.3215269302E-02    0.8190391241E-01
    0.2300000000E+02    0.5919099787E-01    0.1011096167E+00    0.8993279999E-02    0.3464939579E-02    0.8767792555E-01
    0.2500000000E+02    0.6332986222E-01    0.1068519029E+00    0.9559086941E-02    0.3707264961E-02    0.9320399982E-01
    0.2700000000E+02    0.6735052897E-01    0.1122671385E+00    0.1010112010E-01    0.3942676020E-02    0.9849922868E-01
    0.2900000000E+02    0.7125976516E-01    0.1173790039E+00    0.1062098098E-01    0.4171568557E-02    0.1035791359E+00
    0.3100000000E+02    0.7506380276E-01    0.1222090123E+00    0.1112012733E-01    0.4394307084E-02    0.1084578528E+00
    0.3300000000E+02    0.7876839123E-01    0.1267767495E+00    0.1159988903E-01    0.4611227891E-02    0.1131482727E+00
    0.3500000000E+02    0.8237884383E-01    0.1311000826E+00    0.1206148195E-01    0.4822641757E-02    0.1176621841E+00
    0.3700000000E+02    0.8590007879E-01    0.1351953425E+00    0.1250601997E-01    0.5028836356E-02    0.1220103878E+00
    0.3900000000E+02    0.8933665583E-01    0.1390774832E+00    0.1293452557E-01    0.5230078395E-02    0.1262027993E+00
    0.4100000000E+02    0.9269280866E-01    0.1427602224E+00    0.1334793908E-01    0.5426615516E-02    0.1302485382E+00
    0.4300000000E+02    0.9597247407E-01    0.1462561653E+00    0.1374712687E-01    0.5618677991E-02    0.1341560074E+00
    0.4500000000E+02    0.9917931786E-01    0.1495769131E+00    0.1413288852E-01    0.5806480244E-02    0.1379329625E+00
    0.4700000000E+02    0.1023167581E+00    0.1527331603E+00    0.1450596319E-01    0.5990222213E-02    0.1415865741E+00
    0.4900000000E+02    0.1053879862E+00    0.1557347803E+00    0.1486703532E-01    0.6170090568E-02    0.1451234822E+00
    0.1000000000E+02    0.2882884053E-01    0.5371153048E-01    0.4594510639E-02    0.1687453872E-02    0.4475994333E-01
    0.3000000000E+02    0.7317456371E-01    0.1198279735E+00    0.1087305753E-01    0.4283685426E-02    0.1060428099E+00
    0.5000000000E+02    0.1068997105E+00    0.1571804849E+00    0.1504327058E-01    0.6258627121E-02    0.1468501143E+00
    0.7000000000E+02    0.1342885523E+00    0.1798624572E+00    0.1806986043E-01    0.7862874360E-02    0.1765369224E+00
    0.9000000000E+02    0.1575043840E+00    0.1942046027E+00    0.2039946572E-01    0.9222970513E-02    0.1994381665E+00
    0.1100000000E+03    0.1777687015E+00    0.2034400189E+00    0.2226885775E-01    0.1041037134E-01    0.2178537619E+00
    0.1300000000E+03    0.1958299096E+00    0.2093761956E+00    0.2381605232E-01    0.1146885914E-01    0.2331254066E+00
    0.1500000000E+03    0.2121761817E+00    0.2130940193E+00    0.2512737508E-01    0.1242699331E-01    0.2460929440E+00
    0.1700000000E+03    0.2271421931E+00    0.2152743959E+00    0.2625984488E-01    0.1330435366E-01    0.2573115119E+00
    0.1900000000E+03    0.2409669105E+00    0.2163643622E+00    0.2725279479E-01    0.1411492089E-01    0.2671643378E+00
    0.2100000000E+03    0.2538268621E+00    0.2166674082E+00    0.2813433641E-01    0.1486902286E-01    0.2759255121E+00
    0.2300000000E+03    0.2658562781E+00    0.2163953254E+00    0.2892516190E-01    0.1557451286E-01    0.2837969261E+00
    0.2500000000E+03    0.2771598041E+00    0.2156993388E+00    0.2964088579E-01    0.1623751332E-01    0.2909310337E+00
    0.2700000000E+03    0.2878208164E+00    0.2146895202E+00    0.3029354436E-01    0.1686290230E-01    0.2974454310E+00
    0.2900000000E+03    0.2979070283E+00    0.2134472914E+00    0.3089258797E-01    0.1745464150E-01    0.3034325106E+00
    0.3100000000E+03    0.3074743717E+00    0.2120337060E+00    0.3144555678E-01    0.1801600335E-01    0.3089660374E+00
    0.3300000000E+03    0.3165697472E+00    0.2104950701E+00    0.3195855261E-01    0.1854973189E-01    0.3141057433E+00
    0.3500000000E+03    0.3252330127E+00    0.2088668386E+00    0.3243657565E-01    0.1905815915E-01    0.3189006065E+00
    0.3700000000E+03    0.3334984492E+00    0.2071763702E+00    0.3288376945E-01    0.1954329086E-01    0.3233912395E+00
    0.3900000000E+03    0.3413958571E+00    0.2054449060E+00    0.3330360244E-01    0.2000687066E-01    0.3276116580E+00
    0.4100000000E+03    0.3489513912E+00    0.2036890143E+00    0.3369900436E-01    0.2045042888E-01    0.3315906118E+00
    0.4300000000E+03    0.3561882026E+00    0.2019216592E+00    0.3407247039E-01    0.2087532016E-01    0.3353526005E+00
    0.4500000000E+03    0.3631269413E+00    0.2001530006E+00    0.3442614155E-01    0.2128275278E-01    0.3389186585E+00
    0.4700000000E+03    0.3697861516E+00    0.1983910002E+00    0.3476186766E-01    0.2167381190E-01    0.3423069693E+00
    0.4900000000E+03    0.3761825892E+00    0.1966418854E+00    0.3508125695E-01    0.2204947799E-01    0.3455333509E+00
    0.1000000000E+03    0.1679508452E+00    0.1993250949E+00    0.2138147326E-01    0.9835061575E-02    0.2091073890E+00
    0.3000000000E+03    0.3027524420E+00    0.2127587309E+00    0.3117442113E-01    0.1773893725E-01    0.3062519496E+00
    0.5000000000E+03    0.3792870789E+00    0.1957737215E+00    0.3523527174E-01    0.2223182016E-01    0.3470902114E+00
    0.7000000000E+03    0.4306596510E+00    0.1797925992E+00    0.3772210186E-01    0.2525068587E-01    0.3723288794E+00
    0.9000000000E+03    0.4672653800E+00    0.1667535642E+00    0.3948440906E-01    0.2740395576E-01    0.3903407868E+00
    0.1100000000E+04    0.4943551040E+00    0.1562218824E+00    0.4083360611E-01    0.2899909602E-01    0.4042109513E+00
    0.1300000000E+04    0.5150007626E+00    0.1476063963E+00    0.4191736601E-01    0.3021606946E-01    0.4154084383E+00
    0.1500000000E+04    0.5311248034E+00    0.1404363679E+00    0.4281699418E-01    0.3116754802E-01    0.4247449797E+00
    0.1700000000E+04    0.5439830184E+00    0.1343674665E+00    0.4358188086E-01    0.3192716269E-01    0.4327152220E+00
    0.1900000000E+04    0.5544233040E+00    0.1291510924E+00    0.4424420052E-01    0.3254464823E-01    0.4396422966E+00
    0.2100000000E+04    0.5630343081E+00    0.1246063941E+00    0.4482603818E-01    0.3305454631E-01    0.4457485685E+00
    0.2300000000E+04    0.5702347483E+00    0.1205998925E+00    0.4534318256E-01    0.3348143665E-01    0.4511933782E+00
    0.2500000000E+04    0.5763289577E+00    0.1170314381E+00    0.4580729458E-01    0.3384319116E-01    0.4560946625E+00
    0.2700000000E+04    0.5815424385E+00    0.1138246358E+00    0.4622721924E-01    0.3415305750E-01    0.4605420586E+00
    0.2900000000E+04    0.5860452029E+00    0.1109202814E+00    0.4660981654E-01    0.3442102726E-01    0.4646052192E+00
    0.3100000000E+04    0.5899674485E+00    0.1082718086E+00    0.4696050824E-01    0.3465475510E-01    0.4683392926E+00
    0.3300000000E+04    0.5934103049E+00    0.1058420872E+00    0.4728364932E-01    0.3486018899E-01    0.4717886518E+00
    0.3500000000E+04    0.5964533413E+00    0.1036011356E+00    0.4758278736E-01    0.3504201066E-01    0.4749895021E+00
    0.3700000000E+04    0.5991599022E+00    0.1015244642E+00    0.4786084811E-01    0.3520394865E-01    0.4779717489E+00
    0.3900000000E+04    0.6015809591E+00    0.9959185633E-01    0.4812027089E-01    0.3534900443E-01    0.4807603629E+00
    0.4100000000E+04    0.6037579329E+00    0.9778646041E-01    0.4836310927E-01    0.3547961806E-01    0.4833763961E+00
    0.4300000000E+04    0.6057247895E+00    0.9609410451E-01    0.4859110717E-01    0.3559779121E-01    0.4858377513E+00
    0.4500000000E+04    0.6075096142E+00    0.9450277245E-01    0.4880575724E-01    0.3570517973E-01    0.4881597718E+00
    0.4700000000E+04    0.6091358102E+00    0.9300219903E-01    0.4900834612E-01    0.3580316394E-01    0.4903557011E+00
    0.4900000000E+04    0.6106230184E+00    0.9158355398E-01    0.4919999013E-01    0.3589290277E-01    0.4924370435E+00
    0.1000000000E+04    0.4817727439E+00    0.1612133084E+00    0.4019921744E-01    0.2825799571E-01    0.3976800131E+00
    0.3000000000E+04    0.5880719893E+00    0.1095665711E+00    0.4678885688E-01    0.3454176558E-01    0.4665104008E+00
    0.5000000000E+04    0.6113197904E+00    0.9090252503E-01    0.4929201716E-01    0.3593499232E-01    0.4934379362E+00
    0.7000000000E+04    0.6208906859E+00    0.8017088610E-01    0.5074034916E-01    0.3651713265E-01    0.5093262107E+00
    0.9000000000E+04    0.6260173446E+00    0.7285248121E-01    0.5171926006E-01    0.3683377539E-01    0.5202355796E+00
    0.1100000000E+05    0.6291878219E+00    0.6740266336E-01    0.5243906760E-01    0.3703266839E-01    0.5283670929E+00
    0.1300000000E+05    0.6313339651E+00    0.6311884867E-01    0.5299743120E-01    0.3716942429E-01    0.5347517185E+00
    0.1500000000E+05    0.6328796209E+00    0.5962535630E-01    0.5344695365E-01    0.3726946734E-01    0.5399489335E+00
    0.1700000000E+05    0.6340441758E+00    0.5669911729E-01    0.5381889765E-01    0.3734602549E-01    0.5442934593E+00
    0.1900000000E+05    0.6349521948E+00    0.5419754508E-01    0.5413320031E-01    0.3740664879E-01    0.5480000497E+00
    0.2100000000E+05    0.6356795036E+00    0.5202435578E-01    0.5440327092E-01    0.3745595740E-01    0.5512139509E+00
    0.2300000000E+05    0.6362748363E+00    0.5011170639E-01    0.5463851214E-01    0.3749693657E-01    0.5540375404E+00
    0.2500000000E+05    0.6367709105E+00    0.4841014034E-01    0.5484574230E-01    0.3753160112E-01    0.5565454211E+00
    0.2700000000E+05    0.6371904915E+00    0.4688258698E-01    0.5503004436E-01    0.3756136050E-01    0.5587934662E+00
    0.2900000000E+05    0.6375498994E+00    0.4550060666E-01    0.5519529649E-01    0.3758723054E-01    0.5608244939E+00
    0.3100000000E+05    0.6378611348E+00    0.4424194742E-01    0.5534451664E-01    0.3760996220E-01    0.5626719653E+00
    0.3300000000E+05    0.6381332154E+00    0.4308890174E-01    0.5548009361E-01    0.3763012283E-01    0.5643624733E+00
    0.3500000000E+05    0.6383730471E+00    0.4202716991E-01    0.5560394643E-01    0.3764814923E-01    0.5659174645E+00
    0.3700000000E+05    0.6385860066E+00    0.4104505445E-01    0.5571763698E-01    0.3766438330E-01    0.5673544593E+00
    0.3900000000E+05    0.6387763416E+00    0.4013287687E-01    0.5582245115E-01    0.3767909658E-01    0.5686879354E+00
    0.4100000000E+05    0.6389474518E+00    0.3928254747E-01    0.5591945861E-01    0.3769250759E-01    0.5699299781E+00
    0.4300000000E+05    0.6391020903E+00    0.3848724270E-01    0.5600955743E-01    0.3770479419E-01    0.5710907686E+00
    0.4500000000E+05    0.6392425097E+00    0.3774115948E-01    0.5609350789E-01    0.3771610273E-01    0.5721789552E+00
    0.4700000000E+05    0.6393705711E+00    0.3703932573E-01    0.5617195855E-01    0.3772655470E-01    0.5732019390E+00
    0.4900000000E+05    0.6394878250E+00    0.3637745234E-01    0.5624546650E-01    0.3773625192E-01    0.5741660976E+00
    0.1000000000E+05    0.6277708674E+00    0.6994887710E-01    0.5210394709E-01    0.3694339660E-01    0.5245684649E+00
    0.3000000000E+05    0.6377109171E+00    0.4485705987E-01    0.5527174866E-01    0.3759894963E-01    0.5617693742E+00
    0.5000000000E+05    0.6395428145E+00    0.3606031793E-01    0.5628052003E-01    0.3774084488E-01    0.5746278745E+00
    0.7000000000E+05    0.6403037870E+00    0.3112504178E-01    0.5681074706E-01    0.3780830632E-01    0.5817987932E+00
    0.9000000000E+05    0.6407180113E+00    0.2784195249E-01    0.5714519615E-01    0.3784970478E-01    0.5865554103E+00
    0.1100000000E+06    0.6409773762E+00    0.2544928006E-01    0.5737782266E-01    0.3787859996E-01    0.5900170192E+00
    0.1300000000E+06    0.6411544197E+00    0.2360255959E-01    0.5754988924E-01    0.3790038979E-01    0.5926870386E+00
    0.1500000000E+06    0.6412825787E+00    0.2211971419E-01    0.5768267252E-01    0.3791768670E-01    0.5948305706E+00
    0.1700000000E+06    0.6413793858E+00    0.2089405050E-01    0.5778837018E-01    0.3793192545E-01    0.5966025348E+00
    0.1900000000E+06    0.6414549107E+00    0.1985826867E-01    0.5787452509E-01    0.3794396746E-01    0.5981004498E+00
    0.2100000000E+06    0.6415153443E+00    0.1896749648E-01    0.5794607527E-01    0.3795436533E-01    0.5993892324E+00
    0.2300000000E+06    0.6415646992E+00    0.1819048992E-01    0.5800640069E-01    0.3796349225E-01    0.6005140273E+00
    0.2500000000E+06    0.6416056888E+00    0.1750472252E-01    0.5805789933E-01    0.3797161074E-01    0.6015073507E+00
    0.2700000000E+06    0.6416402126E+00    0.1689348080E-01    0.5810232327E-01    0.3797891175E-01    0.6023933092E+00
    0.2900000000E+06    0.6416696394E+00    0.1634406312E-01    0.5814098468E-01    0.3798553807E-01    0.6031902114E+00
    0.3100000000E+06    0.6416949799E+00    0.1584661780E-01    0.5817488708E-01    0.3799159900E-01    0.6039122506E+00
    0.3300000000E+06    0.6417169965E+00    0.1539336845E-01    0.5820481189E-01    0.3799717990E-01    0.6045706262E+00
    0.3500000000E+06    0.6417362747E+00    0.1497808237E-01    0.5823137725E-01    0.3800234860E-01    0.6051743113E+00
    0.3700000000E+06    0.6417532716E+00    0.1459569671E-01    0.5825507889E-01    0.3800715981E-01    0.6057305933E+00
    0.3900000000E+06    0.6417683490E+00    0.1424204985E-01    0.5827631926E-01    0.3801165825E-01    0.6062454610E+00
    0.4100000000E+06    0.6417817968E+00    0.1391368461E-01    0.5829542867E-01    0.3801588092E-01    0.6067238893E+00
    0.4300000000E+06    0.6417938503E+00    0.1360770164E-01    0.5831268084E-01    0.3801985874E-01    0.6071700497E+00
    0.4500000000E+06    0.6418047020E+00    0.1332164850E-01    0.5832830464E-01    0.3802361782E-01    0.6075874707E+00
    0.4700000000E+06    0.6418145111E+00    0.1305343464E-01    0.5834249297E-01    0.3802718035E-01    0.6079791599E+00
    0.4900000000E+06    0.6418234103E+00    0.1280126535E-01    0.5835540954E-01    0.3803056538E-01    0.6083476997E+00
    0.1000000000E+06    0.6408611365E+00    0.2656129701E-01    0.5727098156E-01    0.3786528082E-01    0.5884086100E+00
    0.3000000000E+06    0.6416827679E+00    0.1608937141E-01    0.5815847751E-01    0.3798863340E-01    0.6035598291E+00
    0.5000000000E+06    0.6418275543E+00    0.1268070447E-01    0.5836143547E-01    0.3803219657E-01    0.6085239978E+00
    0.7000000000E+06    0.6418822140E+00    0.1082641505E-01    0.5844043084E-01    0.3805853348E-01    0.6112453388E+00
    0.9000000000E+06    0.6419085619E+00    0.9615268776E-02    0.5847540992E-01    0.3807736927E-01    0.6130355320E+00
    0.1100000000E+07    0.6419227868E+00    0.8743595175E-02    0.5849026228E-01    0.3809201750E-01    0.6143324141E+00
    0.1300000000E+07    0.6419308780E+00    0.8077037901E-02    0.5849457587E-01    0.3810399685E-01    0.6153301375E+00
    0.1500000000E+07    0.6419355232E+00    0.7545683220E-02    0.5849289858E-01    0.3811412795E-01    0.6161299743E+00
    0.1700000000E+07    0.6419380897E+00    0.7109052946E-02    0.5848763503E-01    0.3812290392E-01    0.6167907005E+00
    0.1900000000E+07    0.6419393370E+00    0.6741859154E-02    0.5848015711E-01    0.3813064401E-01    0.6173491229E+00
    0.2100000000E+07    0.6419397157E+00    0.6427374703E-02    0.5847129243E-01    0.3813756669E-01    0.6178296449E+00
    0.2300000000E+07    0.6419395068E+00    0.6154030672E-02    0.5846156172E-01    0.3814382794E-01    0.6182491830E+00
    0.2500000000E+07    0.6419388927E+00    0.5913534074E-02    0.5845130335E-01    0.3814954306E-01    0.6186198902E+00
    0.2700000000E+07    0.6419379955E+00    0.5699762868E-02    0.5844074261E-01    0.3815479961E-01    0.6189507576E+00
    0.2900000000E+07    0.6419368994E+00    0.5508085152E-02    0.5843003234E-01    0.3815966570E-01    0.6192486017E+00
    0.3100000000E+07    0.6419356634E+00    0.5334922538E-02    0.5841927757E-01    0.3816419530E-01    0.6195186997E+00
    0.3300000000E+07    0.6419343300E+00    0.5177460462E-02    0.5840855105E-01    0.3816843192E-01    0.6197652102E+00
    0.3500000000E+07    0.6419329297E+00    0.5033450339E-02    0.5839790330E-01    0.3817241117E-01    0.6199914621E+00
    0.3700000000E+07    0.6419314851E+00    0.4901070997E-02    0.5838736932E-01    0.3817616251E-01    0.6202001568E+00
    0.3900000000E+07    0.6419300130E+00    0.4778829461E-02    0.5837697308E-01    0.3817971065E-01    0.6203935127E+00
    0.4100000000E+07    0.6419285259E+00    0.4665488543E-02    0.5836673068E-01    0.3818307646E-01    0.6205733715E+00
    0.4300000000E+07    0.6419270332E+00    0.4560013050E-02    0.5835665250E-01    0.3818627778E-01    0.6207412769E+00
    0.4500000000E+07    0.6419255419E+00    0.4461529220E-02    0.5834674477E-01    0.3818932993E-01    0.6208985340E+00
    0.4700000000E+07    0.6419240575E+00    0.4369293696E-02    0.5833701072E-01    0.3819224620E-01    0.6210462552E+00
    0.4900000000E+07    0.6419225838E+00    0.4282669492E-02    0.5832745134E-01    0.3819503818E-01    0.6211853952E+00
    0.1000000000E+07    0.6419166982E+00    0.9147573555E-02    0.5848457792E-01    0.3808509853E-01    0.6137303645E+00
    0.3000000000E+07    0.6419362959E+00    0.5419380600E-02    0.5842465536E-01    0.3816196963E-01    0.6193868367E+00
    0.5000000000E+07    0.6419218520E+00    0.4241286945E-02    0.5832273702E-01    0.3819639078E-01    0.6212520094E+00
    0.7000000000E+07    0.6419081935E+00    0.3607396444E-02    0.5823702210E-01    0.3821884025E-01    0.6222855871E+00
    0.9000000000E+07    0.6418964992E+00    0.3195970420E-02    0.5816497819E-01    0.3823553070E-01    0.6229725582E+00
    0.1100000000E+08    0.6418864524E+00    0.2901122056E-02    0.5810313425E-01    0.3824882252E-01    0.6234749747E+00
    0.1300000000E+08    0.6418776953E+00    0.2676360424E-02    0.5804901489E-01    0.3825986891E-01    0.6238648877E+00
    0.1500000000E+08    0.6418699523E+00    0.2497623717E-02    0.5800090868E-01    0.3826932036E-01    0.6241800008E+00
    0.1700000000E+08    0.6418630208E+00    0.2351037684E-02    0.5795760523E-01    0.3827758013E-01    0.6244422704E+00
    0.1900000000E+08    0.6418567506E+00    0.2227962802E-02    0.5791822295E-01    0.3828491553E-01    0.6246654929E+00
    0.2100000000E+08    0.6418510286E+00    0.2122699535E-02    0.5788210179E-01    0.3829151293E-01    0.6248588469E+00
    0.2300000000E+08    0.6418457678E+00    0.2031314773E-02    0.5784873540E-01    0.3829750744E-01    0.6250287161E+00
    0.2500000000E+08    0.6418408999E+00    0.1950994551E-02    0.5781772713E-01    0.3830300017E-01    0.6251797014E+00
    0.2700000000E+08    0.6418363709E+00    0.1879665015E-02    0.5778876052E-01    0.3830806872E-01    0.6253152175E+00
