  Pressure (Pa) 22mC5-400 (mol/kg) 2mC6-400 (mol/kg) 3mC6-400 (mol/kg) 23mC5-400 (mol/kg) C7-400 (mol/kg)
    0.1000000000E+01    0.3175082465E-02    0.1587811110E-02    0.3692715578E-02    0.3716736270E-03    0.1712046433E-02
    0.3000000000E+01    0.9398654652E-02    0.4649278432E-02    0.1086426871E-01    0.1100213895E-02    0.5037424555E-02
    0.5000000000E+01    0.1545966828E-01    0.7566127073E-02    0.1776453270E-01    0.1809740274E-02    0.8237580705E-02
    0.7000000000E+01    0.2136521233E-01    0.1034686443E-01    0.2440904448E-01    0.2501081770E-02    0.1131967589E-01
    0.9000000000E+01    0.2712196023E-01    0.1299937048E-01    0.3081216893E-01    0.3175018804E-02    0.1429033133E-01
    0.1100000000E+02    0.3273619974E-01    0.1553095390E-01    0.3698720750E-01    0.3832286696E-02    0.1715567845E-01
    0.1300000000E+02    0.3821386035E-01    0.1794840232E-01    0.4294649508E-01    0.4473578875E-02    0.1992140348E-01
    0.1500000000E+02    0.4356053834E-01    0.2025802732E-01    0.4870148641E-01    0.5099549806E-02    0.2259278723E-01
    0.1700000000E+02    0.4878151982E-01    0.2246570490E-01    0.5426283333E-01    0.5710817685E-02    0.2517474068E-01
    0.1900000000E+02    0.5388180187E-01    0.2457691187E-01    0.5964045414E-01    0.6307966910E-02    0.2767183688E-01
    0.2100000000E+02    0.5886611197E-01    0.2659675867E-01    0.6484359579E-01    0.6891550356E-02    0.3008833961E-01
    0.2300000000E+02    0.6373892599E-01    0.2853001905E-01    0.6988088988E-01    0.7462091472E-02    0.3242822914E-01
    0.2500000000E+02    0.6850448462E-01    0.3038115687E-01    0.7476040317E-01    0.8020086209E-02    0.3469522550E-01
    0.2700000000E+02    0.7316680867E-01    0.3215435042E-01    0.7948968313E-01    0.8566004804E-02    0.3689280947E-01
    0.2900000000E+02    0.7772971311E-01    0.3385351449E-01    0.8407579917E-01    0.9100293423E-02    0.3902424155E-01
    0.3100000000E+02    0.8219682009E-01    0.3548232047E-01    0.8852538005E-01    0.9623375689E-02    0.4109257917E-01
    0.3300000000E+02    0.8657157103E-01    0.3704421457E-01    0.9284464776E-01    0.1013565408E-01    0.4310069235E-01
    0.3500000000E+02    0.9085723771E-01    0.3854243451E-01    0.9703944836E-01    0.1063751125E-01    0.4505127784E-01
    0.3700000000E+02    0.9505693266E-01    0.3998002474E-01    0.1011152800E+00    0.1112931123E-01    0.4694687205E-01
    0.3900000000E+02    0.9917361875E-01    0.4135985034E-01    0.1050773186E+00    0.1161140052E-01    0.4878986287E-01
    0.4100000000E+02    0.1032101181E+00    0.4268460974E-01    0.1089304410E+00    0.1208410921E-01    0.5058250041E-01
    0.4300000000E+02    0.1071691205E+00    0.4395684642E-01    0.1126792465E+00    0.1254775186E-01    0.5232690681E-01
    0.4500000000E+02    0.1110531908E+00    0.4517895960E-01    0.1163280765E+00    0.1300262847E-01    0.5402508527E-01
    0.4700000000E+02    0.1148647765E+00    0.4635321409E-01    0.1198810321E+00    0.1344902529E-01    0.5567892829E-01
    0.4900000000E+02    0.1186062142E+00    0.4748174937E-01    0.1233419906E+00    0.1388721559E-01    0.5729022525E-01
    0.1000000000E+02    0.2994651484E-01    0.1427984163E-01    0.3392740642E-01    0.3505692107E-02    0.1573580309E-01
    0.3000000000E+02    0.7997502209E-01    0.3467649178E-01    0.8631725847E-01    0.9363209716E-02    0.4006611357E-01
    0.5000000000E+02    0.1204513289E+00    0.4802950869E-01    0.1250391253E+00    0.1410331534E-01    0.5808045166E-01
    0.7000000000E+02    0.1541637026E+00    0.5702110922E-01    0.1549461784E+00    0.1805211237E-01    0.7201789377E-01
    0.9000000000E+02    0.1828761780E+00    0.6317600136E-01    0.1788229705E+00    0.2141592565E-01    0.8316390012E-01
    0.1100000000E+03    0.2077619763E+00    0.6741606099E-01    0.1983838687E+00    0.2433198403E-01    0.9231035417E-01
    0.1300000000E+03    0.2296342662E+00    0.7032591417E-01    0.2147435890E+00    0.2689540613E-01    0.9997245110E-01
    0.1500000000E+03    0.2490765752E+00    0.7229065817E-01    0.2286592306E+00    0.2917445168E-01    0.1065003029E+00
    0.1700000000E+03    0.2665202245E+00    0.7357190526E-01    0.2406636505E+00    0.3121957776E-01    0.1121404619E+00
    0.1900000000E+03    0.2822922697E+00    0.7435196172E-01    0.2511431740E+00    0.3306904569E-01    0.1170717801E+00
    0.2100000000E+03    0.2966462623E+00    0.7476059869E-01    0.2603850086E+00    0.3475251901E-01    0.1214272957E+00
    0.2300000000E+03    0.3097826136E+00    0.7489186045E-01    0.2686073169E+00    0.3629344521E-01    0.1253081201E+00
    0.2500000000E+03    0.3218624485E+00    0.7481494231E-01    0.2759789338E+00    0.3771067621E-01    0.1287925454E+00
    0.2700000000E+03    0.3330172628E+00    0.7458141746E-01    0.2826326677E+00    0.3901959795E-01    0.1319421910E+00
    0.2900000000E+03    0.3433558034E+00    0.7423014869E-01    0.2886745030E+00    0.4023293518E-01    0.1348062575E+00
    0.3100000000E+03    0.3529690667E+00    0.7379069452E-01    0.2941901063E+00    0.4136133610E-01    0.1374245346E+00
    0.3300000000E+03    0.3619339961E+00    0.7328571320E-01    0.2992495182E+00    0.4241380489E-01    0.1398295714E+00
    0.3500000000E+03    0.3703162603E+00    0.7273268653E-01    0.3039105964E+00    0.4339802674E-01    0.1420482701E+00
    0.3700000000E+03    0.3781723747E+00    0.7214517332E-01    0.3082215816E+00    0.4432061594E-01    0.1441030728E+00
    0.3900000000E+03    0.3855513407E+00    0.7153373246E-01    0.3122230383E+00    0.4518730770E-01    0.1460128605E+00
    0.4100000000E+03    0.3924959311E+00    0.7090661043E-01    0.3159493402E+00    0.4600310846E-01    0.1477936411E+00
    0.4300000000E+03    0.3990437078E+00    0.7027025863E-01    0.3194298222E+00    0.4677241503E-01    0.1494590829E+00
    0.4500000000E+03    0.4052278378E+00    0.6962972628E-01    0.3226896823E+00    0.4749910991E-01    0.1510209330E+00
    0.4700000000E+03    0.4110777524E+00    0.6898896130E-01    0.3257506954E+00    0.4818663857E-01    0.1524893475E+00
    0.4900000000E+03    0.4166196865E+00    0.6835104254E-01    0.3286317832E+00    0.4883807241E-01    0.1538731565E+00
    0.1000000000E+03    0.1957400170E+00    0.6549296228E-01    0.1890627377E+00    0.2292321067E-01    0.8795002587E-01
    0.3000000000E+03    0.3482479927E+00    0.7401988983E-01    0.2914933853E+00    0.4080715563E-01    0.1361439367E+00
    0.5000000000E+03    0.4192825959E+00    0.6803392026E-01    0.3300101027E+00    0.4915112427E-01    0.1545357839E+00
    0.7000000000E+03    0.4609583933E+00    0.6218736283E-01    0.3512216616E+00    0.5405424312E-01    0.1647912409E+00
    0.9000000000E+03    0.4882121754E+00    0.5744565987E-01    0.3649979502E+00    0.5726567608E-01    0.1715255913E+00
    0.1100000000E+04    0.5073099056E+00    0.5363537916E-01    0.3748167319E+00    0.5951963307E-01    0.1763735229E+00
    0.1300000000E+04    0.5213706626E+00    0.5052234204E-01    0.3822460766E+00    0.6118180023E-01    0.1800755949E+00
    0.1500000000E+04    0.5321185307E+00    0.4792797743E-01    0.3881070340E+00    0.6245442522E-01    0.1830212884E+00
    0.1700000000E+04    0.5405800492E+00    0.4572594681E-01    0.3928753304E+00    0.6345799492E-01    0.1854372183E+00
    0.1900000000E+04    0.5474021793E+00    0.4382706111E-01    0.3968476082E+00    0.6426848587E-01    0.1874652538E+00
    0.2100000000E+04    0.5530115783E+00    0.4216732698E-01    0.4002194532E+00    0.6493603033E-01    0.1891992892E+00
    0.2300000000E+04    0.5577002859E+00    0.4069986383E-01    0.4031256047E+00    0.6549496169E-01    0.1907042443E+00
    0.2500000000E+04    0.5616745232E+00    0.3938959938E-01    0.4056622326E+00    0.6596953741E-01    0.1920266179E+00
    0.2700000000E+04    0.5650838188E+00    0.3820977378E-01    0.4079000136E+00    0.6637735599E-01    0.1932006986E+00
    0.2900000000E+04    0.5680390943E+00    0.3713959955E-01    0.4098921791E+00    0.6673147931E-01    0.1942523960E+00
    0.3100000000E+04    0.5706242800E+00    0.3616266497E-01    0.4116796671E+00    0.6704179632E-01    0.1952016993E+00
    0.3300000000E+04    0.5729039981E+00    0.3526582314E-01    0.4132945334E+00    0.6731592528E-01    0.1960643089E+00
    0.3500000000E+04    0.5749287768E+00    0.3443840402E-01    0.4147622749E+00    0.6755982622E-01    0.1968527505E+00
    0.3700000000E+04    0.5767386696E+00    0.3367164541E-01    0.4161034533E+00    0.6777822629E-01    0.1975771547E+00
    0.3900000000E+04    0.5783658197E+00    0.3295827521E-01    0.4173348536E+00    0.6797492123E-01    0.1982458151E+00
    0.4100000000E+04    0.5798363096E+00    0.3229219988E-01    0.4184703281E+00    0.6815299280E-01    0.1988655950E+00
    0.4300000000E+04    0.5811715174E+00    0.3166826885E-01    0.4195214209E+00    0.6831496835E-01    0.1994422298E+00
    0.4500000000E+04    0.5823891260E+00    0.3108209400E-01    0.4204978377E+00    0.6846293960E-01    0.1999805546E+00
    0.4700000000E+04    0.5835038843E+00    0.3052990965E-01    0.4214078043E+00    0.6859865220E-01    0.2004846776E+00
    0.4900000000E+04    0.5845281888E+00    0.3000846283E-01    0.4222583431E+00    0.6872357417E-01    0.2009581152E+00
    0.1000000000E+04    0.4985403475E+00    0.5543980503E-01    0.3702789216E+00    0.5848418222E-01    0.1741272918E+00
    0.3000000000E+04    0.5693735275E+00    0.3664036499E-01    0.4108093275E+00    0.6689159253E-01    0.1947387801E+00
    0.5000000000E+04    0.5850097640E+00    0.2975836784E-01    0.4226632467E+00    0.6878238480E-01    0.2011842903E+00
    0.7000000000E+04    0.5917551286E+00    0.2584467233E-01    0.4287418183E+00    0.6961304215E-01    0.2046517375E+00
    0.9000000000E+04    0.5954962144E+00    0.2321684296E-01    0.4325480724E+00    0.7008209392E-01    0.2069107845E+00
    0.1100000000E+05    0.5978693474E+00    0.2128851934E-01    0.4351978267E+00    0.7038496657E-01    0.2085387542E+00
    0.1300000000E+05    0.5995066953E+00    0.1979230159E-01    0.4371686852E+00    0.7059763446E-01    0.2097877628E+00
    0.1500000000E+05    0.6007034152E+00    0.1858582818E-01    0.4387026801E+00    0.7075579010E-01    0.2107878590E+00
    0.1700000000E+05    0.6016156293E+00    0.1758516664E-01    0.4399368672E+00    0.7087842916E-01    0.2116138802E+00
    0.1900000000E+05    0.6023335975E+00    0.1673709704E-01    0.4409552444E+00    0.7097660103E-01    0.2123123793E+00
    0.2100000000E+05    0.6029131066E+00    0.1600597515E-01    0.4418124435E+00    0.7105717660E-01    0.2129140566E+00
    0.2300000000E+05    0.6033904802E+00    0.1536688527E-01    0.4425456817E+00    0.7112465673E-01    0.2134401014E+00
    0.2500000000E+05    0.6037903787E+00    0.1480180208E-01    0.4431812741E+00    0.7118211553E-01    0.2139056823E+00
    0.2700000000E+05    0.6041301284E+00    0.1429731133E-01    0.4437384046E+00    0.7123172589E-01    0.2143219884E+00
    0.2900000000E+05    0.6044222574E+00    0.1384319129E-01    0.4442314203E+00    0.7127506829E-01    0.2146974822E+00
    0.3100000000E+05    0.6046760471E+00    0.1343149471E-01    0.4446712862E+00    0.7131332066E-01    0.2150387019E+00
    0.3300000000E+05    0.6048985191E+00    0.1305593484E-01    0.4450665404E+00    0.7134737939E-01    0.2153507914E+00
    0.3500000000E+05    0.6050950828E+00    0.1271146301E-01    0.4454239397E+00    0.7137793914E-01    0.2156378627E+00
    0.3700000000E+05    0.6052699727E+00    0.1239397085E-01    0.4457489080E+00    0.7140554690E-01    0.2159032487E+00
    0.3900000000E+05    0.6054265504E+00    0.1210007578E-01    0.4460458543E+00    0.7143063943E-01    0.2161496842E+00
    0.4100000000E+05    0.6055675182E+00    0.1182696354E-01    0.4463184028E+00    0.7145356990E-01    0.2163794379E+00
    0.4300000000E+05    0.6056950733E+00    0.1157227071E-01    0.4465695629E+00    0.7147462711E-01    0.2165944103E+00
    0.4500000000E+05    0.6058110201E+00    0.1133399559E-01    0.4468018561E+00    0.7149404962E-01    0.2167962075E+00
    0.4700000000E+05    0.6059168542E+00    0.1111042982E-01    0.4470174127E+00    0.7151203631E-01    0.2169861980E+00
    0.4900000000E+05    0.6060138259E+00    0.1090010517E-01    0.4472180458E+00    0.7152875436E-01    0.2171655561E+00
    0.1000000000E+05    0.5968024292E+00    0.2218614443E-01    0.4339796231E+00    0.7024814185E-01    0.2077837539E+00
    0.3000000000E+05    0.6045534617E+00    0.1363246622E-01    0.4444574152E+00    0.7129476920E-01    0.2148720270E+00
    0.5000000000E+05    0.6060593239E+00    0.1079950460E-01    0.4473132604E+00    0.7153668276E-01    0.2172515704E+00
    0.7000000000E+05    0.6066895965E+00    0.9248513964E-02    0.4487160180E+00    0.7165386766E-01    0.2186003905E+00
    0.9000000000E+05    0.6070319023E+00    0.8231695599E-02    0.4495622663E+00    0.7172642411E-01    0.2195155232E+00
    0.1100000000E+06    0.6072448793E+00    0.7498003208E-02    0.4501311155E+00    0.7177732847E-01    0.2201971842E+00
    0.1300000000E+06    0.6073890124E+00    0.6935871867E-02    0.4505400725E+00    0.7181584264E-01    0.2207349546E+00
    0.1500000000E+06    0.6074923009E+00    0.6487068908E-02    0.4508478684E+00    0.7184648515E-01    0.2211760445E+00
    0.1700000000E+06    0.6075694532E+00    0.6117800922E-02    0.4510873522E+00    0.7187175156E-01    0.2215481468E+00
    0.1900000000E+06    0.6076289206E+00    0.5806917250E-02    0.4512784265E+00    0.7189314635E-01    0.2218687890E+00
    0.2100000000E+06    0.6076758958E+00    0.5540406184E-02    0.4514338953E+00    0.7191163778E-01    0.2221497139E+00
    0.2300000000E+06    0.6077137406E+00    0.5308564426E-02    0.4515623900E+00    0.7192788133E-01    0.2223991444E+00
    0.2500000000E+06    0.6077447239E+00    0.5104428622E-02    0.4516699516E+00    0.7194233906E-01    0.2226230467E+00
    0.2700000000E+06    0.6077704308E+00    0.4922853292E-02    0.4517609399E+00    0.7195534760E-01    0.2228258768E+00
    0.2900000000E+06    0.6077920006E+00    0.4759942029E-02    0.4518385839E+00    0.7196715903E-01    0.2230110442E+00
    0.3100000000E+06    0.6078102725E+00    0.4612682307E-02    0.4519053272E+00    0.7197796655E-01    0.2231812121E+00
    0.3300000000E+06    0.6078258773E+00    0.4478702973E-02    0.4519630544E+00    0.7198792117E-01    0.2233384974E+00
    0.3500000000E+06    0.6078392982E+00    0.4356108463E-02    0.4520132429E+00    0.7199714302E-01    0.2234846088E+00
    0.3700000000E+06    0.6078509111E+00    0.4243362609E-02    0.4520570672E+00    0.7200572904E-01    0.2236209440E+00
    0.3900000000E+06    0.6078610124E+00    0.4139205391E-02    0.4520954731E+00    0.7201375856E-01    0.2237486601E+00
    0.4100000000E+06    0.6078698390E+00    0.4042592124E-02    0.4521292308E+00    0.7202129721E-01    0.2238687247E+00
    0.4300000000E+06    0.6078775822E+00    0.3952648274E-02    0.4521589740E+00    0.7202839990E-01    0.2239819552E+00
    0.4500000000E+06    0.6078843982E+00    0.3868635352E-02    0.4521852285E+00    0.7203511298E-01    0.2240890473E+00
    0.4700000000E+06    0.6078904154E+00    0.3789924816E-02    0.4522084344E+00    0.7204147590E-01    0.2241905983E+00
    0.4900000000E+06    0.6078957406E+00    0.3715977853E-02    0.4522289629E+00    0.7204752253E-01    0.2242871242E+00
    0.1000000000E+06    0.6071496320E+00    0.7838231937E-02    0.4498720070E+00    0.7175383918E-01    0.2198785104E+00
    0.3000000000E+06    0.6078015053E+00    0.4684516718E-02    0.4518731893E+00    0.7197267800E-01    0.2230978598E+00
    0.5000000000E+06    0.6078981722E+00    0.3680642896E-02    0.4522383234E+00    0.7205043653E-01    0.2243336453E+00
    0.7000000000E+06    0.6079260133E+00    0.3138650721E-02    0.4523411524E+00    0.7209750491E-01    0.2250838398E+00
    0.9000000000E+06    0.6079340322E+00    0.2786063449E-02    0.4523590396E+00    0.7213118606E-01    0.2256168386E+00
    0.1100000000E+07    0.6079344177E+00    0.2532941062E-02    0.4523417197E+00    0.7215738768E-01    0.2260277657E+00
    0.1300000000E+07    0.6079314255E+00    0.2339714638E-02    0.4523080328E+00    0.7217882007E-01    0.2263609124E+00
    0.1500000000E+07    0.6079268436E+00    0.2185873191E-02    0.4522664039E+00    0.7219694865E-01    0.2266403644E+00
    0.1700000000E+07    0.6079215148E+00    0.2059574940E-02    0.4522210118E+00    0.7221265433E-01    0.2268806210E+00
    0.1900000000E+07    0.6079158674E+00    0.1953438073E-02    0.4521740735E+00    0.7222650758E-01    0.2270910631E+00
    0.2100000000E+07    0.6079101296E+00    0.1862588230E-02    0.4521268174E+00    0.7223889884E-01    0.2272780970E+00
    0.2300000000E+07    0.6079044265E+00    0.1783658955E-02    0.4520799401E+00    0.7225010701E-01    0.2274462854E+00
    0.2500000000E+07    0.6078988266E+00    0.1714239907E-02    0.4520338382E+00    0.7226033818E-01    0.2275989889E+00
    0.2700000000E+07    0.6078933670E+00    0.1652553502E-02    0.4519887329E+00    0.7226974895E-01    0.2277387518E+00
    0.2900000000E+07    0.6078880661E+00    0.1597255979E-02    0.4519447400E+00    0.7227846108E-01    0.2278675456E+00
    0.3100000000E+07    0.6078829314E+00    0.1547309979E-02    0.4519019113E+00    0.7228657113E-01    0.2279869276E+00
    0.3300000000E+07    0.6078779641E+00    0.1501900101E-02    0.4518602588E+00    0.7229415693E-01    0.2280981487E+00
    0.3500000000E+07    0.6078731614E+00    0.1460375279E-02    0.4518197702E+00    0.7230128213E-01    0.2282022287E+00
    0.3700000000E+07    0.6078685184E+00    0.1422208469E-02    0.4517804186E+00    0.7230799948E-01    0.2283000091E+00
    0.3900000000E+07    0.6078640289E+00    0.1386967801E-02    0.4517421681E+00    0.7231435315E-01    0.2283921926E+00
    0.4100000000E+07    0.6078596861E+00    0.1354295539E-02    0.4517049784E+00    0.7232038050E-01    0.2284793716E+00
    0.4300000000E+07    0.6078554831E+00    0.1323892461E-02    0.4516688067E+00    0.7232611342E-01    0.2285620503E+00
    0.4500000000E+07    0.6078514130E+00    0.1295506090E-02    0.4516336098E+00    0.7233157935E-01    0.2286406607E+00
    0.4700000000E+07    0.6078474689E+00    0.1268921691E-02    0.4515993449E+00    0.7233680206E-01    0.2287155764E+00
    0.4900000000E+07    0.6078436446E+00    0.1243955310E-02    0.4515659702E+00    0.7234180228E-01    0.2287871221E+00
    0.1000000000E+07    0.6079348243E+00    0.2650187513E-02    0.4523532366E+00    0.7214501073E-01    0.2258341196E+00
    0.3000000000E+07    0.6078854778E+00    0.1571669426E-02    0.4519231787E+00    0.7228258613E-01    0.2279283287E+00
    0.5000000000E+07    0.6078417753E+00    0.1232028438E-02    0.4515496041E+00    0.7234422473E-01    0.2288217213E+00
    0.7000000000E+07    0.6078093569E+00    0.1049334905E-02    0.4512602580E+00    0.7238443397E-01    0.2293902607E+00
    0.9000000000E+07    0.6077838408E+00    0.9307324814E-03    0.4510254160E+00    0.7241433201E-01    0.2298063314E+00
    0.1100000000E+08    0.6077628501E+00    0.8457053258E-03    0.4508277801E+00    0.7243814402E-01    0.2301339447E+00
    0.1300000000E+08    0.6077450347E+00    0.7808631593E-03    0.4506570496E+00    0.7245793466E-01    0.2304038606E+00
    0.1500000000E+08    0.6077295651E+00    0.7292775369E-03    0.4505066702E+00    0.7247486868E-01    0.2306332077E+00
    0.1700000000E+08    0.6077158975E+00    0.6869538160E-03    0.4503722267E+00    0.7248966819E-01    0.2308324940E+00
    0.1900000000E+08    0.6077036567E+00    0.6514045078E-03    0.4502506059E+00    0.7250281190E-01    0.2310086251E+00
    0.2100000000E+08    0.6076925735E+00    0.6209884976E-03    0.4501395307E+00    0.7251463359E-01    0.2311663799E+00
    0.2300000000E+08    0.6076824481E+00    0.5945731776E-03    0.4500372845E+00    0.7252537526E-01    0.2313092008E+00
    0.2500000000E+08    0.6076731282E+00    0.5713481157E-03    0.4499425413E+00    0.7253521799E-01    0.2314396492E+00
    0.2700000000E+08    0.6076644952E+00    0.5507159521E-03    0.4498542549E+00    0.7254430081E-01    0.2315596816E+00
