  Pressure (Pa) 22mC5-400 (mol/kg) 2mC6-400 (mol/kg) 3mC6-400 (mol/kg) 23mC5-400 (mol/kg) C7-400 (mol/kg)
    0.1000000000E+01    0.3175787084E-02    0.7949166756E-03    0.1585058210E-02    0.7435123224E-03    0.3429405261E-02
    0.3000000000E+01    0.9404672552E-02    0.2333347046E-02    0.4677476812E-02    0.2201837650E-02    0.1012087363E-01
    0.5000000000E+01    0.1547553145E-01    0.3806225725E-02    0.7670527395E-02    0.3623197124E-02    0.1659831393E-01
    0.7000000000E+01    0.2139471623E-01    0.5216933832E-02    0.1056899838E-01    0.5009076363E-02    0.2287202433E-01
    0.9000000000E+01    0.2716823823E-01    0.6568638078E-02    0.1337737421E-01    0.6360881221E-02    0.2895164976E-01
    0.1100000000E+02    0.3280179013E-01    0.7864307089E-02    0.1609985911E-01    0.7679943041E-02    0.3484623296E-01
    0.1300000000E+02    0.3830076675E-01    0.9106726268E-02    0.1874039867E-01    0.8967523511E-02    0.4056426081E-01
    0.1500000000E+02    0.4367028418E-01    0.1029851136E-01    0.2130269946E-01    0.1022481914E-01    0.4611370646E-01
    0.1700000000E+02    0.4891519752E-01    0.1144212082E-01    0.2379024686E-01    0.1145296542E-01    0.5150206769E-01
    0.1900000000E+02    0.5404011726E-01    0.1253986717E-01    0.2620632136E-01    0.1265304062E-01    0.5673640185E-01
    0.2100000000E+02    0.5904942444E-01    0.1359392734E-01    0.2855401340E-01    0.1382606936E-01    0.6182335779E-01
    0.2300000000E+02    0.6394728474E-01    0.1460635220E-01    0.3083623695E-01    0.1497302592E-01    0.6676920507E-01
    0.2500000000E+02    0.6873766156E-01    0.1557907530E-01    0.3305574198E-01    0.1609483725E-01    0.7157986060E-01
    0.2700000000E+02    0.7342432807E-01    0.1651392085E-01    0.3521512580E-01    0.1719238583E-01    0.7626091322E-01
    0.2900000000E+02    0.7801087857E-01    0.1741261114E-01    0.3731684358E-01    0.1826651230E-01    0.8081764610E-01
    0.3100000000E+02    0.8250073889E-01    0.1827677336E-01    0.3936321791E-01    0.1931801792E-01    0.8525505743E-01
    0.3300000000E+02    0.8689717620E-01    0.1910794581E-01    0.4135644767E-01    0.2034766682E-01    0.8957787941E-01
    0.3500000000E+02    0.9120330808E-01    0.1990758373E-01    0.4329861617E-01    0.2135618818E-01    0.9379059573E-01
    0.3700000000E+02    0.9542211099E-01    0.2067706465E-01    0.4519169865E-01    0.2234427816E-01    0.9789745772E-01
    0.3900000000E+02    0.9955642820E-01    0.2141769331E-01    0.4703756921E-01    0.2331260176E-01    0.1019024992E+00
    0.4100000000E+02    0.1036089772E+00    0.2213070628E-01    0.4883800722E-01    0.2426179460E-01    0.1058095504E+00
    0.4300000000E+02    0.1075823565E+00    0.2281727614E-01    0.5059470322E-01    0.2519246444E-01    0.1096222504E+00
    0.4500000000E+02    0.1114790522E+00    0.2347851550E-01    0.5230926444E-01    0.2610519278E-01    0.1133440592E+00
    0.4700000000E+02    0.1153014440E+00    0.2411548056E-01    0.5398321986E-01    0.2700053621E-01    0.1169782685E+00
    0.4900000000E+02    0.1190518109E+00    0.2472917459E-01    0.5561802492E-01    0.2787902779E-01    0.1205280117E+00
    0.1000000000E+02    0.3000216651E-01    0.7223298771E-02    0.1474910060E-01    0.7024424576E-02    0.3192152870E-01
    0.3000000000E+02    0.8026768720E-01    0.1784891011E-01    0.3834680844E-01    0.1879504411E-01    0.8305096518E-01
    0.5000000000E+02    0.1209006709E+00    0.2502759477E-01    0.5642118186E-01    0.2831211457E-01    0.1222721468E+00
    0.7000000000E+02    0.1545817917E+00    0.2998237325E-01    0.7073315791E-01    0.3620262418E-01    0.1533754907E+00
    0.9000000000E+02    0.1830597015E+00    0.3344760539E-01    0.8236430077E-01    0.4287559393E-01    0.1786902619E+00
    0.1100000000E+03    0.2075256589E+00    0.3588544014E-01    0.9201602334E-01    0.4860968338E-01    0.1997277951E+00
    0.1300000000E+03    0.2288211344E+00    0.3759784043E-01    0.1001633891E+00    0.5360174080E-01    0.2175122237E+00
    0.1500000000E+03    0.2475590196E+00    0.3878824522E-01    0.1071397836E+00    0.5799515030E-01    0.2327626126E+00
    0.1700000000E+03    0.2641975752E+00    0.3959724846E-01    0.1131861914E+00    0.6189712665E-01    0.2459989877E+00
    0.1900000000E+03    0.2790872762E+00    0.4012411556E-01    0.1184812216E+00    0.6538967169E-01    0.2576069634E+00
    0.2100000000E+03    0.2925014739E+00    0.4044021986E-01    0.1231601258E+00    0.6853674611E-01    0.2678786886E+00
    0.2300000000E+03    0.3046570501E+00    0.4059768676E-01    0.1273272467E+00    0.7138910041E-01    0.2770396584E+00
    0.2500000000E+03    0.3157286877E+00    0.4063510006E-01    0.1310644047E+00    0.7398761302E-01    0.2852667799E+00
    0.2700000000E+03    0.3258589579E+00    0.4058135423E-01    0.1344366882E+00    0.7636564973E-01    0.2927008521E+00
    0.2900000000E+03    0.3351655961E+00    0.4045830703E-01    0.1374965419E+00    0.7855076578E-01    0.2994553779E+00
    0.3100000000E+03    0.3437468483E+00    0.4028263822E-01    0.1402867095E+00    0.8056595642E-01    0.3056229091E+00
    0.3300000000E+03    0.3516854645E+00    0.4006717240E-01    0.1428423887E+00    0.8243059125E-01    0.3112796952E+00
    0.3500000000E+03    0.3590517283E+00    0.3982183375E-01    0.1451928352E+00    0.8416112280E-01    0.3164891436E+00
    0.3700000000E+03    0.3659057860E+00    0.3955434375E-01    0.1473625726E+00    0.8577163154E-01    0.3213044311E+00
    0.3900000000E+03    0.3722994604E+00    0.3927073697E-01    0.1493723177E+00    0.8727425014E-01    0.3257705011E+00
    0.4100000000E+03    0.3782776798E+00    0.3897574622E-01    0.1512396962E+00    0.8867949786E-01    0.3299256093E+00
    0.4300000000E+03    0.3838796153E+00    0.3867309302E-01    0.1529798020E+00    0.8999654659E-01    0.3338025316E+00
    0.4500000000E+03    0.3891395951E+00    0.3836570834E-01    0.1546056390E+00    0.9123343479E-01    0.3374295192E+00
    0.4700000000E+03    0.3940878463E+00    0.3805590184E-01    0.1561284735E+00    0.9239724104E-01    0.3408310591E+00
    0.4900000000E+03    0.3987511009E+00    0.3774549251E-01    0.1575581165E+00    0.9349422590E-01    0.3440284861E+00
    0.1000000000E+03    0.1957351031E+00    0.3477321053E-01    0.8740381391E-01    0.4584618021E-01    0.1896708820E+00
    0.3000000000E+03    0.3395413999E+00    0.4037617110E-01    0.1389229808E+00    0.7957831543E-01    0.3026074155E+00
    0.5000000000E+03    0.4009833775E+00    0.3759052149E-01    0.1582407167E+00    0.9401942227E-01    0.3455565864E+00
    0.7000000000E+03    0.4352302397E+00    0.3467402982E-01    0.1686097704E+00    0.1020842272E+00    0.3689075881E+00
    0.9000000000E+03    0.4569793445E+00    0.3224209540E-01    0.1751642633E+00    0.1072158060E+00    0.3838460958E+00
    0.1100000000E+04    0.4719631514E+00    0.3024740719E-01    0.1797186773E+00    0.1107580094E+00    0.3943446112E+00
    0.1300000000E+04    0.4828859597E+00    0.2859018028E-01    0.1830853812E+00    0.1133452299E+00    0.4021898920E+00
    0.1500000000E+04    0.4911871987E+00    0.2718971665E-01    0.1856852710E+00    0.1153153620E+00    0.4083117786E+00
    0.1700000000E+04    0.4977015006E+00    0.2598720642E-01    0.1877593637E+00    0.1168644580E+00    0.4132450074E+00
    0.1900000000E+04    0.5029450908E+00    0.2494020792E-01    0.1894561446E+00    0.1181138566E+00    0.4173203897E+00
    0.2100000000E+04    0.5072538616E+00    0.2401769276E-01    0.1908723531E+00    0.1191425611E+00    0.4207543272E+00
    0.2300000000E+04    0.5108555060E+00    0.2319654745E-01    0.1920738638E+00    0.1200041608E+00    0.4236947624E+00
    0.2500000000E+04    0.5139096815E+00    0.2245921809E-01    0.1931071706E+00    0.1207362570E+00    0.4262465176E+00
    0.2700000000E+04    0.5165315665E+00    0.2179212735E-01    0.1940060769E+00    0.1213659935E+00    0.4284860934E+00
    0.2900000000E+04    0.5188062887E+00    0.2118459712E-01    0.1947957803E+00    0.1219134452E+00    0.4304707278E+00
    0.3100000000E+04    0.5207980942E+00    0.2062810225E-01    0.1954954684E+00    0.1223937729E+00    0.4322441662E+00
    0.3300000000E+04    0.5225563600E+00    0.2011574402E-01    0.1961200234E+00    0.1228186360E+00    0.4338404607E+00
    0.3500000000E+04    0.5241196480E+00    0.1964187185E-01    0.1966811753E+00    0.1231971465E+00    0.4352865457E+00
    0.3700000000E+04    0.5255185039E+00    0.1920180682E-01    0.1971883008E+00    0.1235365268E+00    0.4366040278E+00
    0.3900000000E+04    0.5267774314E+00    0.1879163636E-01    0.1976489902E+00    0.1238425745E+00    0.4378104572E+00
    0.4100000000E+04    0.5279163120E+00    0.1840805951E-01    0.1980694569E+00    0.1241199969E+00    0.4389202492E+00
    0.4300000000E+04    0.5289514434E+00    0.1804826880E-01    0.1984548386E+00    0.1243726552E+00    0.4399453638E+00
    0.4500000000E+04    0.5298963095E+00    0.1770985877E-01    0.1988094224E+00    0.1246037462E+00    0.4408958135E+00
    0.4700000000E+04    0.5307621619E+00    0.1739075459E-01    0.1991368152E+00    0.1248159391E+00    0.4417800499E+00
    0.4900000000E+04    0.5315584622E+00    0.1708915544E-01    0.1994400745E+00    0.1250114801E+00    0.4426052609E+00
    0.1000000000E+04    0.4651060731E+00    0.3119658377E-01    0.1776275302E+00    0.1091361293E+00    0.3895098725E+00
    0.3000000000E+04    0.5198341765E+00    0.2090043453E-01    0.1951558608E+00    0.1221612017E+00    0.4313815259E+00
    0.5000000000E+04    0.5319330831E+00    0.1694442117E-01    0.1995834849E+00    0.1251036126E+00    0.4429976902E+00
    0.7000000000E+04    0.5371982914E+00    0.1467461991E-01    0.2016549096E+00    0.1264108021E+00    0.4488628415E+00
    0.9000000000E+04    0.5401343718E+00    0.1314851910E-01    0.2028618132E+00    0.1271546456E+00    0.4525231242E+00
    0.1100000000E+05    0.5420029175E+00    0.1202949410E-01    0.2036516090E+00    0.1276375716E+00    0.4550770841E+00
    0.1300000000E+05    0.5432945446E+00    0.1116244878E-01    0.2042072050E+00    0.1279780319E+00    0.4569868868E+00
    0.1500000000E+05    0.5442394964E+00    0.1046442139E-01    0.2046178314E+00    0.1282320059E+00    0.4584840518E+00
    0.1700000000E+05    0.5449600427E+00    0.9886395584E-02    0.2049323784E+00    0.1284294276E+00    0.4596986395E+00
    0.1900000000E+05    0.5455270924E+00    0.9397265988E-02    0.2051799424E+00    0.1285877765E+00    0.4607099191E+00
    0.2100000000E+05    0.5459845800E+00    0.8976197995E-02    0.2053789490E+00    0.1287179567E+00    0.4615692502E+00
    0.2300000000E+05    0.5463611680E+00    0.8608632842E-02    0.2055416449E+00    0.1288271304E+00    0.4623115327E+00
    0.2500000000E+05    0.5466763467E+00    0.8284043965E-02    0.2056764925E+00    0.1289202007E+00    0.4629614056E+00
    0.2700000000E+05    0.5469438272E+00    0.7994603165E-02    0.2057895287E+00    0.1290006400E+00    0.4635368172E+00
    0.2900000000E+05    0.5471735339E+00    0.7734349990E-02    0.2058851766E+00    0.1290709788E+00    0.4640511889E+00
    0.3100000000E+05    0.5473728252E+00    0.7498654089E-02    0.2059667511E+00    0.1291331054E+00    0.4645147821E+00
    0.3300000000E+05    0.5475472716E+00    0.7283855643E-02    0.2060367849E+00    0.1291884593E+00    0.4649355932E+00
    0.3500000000E+05    0.5477011669E+00    0.7087018048E-02    0.2060972466E+00    0.1292381570E+00    0.4653199576E+00
    0.3700000000E+05    0.5478378736E+00    0.6905753602E-02    0.2061496888E+00    0.1292830788E+00    0.4656729681E+00
    0.3900000000E+05    0.5479600616E+00    0.6738098011E-02    0.2061953522E+00    0.1293239282E+00    0.4659987712E+00
    0.4100000000E+05    0.5480698781E+00    0.6582418319E-02    0.2062352400E+00    0.1293612747E+00    0.4663007821E+00
    0.4300000000E+05    0.5481690686E+00    0.6437344203E-02    0.2062701718E+00    0.1293955842E+00    0.4665818421E+00
    0.4500000000E+05    0.5482590672E+00    0.6301715951E-02    0.2063008235E+00    0.1294272420E+00    0.4668443373E+00
    0.4700000000E+05    0.5483410622E+00    0.6174544508E-02    0.2063277572E+00    0.1294565695E+00    0.4670902880E+00
    0.4900000000E+05    0.5484160469E+00    0.6054980433E-02    0.2063514443E+00    0.1294838370E+00    0.4673214180E+00
    0.1000000000E+05    0.5411622964E+00    0.1255022437E-01    0.2032941802E+00    0.1274191342E+00    0.4539015976E+00
    0.3000000000E+05    0.5472765984E+00    0.7613680535E-02    0.2059275494E+00    0.1291029698E+00    0.4642887881E+00
    0.5000000000E+05    0.5484511772E+00    0.5997817768E-02    0.2063621972E+00    0.1294967712E+00    0.4674318964E+00
    0.7000000000E+05    0.5489331493E+00    0.5118746481E-02    0.2064770810E+00    0.1296881501E+00    0.4691334827E+00
    0.9000000000E+05    0.5491890107E+00    0.4544827155E-02    0.2064937875E+00    0.1298068223E+00    0.4702550513E+00
    0.1100000000E+06    0.5493442579E+00    0.4131971897E-02    0.2064715380E+00    0.1298901499E+00    0.4710733850E+00
    0.1300000000E+06    0.5494464914E+00    0.3816407012E-02    0.2064319709E+00    0.1299532272E+00    0.4717088186E+00
    0.1500000000E+06    0.5495176144E+00    0.3564948718E-02    0.2063844639E+00    0.1300034287E+00    0.4722234211E+00
    0.1700000000E+06    0.5495690583E+00    0.3358388313E-02    0.2063335301E+00    0.1300448314E+00    0.4726529849E+00
    0.1900000000E+06    0.5496073463E+00    0.3184728633E-02    0.2062814904E+00    0.1300798950E+00    0.4730198462E+00
    0.2100000000E+06    0.5496364578E+00    0.3036036124E-02    0.2062295853E+00    0.1301102033E+00    0.4733387920E+00
    0.2300000000E+06    0.5496589498E+00    0.2906825239E-02    0.2061784879E+00    0.1301368289E+00    0.4736200705E+00
    0.2500000000E+06    0.5496765349E+00    0.2793164799E-02    0.2061285588E+00    0.1301605283E+00    0.4738710501E+00
    0.2700000000E+06    0.5496904000E+00    0.2692153466E-02    0.2060799802E+00    0.1301818527E+00    0.4740971899E+00
    0.2900000000E+06    0.5497013913E+00    0.2601596632E-02    0.2060328310E+00    0.1302012151E+00    0.4743026371E+00
    0.3100000000E+06    0.5497101268E+00    0.2519799223E-02    0.2059871288E+00    0.1302189318E+00    0.4744906097E+00
    0.3300000000E+06    0.5497170671E+00    0.2445428273E-02    0.2059428554E+00    0.1302352504E+00    0.4746636506E+00
    0.3500000000E+06    0.5497225619E+00    0.2377419072E-02    0.2058999716E+00    0.1302503677E+00    0.4748238010E+00
    0.3700000000E+06    0.5497268806E+00    0.2314909449E-02    0.2058584268E+00    0.1302644425E+00    0.4749727222E+00
    0.3900000000E+06    0.5497302339E+00    0.2257192734E-02    0.2058181646E+00    0.1302776050E+00    0.4751117832E+00
    0.4100000000E+06    0.5497327885E+00    0.2203683425E-02    0.2057791264E+00    0.1302899626E+00    0.4752421238E+00
    0.4300000000E+06    0.5497346776E+00    0.2153891688E-02    0.2057412536E+00    0.1303016053E+00    0.4753647028E+00
    0.4500000000E+06    0.5497360089E+00    0.2107404138E-02    0.2057044889E+00    0.1303126092E+00    0.4754803335E+00
    0.4700000000E+06    0.5497368702E+00    0.2063869135E-02    0.2056687772E+00    0.1303230390E+00    0.4755897112E+00
    0.4900000000E+06    0.5497373333E+00    0.2022985394E-02    0.2056340658E+00    0.1303329502E+00    0.4756934350E+00
    0.1000000000E+06    0.5492753294E+00    0.4323286301E-02    0.2064857443E+00    0.1298516928E+00    0.4706926210E+00
    0.3000000000E+06    0.5497060092E+00    0.2559693530E-02    0.2060097996E+00    0.1302102623E+00    0.4743986353E+00
    0.5000000000E+06    0.5497374347E+00    0.2003455131E-02    0.2056170696E+00    0.1303377265E+00    0.4757433416E+00
    0.7000000000E+06    0.5497287283E+00    0.1704364290E-02    0.2053190464E+00    0.1304148688E+00    0.4765408215E+00
    0.9000000000E+06    0.5497117239E+00    0.1510302044E-02    0.2050800937E+00    0.1304700604E+00    0.4770993924E+00
    0.1100000000E+07    0.5496931944E+00    0.1371250711E-02    0.2048806896E+00    0.1305129892E+00    0.4775257397E+00
    0.1300000000E+07    0.5496750400E+00    0.1265261740E-02    0.2047095209E+00    0.1305480996E+00    0.4778687700E+00
    0.1500000000E+07    0.5496578245E+00    0.1180979784E-02    0.2045595099E+00    0.1305777945E+00    0.4781547762E+00
    0.1700000000E+07    0.5496416769E+00    0.1111859041E-02    0.2044259460E+00    0.1306035184E+00    0.4783994448E+00
    0.1900000000E+07    0.5496265745E+00    0.1053824255E-02    0.2043055380E+00    0.1306262063E+00    0.4786128509E+00
    0.2100000000E+07    0.5496124431E+00    0.1004187379E-02    0.2041958962E+00    0.1306464986E+00    0.4788018328E+00
    0.2300000000E+07    0.5495991950E+00    0.9610936787E-03    0.2040952306E+00    0.1306648522E+00    0.4789712350E+00
    0.2500000000E+07    0.5495867441E+00    0.9232162985E-03    0.2040021651E+00    0.1306816050E+00    0.4791246095E+00
    0.2700000000E+07    0.5495750112E+00    0.8895774372E-03    0.2039156192E+00    0.1306970137E+00    0.4792646347E+00
    0.2900000000E+07    0.5495639254E+00    0.8594384278E-03    0.2038347285E+00    0.1307112779E+00    0.4793933782E+00
    0.3100000000E+07    0.5495534238E+00    0.8322293838E-03    0.2037587907E+00    0.1307245557E+00    0.4795124681E+00
    0.3300000000E+07    0.5495434517E+00    0.8075026074E-03    0.2036872275E+00    0.1307369747E+00    0.4796232081E+00
    0.3500000000E+07    0.5495339605E+00    0.7849008175E-03    0.2036195564E+00    0.1307486392E+00    0.4797266583E+00
    0.3700000000E+07    0.5495249078E+00    0.7641349309E-03    0.2035553714E+00    0.1307596357E+00    0.4798236913E+00
    0.3900000000E+07    0.5495162563E+00    0.7449681746E-03    0.2034943270E+00    0.1307700365E+00    0.4799150340E+00
    0.4100000000E+07    0.5495079730E+00    0.7272045024E-03    0.2034361267E+00    0.1307799029E+00    0.4800012979E+00
    0.4300000000E+07    0.5495000285E+00    0.7106800015E-03    0.2033805147E+00    0.1307892870E+00    0.4800830022E+00
    0.4500000000E+07    0.5494923968E+00    0.6952564169E-03    0.2033272682E+00    0.1307982339E+00    0.4801605915E+00
    0.4700000000E+07    0.5494850547E+00    0.6808162038E-03    0.2032761919E+00    0.1308067824E+00    0.4802344490E+00
    0.4900000000E+07    0.5494779814E+00    0.6672586987E-03    0.2032271143E+00    0.1308149666E+00    0.4803049076E+00
    0.1000000000E+07    0.5497024807E+00    0.1435630757E-02    0.2049762863E+00    0.1304927115E+00    0.4773252802E+00
    0.3000000000E+07    0.5495586052E+00    0.8454980760E-03    0.2037961792E+00    0.1307180315E+00    0.4794540418E+00
    0.5000000000E+07    0.5494745396E+00    0.6607833691E-03    0.2032032767E+00    0.1308189316E+00    0.4803389545E+00
    0.7000000000E+07    0.5494161457E+00    0.5617077581E-03    0.2028022556E+00    0.1308847377E+00    0.4808960188E+00
    0.9000000000E+07    0.5493714425E+00    0.4975104600E-03    0.2024983195E+00    0.1309336617E+00    0.4813009716E+00
    0.1100000000E+08    0.5493352308E+00    0.4515518454E-03    0.2022533002E+00    0.1309726228E+00    0.4816183200E+00
    0.1300000000E+08    0.5493047984E+00    0.4165430884E-03    0.2020479237E+00    0.1310050017E+00    0.4818788302E+00
    0.1500000000E+08    0.5492785535E+00    0.3887177584E-03    0.2018710761E+00    0.1310327054E+00    0.4820995405E+00
    0.1700000000E+08    0.5492554823E+00    0.3659066200E-03    0.2017157567E+00    0.1310569157E+00    0.4822908580E+00
    0.1900000000E+08    0.5492348994E+00    0.3467600945E-03    0.2015772676E+00    0.1310784165E+00    0.4824595981E+00
    0.2100000000E+08    0.5492163201E+00    0.3303884932E-03    0.2014523013E+00    0.1310977540E+00    0.4826104632E+00
    0.2300000000E+08    0.5491993884E+00    0.3161782217E-03    0.2013384405E+00    0.1311153243E+00    0.4827468319E+00
    0.2500000000E+08    0.5491838359E+00    0.3036904936E-03    0.2012338645E+00    0.1311314237E+00    0.4828712127E+00
    0.2700000000E+08    0.5491694545E+00    0.2926020629E-03    0.2011371674E+00    0.1311462798E+00    0.4829855177E+00
