  Pressure (Pa) 22mC5-400 (mol/kg) 2mC6-400 (mol/kg) 3mC6-400 (mol/kg) 23mC5-400 (mol/kg) C7-400 (mol/kg)
    0.1000000000E+01    0.3171073876E-02    0.3159993266E-02    0.2623558457E-02    0.1856022780E-03    0.5108815319E-02
    0.3000000000E+01    0.9363993674E-02    0.9165392308E-02    0.7639684842E-02    0.5480789694E-03    0.1487865496E-01
    0.5000000000E+01    0.1536711062E-01    0.1478160441E-01    0.1237054132E-01    0.8994546168E-03    0.2409541642E-01
    0.7000000000E+01    0.2119071027E-01    0.2004141191E-01    0.1684063224E-01    0.1240330699E-02    0.3280653921E-01
    0.9000000000E+01    0.2684432733E-01    0.2497405394E-01    0.2107171059E-01    0.1571264792E-02    0.4105414029E-01
    0.1100000000E+02    0.3233681301E-01    0.2960569532E-01    0.2508315458E-01    0.1892774504E-02    0.4887574222E-01
    0.1300000000E+02    0.3767639519E-01    0.3395982239E-01    0.2889228391E-01    0.2205340998E-02    0.5630488483E-01
    0.1500000000E+02    0.4287073246E-01    0.3805757865E-01    0.3251462684E-01    0.2509412146E-02    0.6337164158E-01
    0.1700000000E+02    0.4792696254E-01    0.4191805086E-01    0.3596414666E-01    0.2805405364E-02    0.7010305757E-01
    0.1900000000E+02    0.5285174598E-01    0.4555851388E-01    0.3925343458E-01    0.3093710166E-02    0.7652352267E-01
    0.2100000000E+02    0.5765130542E-01    0.4899464109E-01    0.4239387479E-01    0.3374690458E-02    0.8265509070E-01
    0.2300000000E+02    0.6233146115E-01    0.5224068601E-01    0.4539578625E-01    0.3648686618E-02    0.8851775368E-01
    0.2500000000E+02    0.6689766316E-01    0.5530963954E-01    0.4826854481E-01    0.3916017374E-02    0.9412967818E-01
    0.2700000000E+02    0.7135502033E-01    0.5821336667E-01    0.5102068902E-01    0.4176981503E-02    0.9950740989E-01
    0.2900000000E+02    0.7570832673E-01    0.6096272572E-01    0.5366001190E-01    0.4431859376E-02    0.1046660512E+00
    0.3100000000E+02    0.7996208569E-01    0.6356767265E-01    0.5619364093E-01    0.4680914360E-02    0.1096194161E+00
    0.3300000000E+02    0.8412053156E-01    0.6603735259E-01    0.5862810788E-01    0.4924394095E-02    0.1143801649E+00
    0.3500000000E+02    0.8818764968E-01    0.6838018045E-01    0.6096941008E-01    0.5162531657E-02    0.1189599233E+00
    0.3700000000E+02    0.9216719447E-01    0.7060391203E-01    0.6322306423E-01    0.5395546622E-02    0.1233693862E+00
    0.3900000000E+02    0.9606270608E-01    0.7271570696E-01    0.6539415383E-01    0.5623646032E-02    0.1276184096E+00
    0.4100000000E+02    0.9987752554E-01    0.7472218452E-01    0.6748737109E-01    0.5847025287E-02    0.1317160916E+00
    0.4300000000E+02    0.1036148087E+00    0.7662947339E-01    0.6950705409E-01    0.6065868956E-02    0.1356708443E+00
    0.4500000000E+02    0.1072775389E+00    0.7844325583E-01    0.7145721970E-01    0.6280351523E-02    0.1394904580E+00
    0.4700000000E+02    0.1108685389E+00    0.8016880732E-01    0.7334159298E-01    0.6490638076E-02    0.1431821572E+00
    0.4900000000E+02    0.1143904813E+00    0.8181103194E-01    0.7516363329E-01    0.6696884933E-02    0.1467526520E+00
    0.1000000000E+02    0.2961018340E-01    0.2732597324E-01    0.2310375950E-01    0.1733166807E-02    0.4501600803E-01
    0.3000000000E+02    0.7784737893E-01    0.6228266112E-01    0.5493961671E-01    0.4557098897E-02    0.1071675764E+00
    0.5000000000E+02    0.1161263527E+00    0.8260233555E-01    0.7605229283E-01    0.6798540071E-02    0.1484944153E+00
    0.7000000000E+02    0.1477682994E+00    0.9500921875E-01    0.9122575465E-01    0.8651728837E-02    0.1782717277E+00
    0.9000000000E+02    0.1747086486E+00    0.1027468596E+00    0.1027453086E+00    0.1022986401E-01    0.2009343289E+00
    0.1100000000E+03    0.1981564377E+00    0.1075590998E+00    0.1118450671E+00    0.1160366255E-01    0.2188792205E+00
    0.1300000000E+03    0.2189096106E+00    0.1104581591E+00    0.1192524183E+00    0.1281979827E-01    0.2335204150E+00
    0.1500000000E+03    0.2375188933E+00    0.1120661405E+00    0.1254252338E+00    0.1391048558E-01    0.2457487465E+00
    0.1700000000E+03    0.2543788092E+00    0.1127826610E+00    0.1306669095E+00    0.1489880259E-01    0.2561549923E+00
    0.1900000000E+03    0.2697810422E+00    0.1128735763E+00    0.1351869363E+00    0.1580181214E-01    0.2651474106E+00
    0.2100000000E+03    0.2839471677E+00    0.1125208247E+00    0.1391349377E+00    0.1663247620E-01    0.2730178261E+00
    0.2300000000E+03    0.2970495090E+00    0.1118518196E+00    0.1426208398E+00    0.1740087579E-01    0.2799808089E+00
    0.2500000000E+03    0.3092248717E+00    0.1109574924E+00    0.1457273601E+00    0.1811501429E-01    0.2861979484E+00
    0.2700000000E+03    0.3205838484E+00    0.1099037512E+00    0.1485180357E+00    0.1878136174E-01    0.2917934615E+00
    0.2900000000E+03    0.3312172833E+00    0.1087389725E+00    0.1510425488E+00    0.1940523300E-01    0.2968645543E+00
    0.3100000000E+03    0.3412008646E+00    0.1074990242E+00    0.1533403601E+00    0.1999105631E-01    0.3014884932E+00
    0.3300000000E+03    0.3505984526E+00    0.1062107073E+00    0.1554432468E+00    0.2054256804E-01    0.3057275475E+00
    0.3500000000E+03    0.3594645355E+00    0.1048941605E+00    0.1573771149E+00    0.2106295631E-01    0.3096325197E+00
    0.3700000000E+03    0.3678460717E+00    0.1035645686E+00    0.1591633170E+00    0.2155496875E-01    0.3132453141E+00
    0.3900000000E+03    0.3757838921E+00    0.1022333954E+00    0.1608196272E+00    0.2202099457E-01    0.3166008385E+00
    0.4100000000E+03    0.3833137835E+00    0.1009092846E+00    0.1623609742E+00    0.2246312789E-01    0.3197284331E+00
    0.4300000000E+03    0.3904673357E+00    0.9959872674E-01    0.1637999984E+00    0.2288321731E-01    0.3226529596E+00
    0.4500000000E+03    0.3972726116E+00    0.9830655805E-01    0.1651474828E+00    0.2328290511E-01    0.3253956414E+00
    0.4700000000E+03    0.4037546838E+00    0.9703633698E-01    0.1664126885E+00    0.2366365864E-01    0.3279747193E+00
    0.4900000000E+03    0.4099360683E+00    0.9579063116E-01    0.1676036191E+00    0.2402679568E-01    0.3304059686E+00
    0.1000000000E+03    0.1868120075E+00    0.1054434518E+00    0.1075439574E+00    0.1093896514E-01    0.2103921154E+00
    0.3000000000E+03    0.3362860694E+00    0.1081265392E+00    0.1522176501E+00    0.1970265279E-01    0.2992282216E+00
    0.5000000000E+03    0.4129204285E+00    0.9517755821E-01    0.1681734414E+00    0.2420213411E-01    0.3315705165E+00
    0.7000000000E+03    0.4608594902E+00    0.8438856605E-01    0.1769624453E+00    0.2702039931E-01    0.3496521222E+00
    0.9000000000E+03    0.4934691991E+00    0.7613396416E-01    0.1827102011E+00    0.2893989539E-01    0.3616263610E+00
    0.1100000000E+04    0.5168770776E+00    0.6975715196E-01    0.1868376569E+00    0.3031951542E-01    0.3703208559E+00
    0.1300000000E+04    0.5343653519E+00    0.6471339482E-01    0.1899822519E+00    0.3135159834E-01    0.3770117513E+00
    0.1500000000E+04    0.5478501607E+00    0.6062710185E-01    0.1924780703E+00    0.3214848432E-01    0.3823715219E+00
    0.1700000000E+04    0.5585187673E+00    0.5724453580E-01    0.1945193221E+00    0.3277981339E-01    0.3867930454E+00
    0.1900000000E+04    0.5671414745E+00    0.5439195773E-01    0.1962276169E+00    0.3329078910E-01    0.3905234748E+00
    0.2100000000E+04    0.5742371968E+00    0.5194774946E-01    0.1976834944E+00    0.3371187671E-01    0.3937272086E+00
    0.2300000000E+04    0.5801667181E+00    0.4982475450E-01    0.1989426863E+00    0.3406426732E-01    0.3965184758E+00
    0.2500000000E+04    0.5851877532E+00    0.4795909036E-01    0.2000451427E+00    0.3436310499E-01    0.3989794804E+00
    0.2700000000E+04    0.5894887569E+00    0.4630294973E-01    0.2010203442E+00    0.3461946894E-01    0.4011711109E+00
    0.2900000000E+04    0.5932103934E+00    0.4481987262E-01    0.2018905810E+00    0.3484163257E-01    0.4031395706E+00
    0.3100000000E+04    0.5964595732E+00    0.4348157411E-01    0.2026730584E+00    0.3503588689E-01    0.4049206461E+00
    0.3300000000E+04    0.5993188701E+00    0.4226577073E-01    0.2033812947E+00    0.3520709312E-01    0.4065425495E+00
    0.3500000000E+04    0.6018529850E+00    0.4115466140E-01    0.2040260772E+00    0.3535906206E-01    0.4080278660E+00
    0.3700000000E+04    0.6041132736E+00    0.4013384600E-01    0.2046161315E+00    0.3549481992E-01    0.4093949217E+00
    0.3900000000E+04    0.6061409782E+00    0.3919154227E-01    0.2051586009E+00    0.3561679812E-01    0.4106587651E+00
    0.4100000000E+04    0.6079695721E+00    0.3831800967E-01    0.2056593962E+00    0.3572697101E-01    0.4118318855E+00
    0.4300000000E+04    0.6096264866E+00    0.3750511940E-01    0.2061234560E+00    0.3582695732E-01    0.4129247477E+00
    0.4500000000E+04    0.6111344010E+00    0.3674602903E-01    0.2065549422E+00    0.3591809604E-01    0.4139461958E+00
    0.4700000000E+04    0.6125122186E+00    0.3603493339E-01    0.2069573899E+00    0.3600150377E-01    0.4149037629E+00
    0.4900000000E+04    0.6137758136E+00    0.3536687149E-01    0.2073338237E+00    0.3607811862E-01    0.4158039112E+00
    0.1000000000E+04    0.5060751135E+00    0.7274927706E-01    0.1849264147E+00    0.2968264432E-01    0.3662835297E+00
    0.3000000000E+04    0.5948883963E+00    0.4413413905E-01    0.2022918712E+00    0.3494191617E-01    0.4040516169E+00
    0.5000000000E+04    0.6143690548E+00    0.3504762083E-01    0.2075131136E+00    0.3611413160E-01    0.4162342272E+00
    0.7000000000E+04    0.6226146395E+00    0.3014203846E-01    0.2102096828E+00    0.3661846462E-01    0.4228517445E+00
    0.9000000000E+04    0.6271275412E+00    0.2693113980E-01    0.2118994646E+00    0.3689905700E-01    0.4271778204E+00
    0.1100000000E+05    0.6299639954E+00    0.2460957561E-01    0.2130731908E+00    0.3707832302E-01    0.4302974762E+00
    0.1300000000E+05    0.6319081144E+00    0.2282536194E-01    0.2139427953E+00    0.3720320440E-01    0.4326891357E+00
    0.1500000000E+05    0.6333221501E+00    0.2139616739E-01    0.2146163085E+00    0.3729550905E-01    0.4346011851E+00
    0.1700000000E+05    0.6343960879E+00    0.2021651051E-01    0.2151551471E+00    0.3736673825E-01    0.4361772122E+00
    0.1900000000E+05    0.6352390046E+00    0.1922042267E-01    0.2155970531E+00    0.3742353225E-01    0.4375068298E+00
    0.2100000000E+05    0.6359179309E+00    0.1836417911E-01    0.2159666177E+00    0.3746999447E-01    0.4386492762E+00
    0.2300000000E+05    0.6364763017E+00    0.1761746308E-01    0.2162806117E+00    0.3750879874E-01    0.4396455086E+00
    0.2500000000E+05    0.6369434853E+00    0.1695848377E-01    0.2165509004E+00    0.3754176305E-01    0.4405248833E+00
    0.2700000000E+05    0.6373400443E+00    0.1637111037E-01    0.2167861356E+00    0.3757016734E-01    0.4413090736E+00
    0.2900000000E+05    0.6376808018E+00    0.1584310494E-01    0.2169927864E+00    0.3759493945E-01    0.4420144809E+00
    0.3100000000E+05    0.6379767112E+00    0.1536498778E-01    0.2171757953E+00    0.3761676876E-01    0.4426537807E+00
    0.3300000000E+05    0.6382360399E+00    0.1492928346E-01    0.2173390085E+00    0.3763617849E-01    0.4432369474E+00
    0.3500000000E+05    0.6384651445E+00    0.1453000500E-01    0.2174854670E+00    0.3765357313E-01    0.4437719538E+00
    0.3700000000E+05    0.6386689918E+00    0.1416229196E-01    0.2176176100E+00    0.3766927049E-01    0.4442652611E+00
    0.3900000000E+05    0.6388515189E+00    0.1382215082E-01    0.2177374178E+00    0.3768352383E-01    0.4447221697E+00
    0.4100000000E+05    0.6390158864E+00    0.1350626512E-01    0.2178465164E+00    0.3769653759E-01    0.4451470749E+00
    0.4300000000E+05    0.6391646607E+00    0.1321185419E-01    0.2179462542E+00    0.3770847867E-01    0.4455436572E+00
    0.4500000000E+05    0.6392999471E+00    0.1293656642E-01    0.2180377593E+00    0.3771948472E-01    0.4459150257E+00
    0.4700000000E+05    0.6394234892E+00    0.1267839740E-01    0.2181219835E+00    0.3772967035E-01    0.4462638275E+00
    0.4900000000E+05    0.6395367427E+00    0.1243562653E-01    0.2181997356E+00    0.3773913177E-01    0.4465923329E+00
    0.1000000000E+05    0.6286914470E+00    0.2568694753E-01    0.2125340527E+00    0.3699753725E-01    0.4288507650E+00
    0.3000000000E+05    0.6378337935E+00    0.1559831755E-01    0.2170869840E+00    0.3760618601E-01    0.4423417170E+00
    0.5000000000E+05    0.6395899020E+00    0.1231954281E-01    0.2182364048E+00    0.3774361685E-01    0.4467495975E+00
    0.7000000000E+05    0.6403286739E+00    0.1053264379E-01    0.2187551732E+00    0.3780976897E-01    0.4491896400E+00
    0.9000000000E+05    0.6407334090E+00    0.9363816332E-02    0.2190405685E+00    0.3785060715E-01    0.4508127021E+00
    0.1100000000E+06    0.6409878355E+00    0.8521652802E-02    0.2192137477E+00    0.3787921037E-01    0.4520014292E+00
    0.1300000000E+06    0.6411619755E+00    0.7877082023E-02    0.2193246081E+00    0.3790082830E-01    0.4529255217E+00
    0.1500000000E+06    0.6412882790E+00    0.7362873126E-02    0.2193975283E+00    0.3791801518E-01    0.4536736577E+00
    0.1700000000E+06    0.6413838262E+00    0.6940067268E-02    0.2194458303E+00    0.3793217909E-01    0.4542974401E+00
    0.1900000000E+06    0.6414584552E+00    0.6584307295E-02    0.2194773959E+00    0.3794416776E-01    0.4548292835E+00
    0.2100000000E+06    0.6415182280E+00    0.6279471101E-02    0.2194971744E+00    0.3795452621E-01    0.4552907505E+00
    0.2300000000E+06    0.6415670811E+00    0.6014401737E-02    0.2195084206E+00    0.3796362311E-01    0.4556968399E+00
    0.2500000000E+06    0.6416076802E+00    0.5781097396E-02    0.2195133555E+00    0.3797171818E-01    0.4560583648E+00
    0.2700000000E+06    0.6416418939E+00    0.5573648245E-02    0.2195135410E+00    0.3797900053E-01    0.4563833525E+00
    0.2900000000E+06    0.6416710700E+00    0.5387581061E-02    0.2195101032E+00    0.3798561173E-01    0.4566779108E+00
    0.3100000000E+06    0.6416962049E+00    0.5219438720E-02    0.2195038715E+00    0.3799166021E-01    0.4569467839E+00
    0.3300000000E+06    0.6417180507E+00    0.5066501085E-02    0.2194954678E+00    0.3799723072E-01    0.4571937235E+00
    0.3500000000E+06    0.6417371852E+00    0.4926594309E-02    0.2194853656E+00    0.3800239064E-01    0.4574217428E+00
    0.3700000000E+06    0.6417540601E+00    0.4797957220E-02    0.2194739300E+00    0.3800719437E-01    0.4576332949E+00
    0.3900000000E+06    0.6417690329E+00    0.4679145635E-02    0.2194614463E+00    0.3801168637E-01    0.4578304010E+00
    0.4100000000E+06    0.6417823903E+00    0.4568962480E-02    0.2194481392E+00    0.3801590345E-01    0.4580147445E+00
    0.4300000000E+06    0.6417943651E+00    0.4466405888E-02    0.2194341876E+00    0.3801987638E-01    0.4581877407E+00
    0.4500000000E+06    0.6418051479E+00    0.4370630029E-02    0.2194197349E+00    0.3802363114E-01    0.4583505898E+00
    0.4700000000E+06    0.6418148961E+00    0.4280915152E-02    0.2194048968E+00    0.3802718985E-01    0.4585043180E+00
    0.4900000000E+06    0.6418237414E+00    0.4196644377E-02    0.2193897671E+00    0.3803057147E-01    0.4586498084E+00
    0.1000000000E+06    0.6408737103E+00    0.8912058274E-02    0.2191371870E+00    0.3786601629E-01    0.4514480135E+00
    0.3000000000E+06    0.6416840909E+00    0.5301453993E-02    0.2195072937E+00    0.3798870054E-01    0.4568153037E+00
    0.5000000000E+06    0.6418278606E+00    0.4156381322E-02    0.2193821175E+00    0.3803220109E-01    0.4587197077E+00
    0.7000000000E+06    0.6418822168E+00    0.3539232913E-02    0.2192264352E+00    0.3805851814E-01    0.4598268150E+00
    0.9000000000E+06    0.6419084295E+00    0.3138234502E-02    0.2190787190E+00    0.3807734438E-01    0.4605900746E+00
    0.1100000000E+07    0.6419225802E+00    0.2850623856E-02    0.2189438911E+00    0.3809198688E-01    0.4611651768E+00
    0.1300000000E+07    0.6419306247E+00    0.2631236159E-02    0.2188213572E+00    0.3810396230E-01    0.4616229044E+00
    0.1500000000E+07    0.6419352379E+00    0.2456677972E-02    0.2187095728E+00    0.3811409044E-01    0.4620010132E+00
    0.1700000000E+07    0.6419377809E+00    0.2313452060E-02    0.2186070073E+00    0.3812286405E-01    0.4623218648E+00
    0.1900000000E+07    0.6419390100E+00    0.2193149294E-02    0.2185123429E+00    0.3813060218E-01    0.4625997254E+00
    0.2100000000E+07    0.6419393741E+00    0.2090219643E-02    0.2184244868E+00    0.3813752316E-01    0.4628442178E+00
    0.2300000000E+07    0.6419391531E+00    0.2000831659E-02    0.2183425405E+00    0.3814378292E-01    0.4630621202E+00
    0.2500000000E+07    0.6419385286E+00    0.1922243143E-02    0.2182657635E+00    0.3814949670E-01    0.4632583758E+00
    0.2700000000E+07    0.6419376225E+00    0.1852432495E-02    0.2181935416E+00    0.3815475203E-01    0.4634366934E+00
    0.2900000000E+07    0.6419365185E+00    0.1789871993E-02    0.2181253617E+00    0.3815961699E-01    0.4635999228E+00
    0.3100000000E+07    0.6419352755E+00    0.1733382622E-02    0.2180607914E+00    0.3816414554E-01    0.4637502981E+00
    0.3300000000E+07    0.6419339356E+00    0.1682037897E-02    0.2179994633E+00    0.3816838119E-01    0.4638896012E+00
    0.3500000000E+07    0.6419325295E+00    0.1635098257E-02    0.2179410634E+00    0.3817235952E-01    0.4640192750E+00
    0.3700000000E+07    0.6419310796E+00    0.1591965167E-02    0.2178853206E+00    0.3817610999E-01    0.4641405031E+00
    0.3900000000E+07    0.6419296026E+00    0.1552148293E-02    0.2178320001E+00    0.3817965730E-01    0.4642542679E+00
    0.4100000000E+07    0.6419281108E+00    0.1515241563E-02    0.2177808967E+00    0.3818302232E-01    0.4643613932E+00
    0.4300000000E+07    0.6419266138E+00    0.1480905397E-02    0.2177318303E+00    0.3818622288E-01    0.4644625762E+00
    0.4500000000E+07    0.6419251184E+00    0.1448853323E-02    0.2176846419E+00    0.3818927431E-01    0.4645584119E+00
    0.4700000000E+07    0.6419236300E+00    0.1418841742E-02    0.2176391907E+00    0.3819218988E-01    0.4646494121E+00
    0.4900000000E+07    0.6419221527E+00    0.1390662010E-02    0.2175953510E+00    0.3819498119E-01    0.4647360197E+00
    0.1000000000E+07    0.6419165239E+00    0.2983815908E-02    0.2190096866E+00    0.3808507047E-01    0.4608956133E+00
    0.3000000000E+07    0.6419359114E+00    0.1760931354E-02    0.2180926497E+00    0.3816192039E-01    0.4636765968E+00
    0.5000000000E+07    0.6419214191E+00    0.1377201888E-02    0.2175739998E+00    0.3819633346E-01    0.4647777989E+00
    0.7000000000E+07    0.6419077318E+00    0.1171179760E-02    0.2172096113E+00    0.3821877729E-01    0.4654548900E+00
    0.9000000000E+07    0.6418960162E+00    0.1037607645E-02    0.2169276819E+00    0.3823546327E-01    0.4659396615E+00
    0.1100000000E+08    0.6418859523E+00    0.9419454615E-03    0.2166973299E+00    0.3824875131E-01    0.4663153967E+00
    0.1300000000E+08    0.6418771806E+00    0.8690532957E-03    0.2165023788E+00    0.3825979441E-01    0.4666212210E+00
    0.1500000000E+08    0.6418694250E+00    0.8111040465E-03    0.2163332721E+00    0.3826924293E-01    0.4668785505E+00
    0.1700000000E+08    0.6418624823E+00    0.7635881374E-03    0.2161838832E+00    0.3827750004E-01    0.4671003435E+00
    0.1900000000E+08    0.6418562021E+00    0.7236991363E-03    0.2160500445E+00    0.3828483300E-01    0.4672950188E+00
    0.2100000000E+08    0.6418504708E+00    0.6895864967E-03    0.2159287902E+00    0.3829142813E-01    0.4674683456E+00
    0.2300000000E+08    0.6418452015E+00    0.6599736824E-03    0.2158179333E+00    0.3829742053E-01    0.4676244452E+00
    0.2500000000E+08    0.6418403258E+00    0.6339476683E-03    0.2157158141E+00    0.3830291128E-01    0.4677663608E+00
    0.2700000000E+08    0.6418357893E+00    0.6108357397E-03    0.2156211428E+00    0.3830797797E-01    0.4678964018E+00
