  Pressure (Pa) 22mC5-400 (mol/kg) 2mC6-400 (mol/kg) 3mC6-400 (mol/kg) 23mC5-400 (mol/kg) C7-400 (mol/kg)
    0.1000000000E+01    0.3172208328E-02    0.2371702444E-02    0.1050237264E-02    0.4641717004E-03    0.6817017615E-02
    0.3000000000E+01    0.9373719288E-02    0.6888357914E-02    0.3062740349E-02    0.1371620617E-02    0.1988262066E-01
    0.5000000000E+01    0.1539286053E-01    0.1112329712E-01    0.4966128808E-02    0.2252404740E-02    0.3224309646E-01
    0.7000000000E+01    0.2123884444E-01    0.1509899061E-01    0.6769280907E-02    0.3107870801E-02    0.4395573311E-01
    0.9000000000E+01    0.2692025730E-01    0.1883561579E-01    0.8480130910E-02    0.3939274010E-02    0.5507173208E-01
    0.1100000000E+02    0.3244511145E-01    0.2235134385E-01    0.1010579153E-01    0.4747785691E-02    0.6563699738E-01
    0.1300000000E+02    0.3782089242E-01    0.2566258424E-01    0.1165265781E-01    0.5534500153E-02    0.7569280496E-01
    0.1500000000E+02    0.4305460144E-01    0.2878419406E-01    0.1312649557E-01    0.6300440919E-02    0.8527637305E-01
    0.1700000000E+02    0.4815279400E-01    0.3172965790E-01    0.1453251715E-01    0.7046566349E-02    0.9442135005E-01
    0.1900000000E+02    0.5312161468E-01    0.3451124314E-01    0.1587544641E-01    0.7773774745E-02    0.1031582337E+00
    0.2100000000E+02    0.5796682895E-01    0.3714013444E-01    0.1715957479E-01    0.8482908984E-02    0.1115147326E+00
    0.2300000000E+02    0.6269385192E-01    0.3962655064E-01    0.1838880980E-01    0.9174760733E-02    0.1195160785E+00
    0.2500000000E+02    0.6730777461E-01    0.4197984676E-01    0.1956671717E-01    0.9850074281E-02    0.1271852983E+00
    0.2700000000E+02    0.7181338786E-01    0.4420860328E-01    0.2069655749E-01    0.1050955004E-01    0.1345434502E+00
    0.2900000000E+02    0.7621520424E-01    0.4632070442E-01    0.2178131830E-01    0.1115384773E-01    0.1416098305E+00
    0.3100000000E+02    0.8051747794E-01    0.4832340719E-01    0.2282374214E-01    0.1178358933E-01    0.1484021550E+00
    0.3300000000E+02    0.8472422311E-01    0.5022340221E-01    0.2382635129E-01    0.1239936169E-01    0.1549367178E+00
    0.3500000000E+02    0.8883923064E-01    0.5202686768E-01    0.2479146949E-01    0.1300171906E-01    0.1612285316E+00
    0.3700000000E+02    0.9286608348E-01    0.5373951718E-01    0.2572124117E-01    0.1359118526E-01    0.1672914523E+00
    0.3900000000E+02    0.9680817080E-01    0.5536664223E-01    0.2661764849E-01    0.1416825580E-01    0.1731382882E+00
    0.4100000000E+02    0.1006687010E+00    0.5691315025E-01    0.2748252649E-01    0.1473339977E-01    0.1787808977E+00
    0.4300000000E+02    0.1044507137E+00    0.5838359850E-01    0.2831757648E-01    0.1528706157E-01    0.1842302765E+00
    0.4500000000E+02    0.1081570908E+00    0.5978222441E-01    0.2912437812E-01    0.1582966253E-01    0.1894966345E+00
    0.4700000000E+02    0.1117905663E+00    0.6111297291E-01    0.2990440011E-01    0.1636160242E-01    0.1945894654E+00
    0.4900000000E+02    0.1153537364E+00    0.6237952088E-01    0.3065900981E-01    0.1688326080E-01    0.1995176087E+00
    0.1000000000E+02    0.2970177454E-01    0.2062002769E-01    0.9303194489E-02    0.4346321168E-02    0.6042052535E-01
    0.3000000000E+02    0.7837852761E-01    0.4733529983E-01    0.2230765980E-01    0.1147050057E-01    0.1450391998E+00
    0.5000000000E+02    0.1171097325E+00    0.6298980090E-01    0.3102718680E-01    0.1714034782E-01    0.2019225198E+00
    0.7000000000E+02    0.1490771957E+00    0.7254662831E-01    0.3732437647E-01    0.2182105361E-01    0.2431062843E+00
    0.9000000000E+02    0.1761863689E+00    0.7846603375E-01    0.4211244308E-01    0.2579121667E-01    0.2744967446E+00
    0.1100000000E+03    0.1996521994E+00    0.8209484244E-01    0.4589309410E-01    0.2922848460E-01    0.2993415063E+00
    0.1300000000E+03    0.2202894787E+00    0.8422432096E-01    0.4896558209E-01    0.3225199982E-01    0.3195792965E+00
    0.1500000000E+03    0.2386678780E+00    0.8534458092E-01    0.5151988547E-01    0.3494506538E-01    0.3364419246E+00
    0.1700000000E+03    0.2551998755E+00    0.8577187696E-01    0.5368266417E-01    0.3736800013E-01    0.3507513199E+00
    0.1900000000E+03    0.2701931710E+00    0.8571699682E-01    0.5554176655E-01    0.3956580218E-01    0.3630780165E+00
    0.2100000000E+03    0.2838832704E+00    0.8532413619E-01    0.5716013872E-01    0.4157291320E-01    0.3738311481E+00
    0.2300000000E+03    0.2964544847E+00    0.8469403566E-01    0.5858413176E-01    0.4341628873E-01    0.3833122256E+00
    0.2500000000E+03    0.3080538891E+00    0.8389828771E-01    0.5984867858E-01    0.4511743939E-01    0.3917486651E+00
    0.2700000000E+03    0.3188008619E+00    0.8298847371E-01    0.6098063822E-01    0.4669382564E-01    0.3993154581E+00
    0.2900000000E+03    0.3287937619E+00    0.8200216251E-01    0.6200102409E-01    0.4815983413E-01    0.4061496176E+00
    0.3100000000E+03    0.3381147059E+00    0.8096694361E-01    0.6292652907E-01    0.4952747634E-01    0.4123600696E+00
    0.3300000000E+03    0.3468330539E+00    0.7990319569E-01    0.6377059403E-01    0.5080689827E-01    0.4180345872E+00
    0.3500000000E+03    0.3550079993E+00    0.7882602192E-01    0.6454417231E-01    0.5200675909E-01    0.4232447533E+00
    0.3700000000E+03    0.3626905228E+00    0.7774662465E-01    0.6525628684E-01    0.5313451694E-01    0.4280495800E+00
    0.3900000000E+03    0.3699248907E+00    0.7667329565E-01    0.6591444294E-01    0.5419664804E-01    0.4324981902E+00
    0.4100000000E+03    0.3767498191E+00    0.7561213859E-01    0.6652493871E-01    0.5519881683E-01    0.4366318365E+00
    0.4300000000E+03    0.3831993896E+00    0.7456760184E-01    0.6709310177E-01    0.5614601000E-01    0.4404854402E+00
    0.4500000000E+03    0.3893037787E+00    0.7354287541E-01    0.6762347187E-01    0.5704264308E-01    0.4440887804E+00
    0.4700000000E+03    0.3950898449E+00    0.7254018925E-01    0.6811994347E-01    0.5789264631E-01    0.4474674216E+00
    0.4900000000E+03    0.4005816064E+00    0.7156103903E-01    0.6858587817E-01    0.5869953449E-01    0.4506434466E+00
    0.1000000000E+03    0.1883166539E+00    0.8050814361E-01    0.4410666676E-01    0.2756797459E-01    0.2875946595E+00
    0.3000000000E+03    0.3335336284E+00    0.8148924981E-01    0.6247473059E-01    0.4885527814E-01    0.4093268914E+00
    0.5000000000E+03    0.4032239497E+00    0.7108059979E-01    0.6880832139E-01    0.5908780951E-01    0.4521615727E+00
    0.7000000000E+03    0.4448622051E+00    0.6275847791E-01    0.7219451875E-01    0.6521070292E-01    0.4754447629E+00
    0.9000000000E+03    0.4723414950E+00    0.5652495569E-01    0.7435618196E-01    0.6925760355E-01    0.4905252269E+00
    0.1100000000E+04    0.4916778534E+00    0.5176470524E-01    0.7587759332E-01    0.7210964528E-01    0.5012794638E+00
    0.1300000000E+04    0.5059352412E+00    0.4802216530E-01    0.7701696844E-01    0.7421584215E-01    0.5094316841E+00
    0.1500000000E+04    0.5168330821E+00    0.4499854858E-01    0.7790779396E-01    0.7582830797E-01    0.5158785136E+00
    0.1700000000E+04    0.5254052368E+00    0.4249794703E-01    0.7862670623E-01    0.7709871563E-01    0.5211375644E+00
    0.1900000000E+04    0.5323073983E+00    0.4038880350E-01    0.7922115091E-01    0.7812330977E-01    0.5255309644E+00
    0.2100000000E+04    0.5379736989E+00    0.3858022042E-01    0.7972222565E-01    0.7896584732E-01    0.5292708966E+00
    0.2300000000E+04    0.5427020039E+00    0.3700762674E-01    0.8015124473E-01    0.7967009609E-01    0.5325034821E+00
    0.2500000000E+04    0.5467029225E+00    0.3562397038E-01    0.8052335263E-01    0.8026701904E-01    0.5353330186E+00
    0.2700000000E+04    0.5501292497E+00    0.3439417229E-01    0.8084963379E-01    0.8077909151E-01    0.5378361794E+00
    0.2900000000E+04    0.5530943336E+00    0.3329154124E-01    0.8113840528E-01    0.8122299534E-01    0.5400707403E+00
    0.3100000000E+04    0.5556839116E+00    0.3229539645E-01    0.8139604096E-01    0.8161135567E-01    0.5420811618E+00
    0.3300000000E+04    0.5579639583E+00    0.3138945290E-01    0.8162751533E-01    0.8195389269E-01    0.5439022824E+00
    0.3500000000E+04    0.5599860188E+00    0.3056070036E-01    0.8183677268E-01    0.8225820491E-01    0.5455618341E+00
    0.3700000000E+04    0.5617909161E+00    0.2979860926E-01    0.8202698435E-01    0.8253031350E-01    0.5470821993E+00
    0.3900000000E+04    0.5634113788E+00    0.2909455775E-01    0.8220073180E-01    0.8277504841E-01    0.5484816654E+00
    0.4100000000E+04    0.5648739366E+00    0.2844141132E-01    0.8236013954E-01    0.8299632700E-01    0.5497753377E+00
    0.4300000000E+04    0.5662003107E+00    0.2783320953E-01    0.8250697341E-01    0.8319735841E-01    0.5509758161E+00
    0.4500000000E+04    0.5674084485E+00    0.2726492941E-01    0.8264271418E-01    0.8338079568E-01    0.5520937036E+00
    0.4700000000E+04    0.5685133031E+00    0.2673230425E-01    0.8276861373E-01    0.8354885051E-01    0.5531379952E+00
    0.4900000000E+04    0.5695274287E+00    0.2623168337E-01    0.8288573816E-01    0.8370338082E-01    0.5541163769E+00
    0.1000000000E+04    0.4827927957E+00    0.5399348981E-01    0.7517656416E-01    0.7079858611E-01    0.4963074328E+00
    0.3000000000E+04    0.5544315464E+00    0.3278126385E-01    0.8127077638E-01    0.8142345344E-01    0.5411015996E+00
    0.5000000000E+04    0.5700038507E+00    0.2599237461E-01    0.8294130054E-01    0.8377607512E-01    0.5545829544E+00
    0.7000000000E+04    0.5766498213E+00    0.2231058801E-01    0.8375782143E-01    0.8479872075E-01    0.5616619938E+00
    0.9000000000E+04    0.5803107677E+00    0.1989860467E-01    0.8424786375E-01    0.8537241036E-01    0.5661866251E+00
    0.1100000000E+05    0.5826221444E+00    0.1815543695E-01    0.8457576475E-01    0.8574122139E-01    0.5693948945E+00
    0.1300000000E+05    0.5842113242E+00    0.1681695697E-01    0.8481057315E-01    0.8599937507E-01    0.5718216070E+00
    0.1500000000E+05    0.5853696825E+00    0.1574593826E-01    0.8498670504E-01    0.8619090542E-01    0.5737400893E+00
    0.1700000000E+05    0.5862507108E+00    0.1486287394E-01    0.8512335314E-01    0.8633915348E-01    0.5753063481E+00
    0.1900000000E+05    0.5869428585E+00    0.1411800694E-01    0.8523211194E-01    0.8645765301E-01    0.5766167121E+00
    0.2100000000E+05    0.5875006465E+00    0.1347835214E-01    0.8532041955E-01    0.8655479800E-01    0.5777342769E+00
    0.2300000000E+05    0.5879594943E+00    0.1292104220E-01    0.8539327665E-01    0.8663607524E-01    0.5787023161E+00
    0.2500000000E+05    0.5883434027E+00    0.1242964590E-01    0.8545417419E-01    0.8670522549E-01    0.5795516253E+00
    0.2700000000E+05    0.5886692067E+00    0.1199200509E-01    0.8550562566E-01    0.8676488878E-01    0.5803047937E+00
    0.2900000000E+05    0.5889490615E+00    0.1159890034E-01    0.8554948816E-01    0.8681698282E-01    0.5809788162E+00
    0.3100000000E+05    0.5891919608E+00    0.1124319395E-01    0.8558716424E-01    0.8686293522E-01    0.5815867566E+00
    0.3300000000E+05    0.5894047008E+00    0.1091926042E-01    0.8561973333E-01    0.8690383128E-01    0.5821388441E+00
    0.3500000000E+05    0.5895925120E+00    0.1062259685E-01    0.8564803994E-01    0.8694051131E-01    0.5826432175E+00
    0.3700000000E+05    0.5897594847E+00    0.1034954970E-01    0.8567275429E-01    0.8697363640E-01    0.5831064445E+00
    0.3900000000E+05    0.5899088637E+00    0.1009711872E-01    0.8569441515E-01    0.8700373411E-01    0.5835338914E+00
    0.4100000000E+05    0.5900432552E+00    0.9862813662E-02    0.8571346050E-01    0.8703123071E-01    0.5839299912E+00
    0.4300000000E+05    0.5901647767E+00    0.9644547718E-02    0.8573025006E-01    0.8705647460E-01    0.5842984430E+00
    0.4500000000E+05    0.5902751661E+00    0.9440556952E-02    0.8574508195E-01    0.8707975341E-01    0.5846423608E+00
    0.4700000000E+05    0.5903758631E+00    0.9249338641E-02    0.8575820533E-01    0.8710130679E-01    0.5849643876E+00
    0.4900000000E+05    0.5904680702E+00    0.9069603435E-02    0.8576982999E-01    0.8712133614E-01    0.5852667834E+00
    0.1000000000E+05    0.5815841183E+00    0.1896422597E-01    0.8442657865E-01    0.8557477368E-01    0.5679129788E+00
    0.3000000000E+05    0.5890746630E+00    0.1141675414E-01    0.8556902566E-01    0.8684065221E-01    0.5812903510E+00
    0.5000000000E+05    0.5905113127E+00    0.8983688014E-02    0.8577513696E-01    0.8713083362E-01    0.5854112382E+00
    0.7000000000E+05    0.5911087318E+00    0.7663466396E-02    0.8583424152E-01    0.8727111963E-01    0.5876255466E+00
    0.9000000000E+05    0.5914314151E+00    0.6802346088E-02    0.8584621727E-01    0.8735790137E-01    0.5890682612E+00
    0.1100000000E+06    0.5916311192E+00    0.6183168881E-02    0.8583876770E-01    0.8741875421E-01    0.5901080331E+00
    0.1300000000E+06    0.5917655447E+00    0.5710021636E-02    0.8582230954E-01    0.8746477917E-01    0.5909056956E+00
    0.1500000000E+06    0.5918613422E+00    0.5333052947E-02    0.8580147556E-01    0.8750138774E-01    0.5915442212E+00
    0.1700000000E+06    0.5919324848E+00    0.5023425174E-02    0.8577855395E-01    0.8753156711E-01    0.5920713823E+00
    0.1900000000E+06    0.5919869865E+00    0.4763134946E-02    0.8575475511E-01    0.8755711752E-01    0.5925169151E+00
    0.2100000000E+06    0.5920297630E+00    0.4540280357E-02    0.8573074807E-01    0.8757919722E-01    0.5929004433E+00
    0.2300000000E+06    0.5920639913E+00    0.4346633684E-02    0.8570691177E-01    0.8759859017E-01    0.5932355197E+00
    0.2500000000E+06    0.5920918124E+00    0.4176299471E-02    0.8568346194E-01    0.8761584890E-01    0.5935318519E+00
    0.2700000000E+06    0.5921147191E+00    0.4024927165E-02    0.8566051911E-01    0.8763137590E-01    0.5937966047E+00
    0.2900000000E+06    0.5921337831E+00    0.3889226228E-02    0.8563814681E-01    0.8764547253E-01    0.5940351993E+00
    0.3100000000E+06    0.5921497922E+00    0.3766655285E-02    0.8561637380E-01    0.8765836974E-01    0.5942518257E+00
    0.3300000000E+06    0.5921633377E+00    0.3655215958E-02    0.8559520749E-01    0.8767024805E-01    0.5944497819E+00
    0.3500000000E+06    0.5921748717E+00    0.3553312106E-02    0.8557464214E-01    0.8768125100E-01    0.5946317047E+00
    0.3700000000E+06    0.5921847454E+00    0.3459651268E-02    0.8555466405E-01    0.8769149448E-01    0.5947997320E+00
    0.3900000000E+06    0.5921932353E+00    0.3373174119E-02    0.8553525481E-01    0.8770107326E-01    0.5949556181E+00
    0.4100000000E+06    0.5922005619E+00    0.3293002985E-02    0.8551639346E-01    0.8771006579E-01    0.5951008189E+00
    0.4300000000E+06    0.5922069030E+00    0.3218403625E-02    0.8549805781E-01    0.8771853768E-01    0.5952365539E+00
    0.4500000000E+06    0.5922124033E+00    0.3148756395E-02    0.8548022535E-01    0.8772654429E-01    0.5953638539E+00
    0.4700000000E+06    0.5922171820E+00    0.3083534212E-02    0.8546287378E-01    0.8773413278E-01    0.5954835971E+00
    0.4900000000E+06    0.5922213376E+00    0.3022285482E-02    0.8544598140E-01    0.8774134360E-01    0.5955965372E+00
    0.1000000000E+06    0.5915419384E+00    0.6470067007E-02    0.8584406569E-01    0.8739067740E-01    0.5896258196E+00
    0.3000000000E+06    0.5921421287E+00    0.3826435233E-02    0.8562718454E-01    0.8765205878E-01    0.5941460346E+00
    0.5000000000E+06    0.5922232081E+00    0.2993027330E-02    0.8543770083E-01    0.8774481849E-01    0.5956506631E+00
    0.7000000000E+06    0.5922421910E+00    0.2545009922E-02    0.8529163472E-01    0.8780093179E-01    0.5964958500E+00
    0.9000000000E+06    0.5922440720E+00    0.2254379432E-02    0.8517353764E-01    0.8784106761E-01    0.5970646230E+00
    0.1100000000E+07    0.5922397711E+00    0.2046173848E-02    0.8507445458E-01    0.8787228007E-01    0.5974852296E+00
    0.1300000000E+07    0.5922329903E+00    0.1887501152E-02    0.8498907535E-01    0.8789780441E-01    0.5978149115E+00
    0.1500000000E+07    0.5922252284E+00    0.1761345549E-02    0.8491403278E-01    0.8791938940E-01    0.5980837532E+00
    0.1700000000E+07    0.5922171591E+00    0.1657899009E-02    0.8484706522E-01    0.8793808606E-01    0.5983093522E+00
    0.1900000000E+07    0.5922091033E+00    0.1571055755E-02    0.8478658192E-01    0.8795457487E-01    0.5985028152E+00
    0.2100000000E+07    0.5922012170E+00    0.1496788702E-02    0.8473142176E-01    0.8796932148E-01    0.5986715628E+00
    0.2300000000E+07    0.5921935739E+00    0.1432319396E-02    0.8468071125E-01    0.8798265845E-01    0.5988207774E+00
    0.2500000000E+07    0.5921862055E+00    0.1375660301E-02    0.8463377665E-01    0.8799483150E-01    0.5989542093E+00
    0.2700000000E+07    0.5921791207E+00    0.1325346843E-02    0.8459008727E-01    0.8800602731E-01    0.5990746526E+00
    0.2900000000E+07    0.5921723161E+00    0.1280272705E-02    0.8454921756E-01    0.8801639103E-01    0.5991842401E+00
    0.3100000000E+07    0.5921657823E+00    0.1239584412E-02    0.8451082098E-01    0.8802603772E-01    0.5992846335E+00
    0.3300000000E+07    0.5921595065E+00    0.1202611523E-02    0.8447461156E-01    0.8803506012E-01    0.5993771512E+00
    0.3500000000E+07    0.5921534749E+00    0.1168819033E-02    0.8444035046E-01    0.8804353411E-01    0.5994628547E+00
    0.3700000000E+07    0.5921476733E+00    0.1137774086E-02    0.8440783619E-01    0.8805152250E-01    0.5995426106E+00
    0.3900000000E+07    0.5921420879E+00    0.1109122171E-02    0.8437689712E-01    0.8805907794E-01    0.5996171348E+00
    0.4100000000E+07    0.5921367053E+00    0.1082569775E-02    0.8434738592E-01    0.8806624492E-01    0.5996870249E+00
    0.4300000000E+07    0.5921315130E+00    0.1057871505E-02    0.8431917507E-01    0.8807306144E-01    0.5997527846E+00
    0.4500000000E+07    0.5921264995E+00    0.1034820393E-02    0.8429215353E-01    0.8807956016E-01    0.5998148421E+00
    0.4700000000E+07    0.5921216539E+00    0.1013240483E-02    0.8426622396E-01    0.8808576941E-01    0.5998735641E+00
    0.4900000000E+07    0.5921169660E+00    0.9929810972E-03    0.8424130058E-01    0.8809171387E-01    0.5999292669E+00
    0.1000000000E+07    0.5922423831E+00    0.2142567266E-02    0.8512201088E-01    0.8785753727E-01    0.5972889535E+00
    0.3000000000E+07    0.5921690161E+00    0.1259425878E-02    0.8452972924E-01    0.8802129776E-01    0.5992354968E+00
    0.5000000000E+07    0.5921146783E+00    0.9833053009E-03    0.8422919212E-01    0.8809459368E-01    0.5999560734E+00
    0.7000000000E+07    0.5920753031E+00    0.8353035731E-03    0.8402523410E-01    0.8814238575E-01    0.6003847057E+00
    0.9000000000E+07    0.5920445964E+00    0.7394527154E-03    0.8387037855E-01    0.8817791193E-01    0.6006849561E+00
    0.1100000000E+08    0.5920194590E+00    0.6708613915E-03    0.8374540301E-01    0.8820620063E-01    0.6009139519E+00
    0.1300000000E+08    0.5919981881E+00    0.6186301062E-03    0.8364056894E-01    0.8822970822E-01    0.6010979976E+00
    0.1500000000E+08    0.5919797550E+00    0.5771283401E-03    0.8355024839E-01    0.8824982012E-01    0.6012512684E+00
    0.1700000000E+08    0.5919634922E+00    0.5431140969E-03    0.8347089067E-01    0.8826739507E-01    0.6013822324E+00
    0.1900000000E+08    0.5919489428E+00    0.5145708476E-03    0.8340010996E-01    0.8828300227E-01    0.6014963323E+00
    0.2100000000E+08    0.5919357799E+00    0.4901695005E-03    0.8333622495E-01    0.8829703856E-01    0.6015972632E+00
    0.2300000000E+08    0.5919237622E+00    0.4689935885E-03    0.8327800588E-01    0.8830979161E-01    0.6016876431E+00
    0.2500000000E+08    0.5919127062E+00    0.4503878506E-03    0.8322452582E-01    0.8832147666E-01    0.6017693915E+00
    0.2700000000E+08    0.5919024694E+00    0.4338696441E-03    0.8317506861E-01    0.8833225896E-01    0.6018439551E+00
