  Pressure (Pa) 22mC5-400 (mol/kg) 2mC6-400 (mol/kg) 3mC6-400 (mol/kg) 23mC5-400 (mol/kg) C7-400 (mol/kg)
    0.1000000000E+01    0.3694714273E-02    0.3176304286E-02    0.1057134021E-02    0.5560742523E-03    0.1715389045E-02
    0.3000000000E+01    0.1088244875E-01    0.9304960079E-02    0.3122111593E-02    0.1637889748E-02    0.5066514103E-02
    0.5000000000E+01    0.1781532440E-01    0.1515068537E-01    0.5124051904E-02    0.2681376371E-02    0.8315766302E-02
    0.7000000000E+01    0.2450897917E-01    0.2073095770E-01    0.7065991230E-02    0.3688885553E-02    0.1146804662E-01
    0.9000000000E+01    0.3097776290E-01    0.2606186941E-01    0.8950771073E-02    0.4662575059E-02    0.1452794183E-01
    0.1100000000E+02    0.3723486714E-01    0.3115826180E-01    0.1078105361E-01    0.5604428502E-02    0.1749974938E-01
    0.1300000000E+02    0.4329243965E-01    0.3603384398E-01    0.1255933569E-01    0.6516272557E-02    0.2038750001E-01
    0.1500000000E+02    0.4916168565E-01    0.4070129840E-01    0.1428796153E-01    0.7399792179E-02    0.2319497821E-01
    0.1700000000E+02    0.5485295753E-01    0.4517237483E-01    0.1596913429E-01    0.8256544098E-02    0.2592574086E-01
    0.1900000000E+02    0.6037583456E-01    0.4945797419E-01    0.1760492655E-01    0.9087968796E-02    0.2858313418E-01
    0.2100000000E+02    0.6573919387E-01    0.5356822347E-01    0.1919728991E-01    0.9895401182E-02    0.3117030920E-01
    0.2300000000E+02    0.7095127374E-01    0.5751254291E-01    0.2074806375E-01    0.1068008011E-01    0.3369023586E-01
    0.2500000000E+02    0.7601973027E-01    0.6129970625E-01    0.2225898321E-01    0.1144315689E-01    0.3614571591E-01
    0.2700000000E+02    0.8095168802E-01    0.6493789495E-01    0.2373168654E-01    0.1218570292E-01    0.3853939474E-01
    0.2900000000E+02    0.8575378560E-01    0.6843474704E-01    0.2516772178E-01    0.1290871651E-01    0.4087377218E-01
    0.3100000000E+02    0.9043221656E-01    0.7179740123E-01    0.2656855295E-01    0.1361312907E-01    0.4315121249E-01
    0.3300000000E+02    0.9499276628E-01    0.7503253678E-01    0.2793556570E-01    0.1429981061E-01    0.4537395344E-01
    0.3500000000E+02    0.9944084527E-01    0.7814640961E-01    0.2927007251E-01    0.1496957479E-01    0.4754411472E-01
    0.3700000000E+02    0.1037815192E+00    0.8114488512E-01    0.3057331751E-01    0.1562318341E-01    0.4966370571E-01
    0.3900000000E+02    0.1080195362E+00    0.8403346788E-01    0.3184648087E-01    0.1626135053E-01    0.5173463258E-01
    0.4100000000E+02    0.1121593516E+00    0.8681732881E-01    0.3309068293E-01    0.1688474616E-01    0.5375870492E-01
    0.4300000000E+02    0.1162051500E+00    0.8950132982E-01    0.3430698793E-01    0.1749399964E-01    0.5573764178E-01
    0.4500000000E+02    0.1201608664E+00    0.9209004640E-01    0.3549640752E-01    0.1808970272E-01    0.5767307734E-01
    0.4700000000E+02    0.1240302041E+00    0.9458778814E-01    0.3665990399E-01    0.1867241235E-01    0.5956656610E-01
    0.4900000000E+02    0.1278166520E+00    0.9699861768E-01    0.3779839328E-01    0.1924265323E-01    0.6141958773E-01
    0.1000000000E+02    0.3413199250E-01    0.2863849846E-01    0.9872564731E-02    0.5137363631E-02    0.1602459864E-01
    0.3000000000E+02    0.8810808866E-01    0.7013242109E-01    0.2587244950E-01    0.1326319217E-01    0.4201946676E-01
    0.5000000000E+02    0.1296798277E+00    0.9817264668E-01    0.3835853448E-01    0.1952325361E-01    0.6233136642E-01
    0.7000000000E+02    0.1632989775E+00    0.1179148458E+00    0.4843991606E-01    0.2458703288E-01    0.7875171439E-01
    0.9000000000E+02    0.1914306979E+00    0.1322297005E+00    0.5679727684E-01    0.2882527906E-01    0.9238039571E-01
    0.1100000000E+03    0.2155592076E+00    0.1428350479E+00    0.6387247110E-01    0.3246122344E-01    0.1039316693E+00
    0.1300000000E+03    0.2366382609E+00    0.1508168495E+00    0.6996541621E-01    0.3563832008E-01    0.1138905445E+00
    0.1500000000E+03    0.2553136741E+00    0.1568919138E+00    0.7528723460E-01    0.3845370998E-01    0.1225985703E+00
    0.1700000000E+03    0.2720419890E+00    0.1615501593E+00    0.7999111012E-01    0.4097606689E-01    0.1303036597E+00
    0.1900000000E+03    0.2871577767E+00    0.1651361720E+00    0.8419106702E-01    0.4325571935E-01    0.1371904205E+00
    0.2100000000E+03    0.3009138054E+00    0.1678982000E+00    0.8797385926E-01    0.4533069200E-01    0.1433993623E+00
    0.2300000000E+03    0.3135060646E+00    0.1700187595E+00    0.9140675567E-01    0.4723046929E-01    0.1490394767E+00
    0.2500000000E+03    0.3250899402E+00    0.1716343981E+00    0.9454278803E-01    0.4897842830E-01    0.1541967196E+00
    0.2700000000E+03    0.3357910091E+00    0.1728488255E+00    0.9742437966E-01    0.5059346235E-01    0.1589398776E+00
    0.2900000000E+03    0.3457124502E+00    0.1737418551E+00    0.1000859110E+00    0.5209109568E-01    0.1633247165E+00
    0.3100000000E+03    0.3549402617E+00    0.1743756259E+00    0.1025555696E+00    0.5348426818E-01    0.1673969736E+00
    0.3300000000E+03    0.3635470173E+00    0.1747990150E+00    0.1048567082E+00    0.5478390044E-01    0.1711945544E+00
    0.3500000000E+03    0.3715946280E+00    0.1750508212E+00    0.1070088576E+00    0.5599930903E-01    0.1747491720E+00
    0.3700000000E+03    0.3791364087E+00    0.1751620954E+00    0.1090284925E+00    0.5713851746E-01    0.1780875867E+00
    0.3900000000E+03    0.3862186528E+00    0.1751578713E+00    0.1109296190E+00    0.5820849297E-01    0.1812325566E+00
    0.4100000000E+03    0.3928818499E+00    0.1750584652E+00    0.1127242303E+00    0.5921532968E-01    0.1842035758E+00
    0.4300000000E+03    0.3991616411E+00    0.1748804638E+00    0.1144226635E+00    0.6016439232E-01    0.1870174521E+00
    0.4500000000E+03    0.4050895786E+00    0.1746374828E+00    0.1160338827E+00    0.6106043041E-01    0.1896887660E+00
    0.4700000000E+03    0.4106937360E+00    0.1743407537E+00    0.1175657053E+00    0.6190767016E-01    0.1922302367E+00
    0.4900000000E+03    0.4159992056E+00    0.1739995830E+00    0.1190249840E+00    0.6270988922E-01    0.1946530179E+00
    0.1000000000E+03    0.2039266163E+00    0.1379172614E+00    0.6047384022E-01    0.3070820028E-01    0.9838126031E-01
    0.3000000000E+03    0.3504082455E+00    0.1740878244E+00    0.1013431648E+00    0.5280001514E-01    0.1653973866E+00
    0.5000000000E+03    0.4185470605E+00    0.1738148043E+00    0.1197293342E+00    0.6309518916E-01    0.1958230173E+00
    0.7000000000E+03    0.4582424645E+00    0.1691035064E+00    0.1311542390E+00    0.6910307271E-01    0.2148595298E+00
    0.9000000000E+03    0.4839184647E+00    0.1639718537E+00    0.1393057595E+00    0.7299585253E-01    0.2285173280E+00
    0.1100000000E+04    0.5017089001E+00    0.1591566086E+00    0.1455822359E+00    0.7569787667E-01    0.2390826487E+00
    0.1300000000E+04    0.5146712113E+00    0.1547744216E+00    0.1506526690E+00    0.7767018474E-01    0.2476523584E+00
    0.1500000000E+04    0.5244874616E+00    0.1508036216E+00    0.1548859413E+00    0.7916657642E-01    0.2548327933E+00
    0.1700000000E+04    0.5321520516E+00    0.1471945800E+00    0.1585059754E+00    0.8033718410E-01    0.2609928669E+00
    0.1900000000E+04    0.5382867762E+00    0.1438975195E+00    0.1616584771E+00    0.8127594200E-01    0.2663731406E+00
    0.2100000000E+04    0.5432984905E+00    0.1408690407E+00    0.1644433709E+00    0.8204435075E-01    0.2711389157E+00
    0.2300000000E+04    0.5474635965E+00    0.1380728082E+00    0.1669320602E+00    0.8268421712E-01    0.2754085289E+00
    0.2500000000E+04    0.5509759026E+00    0.1354787177E+00    0.1691772806E+00    0.8322487333E-01    0.2792695291E+00
    0.2700000000E+04    0.5539750201E+00    0.1330618064E+00    0.1712190499E+00    0.8368746214E-01    0.2827884600E+00
    0.2900000000E+04    0.5565638878E+00    0.1308012645E+00    0.1730884302E+00    0.8408758234E-01    0.2860170521E+00
    0.3100000000E+04    0.5588199601E+00    0.1286796207E+00    0.1748099987E+00    0.8443697837E-01    0.2889962953E+00
    0.3300000000E+04    0.5608025648E+00    0.1266820948E+00    0.1764035240E+00    0.8474465180E-01    0.2917592055E+00
    0.3500000000E+04    0.5625578677E+00    0.1247960890E+00    0.1778851355E+00    0.8501761168E-01    0.2943327562E+00
    0.3700000000E+04    0.5641223015E+00    0.1230107882E+00    0.1792681587E+00    0.8526139291E-01    0.2967392599E+00
    0.3900000000E+04    0.5655249828E+00    0.1213168442E+00    0.1805637246E+00    0.8548042178E-01    0.2989973772E+00
    0.4100000000E+04    0.5667894469E+00    0.1197061261E+00    0.1817812228E+00    0.8567827844E-01    0.3011228677E+00
    0.4300000000E+04    0.5679349150E+00    0.1181715201E+00    0.1829286438E+00    0.8585788870E-01    0.3031291575E+00
    0.4500000000E+04    0.5689772320E+00    0.1167067680E+00    0.1840128413E+00    0.8602166605E-01    0.3050277752E+00
    0.4700000000E+04    0.5699295723E+00    0.1153063373E+00    0.1850397361E+00    0.8617161852E-01    0.3068286906E+00
    0.4900000000E+04    0.5708029759E+00    0.1139653134E+00    0.1860144766E+00    0.8630942994E-01    0.3085405813E+00
    0.1000000000E+04    0.4935637145E+00    0.1615116855E+00    0.1426266471E+00    0.7446017907E-01    0.2341017950E+00
    0.3000000000E+04    0.5577294579E+00    0.1297240606E+00    0.1739663583E+00    0.8426800416E-01    0.2875356178E+00
    0.5000000000E+04    0.5712130464E+00    0.1133156903E+00    0.1864837185E+00    0.8637423601E-01    0.3093655541E+00
    0.7000000000E+04    0.5769171196E+00    0.1025901577E+00    0.1939772123E+00    0.8728460839E-01    0.3226223928E+00
    0.9000000000E+04    0.5800457886E+00    0.9477430103E-01    0.1991717285E+00    0.8779469667E-01    0.3319156623E+00
    0.1100000000E+05    0.5820157525E+00    0.8870933970E-01    0.2030687714E+00    0.8812271570E-01    0.3389539914E+00
    0.1300000000E+05    0.5833674986E+00    0.8380430371E-01    0.2061425079E+00    0.8835253413E-01    0.3445517401E+00
    0.1500000000E+05    0.5843512124E+00    0.7971886535E-01    0.2086526025E+00    0.8852325900E-01    0.3491573831E+00
    0.1700000000E+05    0.5850983852E+00    0.7624011381E-01    0.2107555980E+00    0.8865559418E-01    0.3530426265E+00
    0.1900000000E+05    0.5856846594E+00    0.7322654955E-01    0.2125525820E+00    0.8876153653E-01    0.3563837051E+00
    0.2100000000E+05    0.5861565996E+00    0.7057968191E-01    0.2141123024E+00    0.8884852459E-01    0.3593009593E+00
    0.2300000000E+05    0.5865444231E+00    0.6822840127E-01    0.2154834470E+00    0.8892142036E-01    0.3618799362E+00
    0.2500000000E+05    0.5868685867E+00    0.6611981800E-01    0.2167016413E+00    0.8898353896E-01    0.3641834507E+00
    0.2700000000E+05    0.5871434280E+00    0.6421361241E-01    0.2177936626E+00    0.8903722049E-01    0.3662588729E+00
    0.2900000000E+05    0.5873792916E+00    0.6247840170E-01    0.2187800964E+00    0.8908416537E-01    0.3681427327E+00
    0.3100000000E+05    0.5875838266E+00    0.6088932110E-01    0.2196770742E+00    0.8912563986E-01    0.3698637418E+00
    0.3300000000E+05    0.5877628098E+00    0.5942636474E-01    0.2204974482E+00    0.8916260701E-01    0.3714448396E+00
    0.3500000000E+05    0.5879206848E+00    0.5807321828E-01    0.2212516059E+00    0.8919581280E-01    0.3729046169E+00
    0.3700000000E+05    0.5880609247E+00    0.5681641915E-01    0.2219480498E+00    0.8922584442E-01    0.3742583306E+00
    0.3900000000E+05    0.5881862833E+00    0.5564474036E-01    0.2225938181E+00    0.8925317065E-01    0.3755186416E+00
    0.4100000000E+05    0.5882989716E+00    0.5454873063E-01    0.2231947950E+00    0.8927817049E-01    0.3766961610E+00
    0.4300000000E+05    0.5884007852E+00    0.5352036579E-01    0.2237559447E+00    0.8930115384E-01    0.3777998615E+00
    0.4500000000E+05    0.5884931970E+00    0.5255278078E-01    0.2242814891E+00    0.8932237672E-01    0.3788373916E+00
    0.4700000000E+05    0.5885774268E+00    0.5164006106E-01    0.2247750454E+00    0.8934205253E-01    0.3798153191E+00
    0.4900000000E+05    0.5886544931E+00    0.5077707846E-01    0.2252397338E+00    0.8936036072E-01    0.3807393210E+00
    0.1000000000E+05    0.5811315980E+00    0.9156800024E-01    0.2012456938E+00    0.8797464860E-01    0.3356537010E+00
    0.3000000000E+05    0.5874850776E+00    0.6166694379E-01    0.2192388981E+00    0.8910552030E-01    0.3690220437E+00
    0.5000000000E+05    0.5886906133E+00    0.5036281835E-01    0.2254621128E+00    0.8936905038E-01    0.3811826682E+00
    0.7000000000E+05    0.5891877799E+00    0.4385280737E-01    0.2288960896E+00    0.8949812743E-01    0.3881372606E+00
    0.9000000000E+05    0.5894541406E+00    0.3945705535E-01    0.2311457974E+00    0.8957880730E-01    0.3928283529E+00
    0.1100000000E+06    0.5896176237E+00    0.3622104639E-01    0.2327623568E+00    0.8963586005E-01    0.3962857012E+00
    0.1300000000E+06    0.5897267213E+00    0.3370477974E-01    0.2339937040E+00    0.8967931334E-01    0.3989797528E+00
    0.1500000000E+06    0.5898037671E+00    0.3167256328E-01    0.2349702059E+00    0.8971408048E-01    0.4011611944E+00
    0.1700000000E+06    0.5898604382E+00    0.2998489800E-01    0.2357678610E+00    0.8974288641E-01    0.4029779226E+00
    0.1900000000E+06    0.5899034139E+00    0.2855309268E-01    0.2364343664E+00    0.8976738040E-01    0.4045237782E+00
    0.2100000000E+06    0.5899367800E+00    0.2731762856E-01    0.2370013691E+00    0.8978862780E-01    0.4058616588E+00
    0.2300000000E+06    0.5899631701E+00    0.2623683766E-01    0.2374908000E+00    0.8980735236E-01    0.4070355676E+00
    0.2500000000E+06    0.5899843541E+00    0.2528053782E-01    0.2379183985E+00    0.8982406593E-01    0.4080773686E+00
    0.2700000000E+06    0.5900015627E+00    0.2442624460E-01    0.2382957901E+00    0.8983914255E-01    0.4090107989E+00
    0.2900000000E+06    0.5900156771E+00    0.2365680953E-01    0.2386317711E+00    0.8985286312E-01    0.4098539656E+00
    0.3100000000E+06    0.5900273430E+00    0.2295888960E-01    0.2389331353E+00    0.8986544350E-01    0.4106209628E+00
    0.3300000000E+06    0.5900370440E+00    0.2232192239E-01    0.2392052233E+00    0.8987705286E-01    0.4113229527E+00
    0.3500000000E+06    0.5900451486E+00    0.2173742030E-01    0.2394522978E+00    0.8988782606E-01    0.4119689102E+00
    0.3700000000E+06    0.5900519423E+00    0.2119847258E-01    0.2396778079E+00    0.8989787222E-01    0.4125661476E+00
    0.3900000000E+06    0.5900576491E+00    0.2069938636E-01    0.2398845778E+00    0.8990728078E-01    0.4131206927E+00
    0.4100000000E+06    0.5900624473E+00    0.2023542295E-01    0.2400749446E+00    0.8991612592E-01    0.4136375670E+00
    0.4300000000E+06    0.5900664800E+00    0.1980260095E-01    0.2402508608E+00    0.8992446979E-01    0.4141209928E+00
    0.4500000000E+06    0.5900698635E+00    0.1939754693E-01    0.2404139723E+00    0.8993236496E-01    0.4145745508E+00
    0.4700000000E+06    0.5900726931E+00    0.1901738059E-01    0.2405656765E+00    0.8993985626E-01    0.4150013007E+00
    0.4900000000E+06    0.5900750475E+00    0.1865962556E-01    0.2407071694E+00    0.8994698222E-01    0.4154038756E+00
    0.1000000000E+06    0.5895447880E+00    0.3772840505E-01    0.2320137708E+00    0.8960948289E-01    0.3946744833E+00
    0.3000000000E+06    0.5900217827E+00    0.2329962600E-01    0.2387864175E+00    0.8985928433E-01    0.4102462290E+00
    0.5000000000E+06    0.5900760675E+00    0.1848847125E-01    0.2407744139E+00    0.8995041880E-01    0.4155968222E+00
    0.7000000000E+06    0.5900828085E+00    0.1584668700E-01    0.2417714714E+00    0.9000613382E-01    0.4186079815E+00
    0.9000000000E+06    0.5900775039E+00    0.1411153785E-01    0.2423769973E+00    0.9004621725E-01    0.4206272873E+00
    0.1100000000E+07    0.5900683996E+00    0.1285788994E-01    0.2427840283E+00    0.9007750559E-01    0.4221130038E+00
    0.1300000000E+07    0.5900581404E+00    0.1189644103E-01    0.2430754758E+00    0.9010315908E-01    0.4232711124E+00
    0.1500000000E+07    0.5900477193E+00    0.1112823404E-01    0.2432933338E+00    0.9012489558E-01    0.4242102336E+00
    0.1700000000E+07    0.5900375359E+00    0.1049577336E-01    0.2434613107E+00    0.9014375193E-01    0.4249939935E+00
    0.1900000000E+07    0.5900277488E+00    0.9963037749E-02    0.2435938686E+00    0.9016040169E-01    0.4256625599E+00
    0.2100000000E+07    0.5900184115E+00    0.9506144076E-02    0.2437003578E+00    0.9017530703E-01    0.4262427576E+00
    0.2300000000E+07    0.5900095299E+00    0.9108540987E-02    0.2437871042E+00    0.9018879876E-01    0.4267533035E+00
    0.2500000000E+07    0.5900010880E+00    0.8758343286E-02    0.2438585469E+00    0.9020112178E-01    0.4272077256E+00
    0.2700000000E+07    0.5899930608E+00    0.8446763678E-02    0.2439178954E+00    0.9021246243E-01    0.4276160878E+00
    0.2900000000E+07    0.5899854201E+00    0.8167144711E-02    0.2439675292E+00    0.9022296581E-01    0.4279860600E+00
    0.3100000000E+07    0.5899781377E+00    0.7914336874E-02    0.2440092504E+00    0.9023274708E-01    0.4283236086E+00
    0.3300000000E+07    0.5899711864E+00    0.7684285370E-02    0.2440444489E+00    0.9024189918E-01    0.4286334575E+00
    0.3500000000E+07    0.5899645408E+00    0.7473747517E-02    0.2440742139E+00    0.9025049819E-01    0.4289194046E+00
    0.3700000000E+07    0.5899581779E+00    0.7280094573E-02    0.2440994111E+00    0.9025860718E-01    0.4291845442E+00
    0.3900000000E+07    0.5899520765E+00    0.7101169696E-02    0.2441207367E+00    0.9026627901E-01    0.4294314278E+00
    0.4100000000E+07    0.5899462173E+00    0.6935184152E-02    0.2441387572E+00    0.9027355844E-01    0.4296621816E+00
    0.4300000000E+07    0.5899405829E+00    0.6780640156E-02    0.2441539377E+00    0.9028048369E-01    0.4298785942E+00
    0.4500000000E+07    0.5899351577E+00    0.6636272624E-02    0.2441666640E+00    0.9028708762E-01    0.4300821832E+00
    0.4700000000E+07    0.5899299272E+00    0.6501004582E-02    0.2441772580E+00    0.9029339877E-01    0.4302742463E+00
    0.4900000000E+07    0.5899248785E+00    0.6373912613E-02    0.2441859908E+00    0.9029944201E-01    0.4304559007E+00
    0.1000000000E+07    0.5900732009E+00    0.1343940587E-01    0.2425987485E+00    0.9006271510E-01    0.4214206938E+00
    0.3000000000E+07    0.5899817359E+00    0.8037664671E-02    0.2439892838E+00    0.9022794045E-01    0.4281585671E+00
    0.5000000000E+07    0.5899224186E+00    0.6313179285E-02    0.2441897324E+00    0.9030237009E-01    0.4305431323E+00
    0.7000000000E+07    0.5898804091E+00    0.5381357536E-02    0.2442076052E+00    0.9035099984E-01    0.4319205364E+00
    0.9000000000E+07    0.5898479779E+00    0.4774967703E-02    0.2441711392E+00    0.9038718794E-01    0.4328645551E+00
    0.1100000000E+08    0.5898215830E+00    0.4339580660E-02    0.2441149976E+00    0.9041602399E-01    0.4335721709E+00
    0.1300000000E+08    0.5897993337E+00    0.4007205160E-02    0.2440516604E+00    0.9043999856E-01    0.4341327965E+00
    0.1500000000E+08    0.5897801056E+00    0.3742580485E-02    0.2439863422E+00    0.9046051795E-01    0.4345940272E+00
    0.1700000000E+08    0.5897631766E+00    0.3525342704E-02    0.2439214012E+00    0.9047845459E-01    0.4349839909E+00
    0.1900000000E+08    0.5897480557E+00    0.3342794668E-02    0.2438579340E+00    0.9049438712E-01    0.4353205935E+00
    0.2100000000E+08    0.5897343939E+00    0.3186550821E-02    0.2437964353E+00    0.9050871915E-01    0.4356158870E+00
    0.2300000000E+08    0.5897219343E+00    0.3050819025E-02    0.2437370981E+00    0.9052174340E-01    0.4358783432E+00
    0.2500000000E+08    0.5897104824E+00    0.2931451826E-02    0.2436799601E+00    0.9053367896E-01    0.4361141282E+00
    0.2700000000E+08    0.5896998874E+00    0.2825390359E-02    0.2436249783E+00    0.9054469407E-01    0.4363278595E+00
