  Pressure (Pa) 22mC5-400 (mol/kg) 2mC6-400 (mol/kg) 3mC6-400 (mol/kg) 23mC5-400 (mol/kg) C7-400 (mol/kg)
    0.1000000000E+01    0.3702887761E-02    0.1574262670E-02    0.2088824969E-02    0.9288394415E-04    0.1016910023E-01
    0.3000000000E+01    0.1095308013E-01    0.4534731204E-02    0.6027420056E-02    0.2747523076E-03    0.2934891540E-01
    0.5000000000E+01    0.1800385171E-01    0.7266638106E-02    0.9676903867E-02    0.4516223628E-03    0.4712756846E-01
    0.7000000000E+01    0.2486430637E-01    0.9793354113E-02    0.1306835639E-01    0.6237222439E-03    0.6365545016E-01
    0.9000000000E+01    0.3154298992E-01    0.1213511278E-01    0.1622854341E-01    0.7912661033E-03    0.7906209213E-01
    0.1100000000E+02    0.3804793213E-01    0.1430952965E-01    0.1918064064E-01    0.9544551624E-03    0.9345966606E-01
    0.1300000000E+02    0.4438668493E-01    0.1633202059E-01    0.2194481660E-01    0.1113478670E-02    0.1069458012E+00
    0.1500000000E+02    0.5056635732E-01    0.1821614154E-01    0.2453870557E-01    0.1268514775E-02    0.1196058700E+00
    0.1700000000E+02    0.5659364732E-01    0.1997386640E-01    0.2697779393E-01    0.1419731332E-02    0.1315148560E+00
    0.1900000000E+02    0.6247487115E-01    0.2161581602E-01    0.2927573795E-01    0.1567286625E-02    0.1427388896E+00
    0.2100000000E+02    0.6821599006E-01    0.2315144791E-01    0.3144462665E-01    0.1711330044E-02    0.1533365196E+00
    0.2300000000E+02    0.7382263485E-01    0.2458921451E-01    0.3349520076E-01    0.1852002702E-02    0.1633597708E+00
    0.2500000000E+02    0.7930012845E-01    0.2593669596E-01    0.3543703578E-01    0.1989437993E-02    0.1728550304E+00
    0.2700000000E+02    0.8465350670E-01    0.2720071201E-01    0.3727869616E-01    0.2123762121E-02    0.1818637924E+00
    0.2900000000E+02    0.8988753745E-01    0.2838741690E-01    0.3902786544E-01    0.2255094571E-02    0.1904232879E+00
    0.3100000000E+02    0.9500673817E-01    0.2950238012E-01    0.4069145695E-01    0.2383548558E-02    0.1985670200E+00
    0.3300000000E+02    0.1000153922E+00    0.3055065556E-01    0.4227570808E-01    0.2509231426E-02    0.2063252198E+00
    0.3500000000E+02    0.1049175637E+00    0.3153684082E-01    0.4378626112E-01    0.2632245032E-02    0.2137252376E+00
    0.3700000000E+02    0.1097171117E+00    0.3246512848E-01    0.4522823269E-01    0.2752686086E-02    0.2207918786E+00
    0.3900000000E+02    0.1144177027E+00    0.3333935043E-01    0.4660627373E-01    0.2870646479E-02    0.2275476932E+00
    0.4100000000E+02    0.1190228228E+00    0.3416301642E-01    0.4792462139E-01    0.2986213579E-02    0.2340132282E+00
    0.4300000000E+02    0.1235357886E+00    0.3493934767E-01    0.4918714416E-01    0.3099470504E-02    0.2402072449E+00
    0.4500000000E+02    0.1279597572E+00    0.3567130636E-01    0.5039738121E-01    0.3210496384E-02    0.2461469098E+00
    0.4700000000E+02    0.1322977364E+00    0.3636162139E-01    0.5155857679E-01    0.3319366595E-02    0.2518479605E+00
    0.4900000000E+02    0.1365525926E+00    0.3701281118E-01    0.5267371041E-01    0.3426152980E-02    0.2573248526E+00
    0.1000000000E+02    0.3481669592E-01    0.1324222821E-01    0.1772927825E-01    0.8733928849E-03    0.8638059900E-01
    0.3000000000E+02    0.9246121855E-01    0.2895353901E-01    0.3986995375E-01    0.2319674530E-02    0.1945451631E+00
    0.5000000000E+02    0.1386497089E+00    0.3732446855E-01    0.5321486929E-01    0.3478786276E-02    0.2599834377E+00
    0.7000000000E+02    0.1768297457E+00    0.4198473538E-01    0.6218125331E-01    0.4437130822E-02    0.3041118318E+00
    0.9000000000E+02    0.2091472584E+00    0.4455288119E-01    0.6864436038E-01    0.5248492198E-02    0.3360341216E+00
    0.1100000000E+03    0.2370116069E+00    0.4586160576E-01    0.7353811753E-01    0.5948195408E-02    0.3602900011E+00
    0.1300000000E+03    0.2613900829E+00    0.4638027249E-01    0.7738092352E-01    0.6560486361E-02    0.3794024957E+00
    0.1500000000E+03    0.2829714795E+00    0.4639059282E-01    0.8048413560E-01    0.7102630980E-02    0.3948888467E+00
    0.1700000000E+03    0.3022618359E+00    0.4606949182E-01    0.8304633439E-01    0.7587314674E-02    0.4077179237E+00
    0.1900000000E+03    0.3196430088E+00    0.4553189370E-01    0.8520031110E-01    0.8024110272E-02    0.4185384004E+00
    0.2100000000E+03    0.3354098833E+00    0.4485436761E-01    0.8703832913E-01    0.8420410629E-02    0.4278015199E+00
    0.2300000000E+03    0.3497947985E+00    0.4408890691E-01    0.8862655260E-01    0.8782040828E-02    0.4358312671E+00
    0.2500000000E+03    0.3629840496E+00    0.4327130690E-01    0.9001370659E-01    0.9113671791E-02    0.4428665174E+00
    0.2700000000E+03    0.3751293238E+00    0.4242643832E-01    0.9123649499E-01    0.9419106906E-02    0.4490874251E+00
    0.2900000000E+03    0.3863558077E+00    0.4157166405E-01    0.9232311118E-01    0.9701485254E-02    0.4546325351E+00
    0.3100000000E+03    0.3967680548E+00    0.4071910718E-01    0.9329558272E-01    0.9963428676E-02    0.4596102192E+00
    0.3300000000E+03    0.4064543113E+00    0.3987718805E-01    0.9417137895E-01    0.1020715020E-01    0.4641065231E+00
    0.3500000000E+03    0.4154897594E+00    0.3905168434E-01    0.9496453881E-01    0.1043453534E-01    0.4681906762E+00
    0.3700000000E+03    0.4239389869E+00    0.3824647341E-01    0.9568647856E-01    0.1064720401E-01    0.4719190389E+00
    0.3900000000E+03    0.4318578952E+00    0.3746405884E-01    0.9634658061E-01    0.1084655833E-01    0.4753379836E+00
    0.4100000000E+03    0.4392951911E+00    0.3670594822E-01    0.9695263001E-01    0.1103382006E-01    0.4784860314E+00
    0.4300000000E+03    0.4462935686E+00    0.3597292662E-01    0.9751114268E-01    0.1121006017E-01    0.4813954599E+00
    0.4500000000E+03    0.4528906550E+00    0.3526525624E-01    0.9802761562E-01    0.1137622261E-01    0.4840935295E+00
    0.4700000000E+03    0.4591197756E+00    0.3458282305E-01    0.9850671988E-01    0.1153314345E-01    0.4866034307E+00
    0.4900000000E+03    0.4650105779E+00    0.3392524514E-01    0.9895245112E-01    0.1168156653E-01    0.4889450225E+00
    0.1000000000E+03    0.2235676149E+00    0.4532953595E-01    0.7124853210E-01    0.5610585014E-02    0.3489312270E+00
    0.3000000000E+03    0.3916578557E+00    0.4114450967E-01    0.9282243146E-01    0.9834864498E-02    0.4571864779E+00
    0.5000000000E+03    0.4678374972E+00    0.3360560449E-01    0.9916389557E-01    0.1175280187E-01    0.4900581435E+00
    0.7000000000E+03    0.5117661348E+00    0.2833496852E-01    0.1022682900E+00    0.1286066168E-01    0.5066133348E+00
    0.9000000000E+03    0.5401681512E+00    0.2466461760E-01    0.1041269554E+00    0.1357817163E-01    0.5167896988E+00
    0.1100000000E+04    0.5599193650E+00    0.2200281913E-01    0.1053695651E+00    0.1407800322E-01    0.5237653552E+00
    0.1300000000E+04    0.5743856483E+00    0.1999282575E-01    0.1062606150E+00    0.1444473526E-01    0.5288892141E+00
    0.1500000000E+04    0.5854033994E+00    0.1842180203E-01    0.1069313700E+00    0.1472454115E-01    0.5328373054E+00
    0.1700000000E+04    0.5940551289E+00    0.1715835233E-01    0.1074546372E+00    0.1494465510E-01    0.5359881251E+00
    0.1900000000E+04    0.6010178212E+00    0.1611804771E-01    0.1078741594E+00    0.1512211898E-01    0.5385711425E+00
    0.2100000000E+04    0.6067352552E+00    0.1524455581E-01    0.1082178535E+00    0.1526811072E-01    0.5407341000E+00
    0.2300000000E+04    0.6115097552E+00    0.1449900645E-01    0.1085043999E+00    0.1539024976E-01    0.5425767092E+00
    0.2500000000E+04    0.6155540018E+00    0.1385377522E-01    0.1087467843E+00    0.1549389946E-01    0.5441688688E+00
    0.2700000000E+04    0.6190217418E+00    0.1328871589E-01    0.1089543215E+00    0.1558293928E-01    0.5455611331E+00
    0.2900000000E+04    0.6220267467E+00    0.1278879902E-01    0.1091338715E+00    0.1566024172E-01    0.5467910359E+00
    0.3100000000E+04    0.6246549311E+00    0.1234258616E-01    0.1092906009E+00    0.1572797725E-01    0.5478870707E+00
    0.3300000000E+04    0.6269723366E+00    0.1194121658E-01    0.1094284763E+00    0.1578781529E-01    0.5488712872E+00
    0.3500000000E+04    0.6290305310E+00    0.1157771759E-01    0.1095505950E+00    0.1584106018E-01    0.5497610356E+00
    0.3700000000E+04    0.6308703461E+00    0.1124652462E-01    0.1096594111E+00    0.1588874532E-01    0.5505701691E+00
    0.3900000000E+04    0.6325245190E+00    0.1094314042E-01    0.1097568949E+00    0.1593169977E-01    0.5513098937E+00
    0.4100000000E+04    0.6340195934E+00    0.1066388884E-01    0.1098446463E+00    0.1597059615E-01    0.5519893790E+00
    0.4300000000E+04    0.6353773112E+00    0.1040573371E-01    0.1099239788E+00    0.1600598573E-01    0.5526162067E+00
    0.4500000000E+04    0.6366156466E+00    0.1016614390E-01    0.1099959802E+00    0.1603832454E-01    0.5531967044E+00
    0.4700000000E+04    0.6377495844E+00    0.9942991195E-02    0.1100615599E+00    0.1606799300E-01    0.5537361981E+00
    0.4900000000E+04    0.6387917149E+00    0.9734472069E-02    0.1101214832E+00    0.1609531093E-01    0.5542392054E+00
    0.1000000000E+04    0.5508648293E+00    0.2323430712E-01    0.1048041666E+00    0.1384875796E-01    0.5205702932E+00
    0.3000000000E+04    0.6233834212E+00    0.1255958447E-01    0.1092148172E+00    0.1569519111E-01    0.5473542813E+00
    0.5000000000E+04    0.6392817467E+00    0.9635210106E-02    0.1101495307E+00    0.1610817472E-01    0.5544782549E+00
    0.7000000000E+04    0.6461529854E+00    0.8140593335E-02    0.1105292396E+00    0.1629015639E-01    0.5580404421E+00
    0.9000000000E+04    0.6499734222E+00    0.7192407766E-02    0.1107200804E+00    0.1639327901E-01    0.5602556725E+00
    0.1100000000E+05    0.6524029338E+00    0.6520926690E-02    0.1108256663E+00    0.1646009245E-01    0.5617993352E+00
    0.1300000000E+05    0.6540832065E+00    0.6012551561E-02    0.1108863700E+00    0.1650715662E-01    0.5629533047E+00
    0.1500000000E+05    0.6553141394E+00    0.5609972949E-02    0.1109210399E+00    0.1654226221E-01    0.5638581187E+00
    0.1700000000E+05    0.6562545317E+00    0.5280697571E-02    0.1109395760E+00    0.1656956154E-01    0.5645924913E+00
    0.1900000000E+05    0.6569962885E+00    0.5004726243E-02    0.1109476303E+00    0.1659147335E-01    0.5652043030E+00
    0.2100000000E+05    0.6575962720E+00    0.4768975394E-02    0.1109486353E+00    0.1660950380E-01    0.5657245359E+00
    0.2300000000E+05    0.6580915428E+00    0.4564472080E-02    0.1109447781E+00    0.1662464085E-01    0.5661742247E+00
    0.2500000000E+05    0.6585072860E+00    0.4384826535E-02    0.1109375060E+00    0.1663756014E-01    0.5665682116E+00
    0.2700000000E+05    0.6588612133E+00    0.4225346551E-02    0.1109278062E+00    0.1664873983E-01    0.5669173046E+00
    0.2900000000E+05    0.6591661426E+00    0.4082497239E-02    0.1109163695E+00    0.1665852815E-01    0.5672295844E+00
    0.3100000000E+05    0.6594315787E+00    0.3953557373E-02    0.1109036892E+00    0.1666718492E-01    0.5675112289E+00
    0.3300000000E+05    0.6596647183E+00    0.3836392918E-02    0.1108901237E+00    0.1667490809E-01    0.5677670524E+00
    0.3500000000E+05    0.6598711103E+00    0.3729303234E-02    0.1108759371E+00    0.1668185125E-01    0.5680008696E+00
    0.3700000000E+05    0.6600551018E+00    0.3630913880E-02    0.1108613266E+00    0.1668813544E-01    0.5682157475E+00
    0.3900000000E+05    0.6602201468E+00    0.3540100181E-02    0.1108464403E+00    0.1669385743E-01    0.5684141838E+00
    0.4100000000E+05    0.6603690241E+00    0.3455931630E-02    0.1108313909E+00    0.1669909555E-01    0.5685982360E+00
    0.4300000000E+05    0.6605039947E+00    0.3377630734E-02    0.1108162643E+00    0.1670391390E-01    0.5687696164E+00
    0.4500000000E+05    0.6606269169E+00    0.3304542046E-02    0.1108011263E+00    0.1670836549E-01    0.5689297634E+00
    0.4700000000E+05    0.6607393321E+00    0.3236108546E-02    0.1107860275E+00    0.1671249457E-01    0.5690798950E+00
    0.4900000000E+05    0.6608425298E+00    0.3171853381E-02    0.1107710066E+00    0.1671633835E-01    0.5692210512E+00
    0.1000000000E+05    0.6513099374E+00    0.6831109937E-02    0.1107802536E+00    0.1642988201E-01    0.5610889733E+00
    0.3000000000E+05    0.6593033025E+00    0.4016433686E-02    0.1109101598E+00    0.1666298439E-01    0.5673739082E+00
    0.5000000000E+05    0.6608910186E+00    0.3141162000E-02    0.1107635350E+00    0.1671816331E-01    0.5692885476E+00
    0.7000000000E+05    0.6615686934E+00    0.2671373534E-02    0.1106224520E+00    0.1674531372E-01    0.5703303168E+00
    0.9000000000E+05    0.6619438608E+00    0.2366716149E-02    0.1104991846E+00    0.1676232211E-01    0.5710194477E+00
    0.1100000000E+06    0.6621818032E+00    0.2148465787E-02    0.1103915584E+00    0.1677436514E-01    0.5715236230E+00
    0.1300000000E+06    0.6623459837E+00    0.1982125983E-02    0.1102965297E+00    0.1678354498E-01    0.5719159496E+00
    0.1500000000E+06    0.6624659786E+00    0.1849861215E-02    0.1102116173E+00    0.1679089374E-01    0.5722342252E+00
    0.1700000000E+06    0.6625574275E+00    0.1741393643E-02    0.1101349328E+00    0.1679698470E-01    0.5725002903E+00
    0.1900000000E+06    0.6626293749E+00    0.1650325733E-02    0.1100650443E+00    0.1680216520E-01    0.5727277984E+00
    0.2100000000E+06    0.6626874140E+00    0.1572438106E-02    0.1100008523E+00    0.1680665983E-01    0.5729258021E+00
    0.2300000000E+06    0.6627351889E+00    0.1504819607E-02    0.1099414991E+00    0.1681062126E-01    0.5731005842E+00
    0.2500000000E+06    0.6627751751E+00    0.1445387708E-02    0.1098863046E+00    0.1681415751E-01    0.5732566670E+00
    0.2700000000E+06    0.6628091127E+00    0.1392607760E-02    0.1098347218E+00    0.1681734759E-01    0.5733974052E+00
    0.2900000000E+06    0.6628382609E+00    0.1345320450E-02    0.1097863041E+00    0.1682025082E-01    0.5735253495E+00
    0.3100000000E+06    0.6628635528E+00    0.1302631369E-02    0.1097406829E+00    0.1682291283E-01    0.5736424810E+00
    0.3300000000E+06    0.6628856945E+00    0.1263837877E-02    0.1096975501E+00    0.1682536937E-01    0.5737503666E+00
    0.3500000000E+06    0.6629052304E+00    0.1228379241E-02    0.1096566462E+00    0.1682764896E-01    0.5738502648E+00
    0.3700000000E+06    0.6629225865E+00    0.1195801763E-02    0.1096177499E+00    0.1682977468E-01    0.5739432009E+00
    0.3900000000E+06    0.6629381014E+00    0.1165733842E-02    0.1095806717E+00    0.1683176544E-01    0.5740300200E+00
    0.4100000000E+06    0.6629520471E+00    0.1137867794E-02    0.1095452475E+00    0.1683363694E-01    0.5741114266E+00
    0.4300000000E+06    0.6629646448E+00    0.1111946371E-02    0.1095113347E+00    0.1683540232E-01    0.5741880132E+00
    0.4500000000E+06    0.6629760762E+00    0.1087752589E-02    0.1094788083E+00    0.1683707272E-01    0.5742602829E+00
    0.4700000000E+06    0.6629864921E+00    0.1065101971E-02    0.1094475583E+00    0.1683865761E-01    0.5743286660E+00
    0.4900000000E+06    0.6629960182E+00    0.1043836532E-02    0.1094174874E+00    0.1684016516E-01    0.5743935335E+00
    0.1000000000E+06    0.6620748268E+00    0.2249510919E-02    0.1104436161E+00    0.1676879582E-01    0.5712888863E+00
    0.3000000000E+06    0.6628513403E+00    0.1323448867E-02    0.1097631645E+00    0.1682160955E-01    0.5735851607E+00
    0.5000000000E+06    0.6630004815E+00    0.1033679951E-02    0.1094028666E+00    0.1684089217E-01    0.5744247511E+00
    0.7000000000E+06    0.6630617263E+00    0.8782991700E-03    0.1091555961E+00    0.1685267658E-01    0.5749241529E+00
    0.9000000000E+06    0.6630942297E+00    0.7776430204E-03    0.1089668160E+00    0.1686115161E-01    0.5752745381E+00
    0.1100000000E+07    0.6631139265E+00    0.7055993489E-03    0.1088139473E+00    0.1686776493E-01    0.5755422812E+00
    0.1300000000E+07    0.6631268689E+00    0.6507310776E-03    0.1086854193E+00    0.1687318574E-01    0.5757578753E+00
    0.1500000000E+07    0.6631358450E+00    0.6071288112E-03    0.1085744974E+00    0.1687777778E-01    0.5759377391E+00
    0.1700000000E+07    0.6631423114E+00    0.5713894445E-03    0.1084769113E+00    0.1688176054E-01    0.5760916797E+00
    0.1900000000E+07    0.6631470998E+00    0.5413959645E-03    0.1083897813E+00    0.1688527661E-01    0.5762260022E+00
    0.2100000000E+07    0.6631507180E+00    0.5157528975E-03    0.1083110723E+00    0.1688842378E-01    0.5763449891E+00
    0.2300000000E+07    0.6631534924E+00    0.4934979117E-03    0.1082392921E+00    0.1689127207E-01    0.5764516764E+00
    0.2500000000E+07    0.6631556417E+00    0.4739428963E-03    0.1081733143E+00    0.1689387329E-01    0.5765482912E+00
    0.2700000000E+07    0.6631573175E+00    0.4565809753E-03    0.1081122668E+00    0.1689626686E-01    0.5766365140E+00
    0.2900000000E+07    0.6631586279E+00    0.4410293794E-03    0.1080554611E+00    0.1689848347E-01    0.5767176422E+00
    0.3100000000E+07    0.6631596518E+00    0.4269928997E-03    0.1080023438E+00    0.1690054748E-01    0.5767926980E+00
    0.3300000000E+07    0.6631604480E+00    0.4142396932E-03    0.1079524633E+00    0.1690247855E-01    0.5768625003E+00
    0.3500000000E+07    0.6631610613E+00    0.4025847917E-03    0.1079054466E+00    0.1690429276E-01    0.5769277150E+00
    0.3700000000E+07    0.6631615259E+00    0.3918785722E-03    0.1078609814E+00    0.1690600345E-01    0.5769888905E+00
    0.3900000000E+07    0.6631618689E+00    0.3819985154E-03    0.1078188043E+00    0.1690762179E-01    0.5770464836E+00
    0.4100000000E+07    0.6631621114E+00    0.3728431986E-03    0.1077786906E+00    0.1690915725E-01    0.5771008788E+00
    0.4300000000E+07    0.6631622704E+00    0.3643278404E-03    0.1077404473E+00    0.1691061790E-01    0.5771524026E+00
    0.4500000000E+07    0.6631623597E+00    0.3563809445E-03    0.1077039072E+00    0.1691201069E-01    0.5772013347E+00
    0.4700000000E+07    0.6631623904E+00    0.3489417354E-03    0.1076689246E+00    0.1691334165E-01    0.5772479160E+00
    0.4900000000E+07    0.6631623716E+00    0.3419581748E-03    0.1076353720E+00    0.1691461603E-01    0.5772923560E+00
    0.1000000000E+07    0.6631051855E+00    0.7389468541E-03    0.1088867723E+00    0.1686463895E-01    0.5754163632E+00
    0.3000000000E+07    0.6631591716E+00    0.4338375027E-03    0.1080284717E+00    0.1689953323E-01    0.5767558739E+00
    0.5000000000E+07    0.6631623462E+00    0.3386230007E-03    0.1076190961E+00    0.1691523348E-01    0.5773138311E+00
    0.7000000000E+07    0.6631605306E+00    0.2876192909E-03    0.1073471791E+00    0.1692548559E-01    0.5776652618E+00
    0.9000000000E+07    0.6631577562E+00    0.2545985020E-03    0.1071431828E+00    0.1693311188E-01    0.5779207858E+00
    0.1100000000E+08    0.6631548628E+00    0.2309736039E-03    0.1069798447E+00    0.1693918710E-01    0.5781210493E+00
    0.1300000000E+08    0.6631520758E+00    0.2129861910E-03    0.1068436118E+00    0.1694423697E-01    0.5782854495E+00
    0.1500000000E+08    0.6631494551E+00    0.1986953250E-03    0.1067267525E+00    0.1694855827E-01    0.5784247323E+00
    0.1700000000E+08    0.6631470084E+00    0.1869836864E-03    0.1066244353E+00    0.1695233505E-01    0.5785454635E+00
    0.1900000000E+08    0.6631447265E+00    0.1771564214E-03    0.1065334381E+00    0.1695568938E-01    0.5786519435E+00
    0.2100000000E+08    0.6631425950E+00    0.1687556167E-03    0.1064515039E+00    0.1695870638E-01    0.5787471397E+00
    0.2300000000E+08    0.6631405988E+00    0.1614655569E-03    0.1063769903E+00    0.1696144777E-01    0.5788331848E+00
    0.2500000000E+08    0.6631387240E+00    0.1550605317E-03    0.1063086645E+00    0.1696395976E-01    0.5789116619E+00
    0.2700000000E+08    0.6631369579E+00    0.1493743041E-03    0.1062455775E+00    0.1696627782E-01    0.5789837782E+00
