  Pressure (Pa) 22mC5-400 (mol/kg) 2mC6-400 (mol/kg) 3mC6-400 (mol/kg) 23mC5-400 (mol/kg) C7-400 (mol/kg)
    0.1000000000E+01    0.3703717793E-02    0.7925849009E-03    0.2106489959E-02    0.4645238887E-03    0.5127343419E-02
    0.3000000000E+01    0.1096014899E-01    0.2313223470E-02    0.6176761271E-02    0.1374648716E-02    0.1503626995E-01
    0.5000000000E+01    0.1802243205E-01    0.3752581376E-02    0.1006737042E-01    0.2260443866E-02    0.2450986409E-01
    0.7000000000E+01    0.2489876489E-01    0.5115954401E-02    0.1379008073E-01    0.3122936410E-02    0.3357658458E-01
    0.9000000000E+01    0.3159688354E-01    0.6408205200E-02    0.1735564781E-01    0.3963095560E-02    0.4226245414E-01
    0.1100000000E+02    0.3812409405E-01    0.7633806641E-02    0.2077392526E-01    0.4781836667E-02    0.5059131495E-01
    0.1300000000E+02    0.4448730190E-01    0.8796880003E-02    0.2405395738E-01    0.5580024899E-02    0.5858505259E-01
    0.1500000000E+02    0.5069303895E-01    0.9901228735E-02    0.2720406065E-01    0.6358478622E-02    0.6626379289E-01
    0.1700000000E+02    0.5674748832E-01    0.1095036836E-01    0.3023189553E-01    0.7117972516E-02    0.7364607553E-01
    0.1900000000E+02    0.6265650730E-01    0.1194755305E-01    0.3314452999E-01    0.7859240438E-02    0.8074900751E-01
    0.2100000000E+02    0.6842564845E-01    0.1289579930E-01    0.3594849572E-01    0.8582978079E-02    0.8758839902E-01
    0.2300000000E+02    0.7406017920E-01    0.1379790702E-01    0.3864983812E-01    0.9289845403E-02    0.9417888424E-01
    0.2500000000E+02    0.7956509986E-01    0.1465647848E-01    0.4125416077E-01    0.9980468914E-02    0.1005340288E+00
    0.2700000000E+02    0.8494516034E-01    0.1547393521E-01    0.4376666511E-01    0.1065544374E-01    0.1066664258E+00
    0.2900000000E+02    0.9020487560E-01    0.1625253328E-01    0.4619218591E-01    0.1131533559E-01    0.1125877814E+00
    0.3100000000E+02    0.9534854006E-01    0.1699437693E-01    0.4853522307E-01    0.1196068254E-01    0.1183089917E+00
    0.3300000000E+02    0.1003802409E+00    0.1770143100E-01    0.5079997017E-01    0.1259199668E-01    0.1238402119E+00
    0.3500000000E+02    0.1053038704E+00    0.1837553208E-01    0.5299034009E-01    0.1320976571E-01    0.1291909182E+00
    0.3700000000E+02    0.1101231374E+00    0.1901839863E-01    0.5510998816E-01    0.1381445435E-01    0.1343699637E+00
    0.3900000000E+02    0.1148415782E+00    0.1963164012E-01    0.5716233308E-01    0.1440650569E-01    0.1393856287E+00
    0.4100000000E+02    0.1194625662E+00    0.2021676541E-01    0.5915057570E-01    0.1498634241E-01    0.1442456668E+00
    0.4300000000E+02    0.1239893217E+00    0.2077519029E-01    0.6107771621E-01    0.1555436801E-01    0.1489573460E+00
    0.4500000000E+02    0.1284249198E+00    0.2130824440E-01    0.6294656960E-01    0.1611096782E-01    0.1535274859E+00
    0.4700000000E+02    0.1327722992E+00    0.2181717753E-01    0.6475977977E-01    0.1665651006E-01    0.1579624923E+00
    0.4900000000E+02    0.1370342694E+00    0.2230316538E-01    0.6651983236E-01    0.1719134676E-01    0.1622683880E+00
    0.1000000000E+02    0.3488141166E-01    0.7029071686E-02    0.1908261450E-01    0.4375088161E-02    0.4647009936E-01
    0.3000000000E+02    0.9279095402E-01    0.1662792347E-01    0.4737374598E-01    0.1163979458E-01    0.1154727534E+00
    0.5000000000E+02    0.1391340704E+00    0.2253790328E-01    0.6738066093E-01    0.1745485635E-01    0.1643747036E+00
    0.7000000000E+02    0.1772412468E+00    0.2626500771E-01    0.8230714863E-01    0.2223758173E-01    0.2009361560E+00
    0.9000000000E+02    0.2092491788E+00    0.2862959181E-01    0.9388947264E-01    0.2625571530E-01    0.2293657991E+00
    0.1100000000E+03    0.2365944010E+00    0.3011061670E-01    0.1031510796E+00    0.2968927730E-01    0.2521462691E+00
    0.1300000000E+03    0.2602809150E+00    0.3100244051E-01    0.1107348166E+00    0.3266409256E-01    0.2708380838E+00
    0.1500000000E+03    0.2810336705E+00    0.3149324139E-01    0.1170650875E+00    0.3527101975E-01    0.2864722238E+00
    0.1700000000E+03    0.2993908223E+00    0.3170711772E-01    0.1224335532E+00    0.3757751047E-01    0.2997577074E+00
    0.1900000000E+03    0.3157614541E+00    0.3172797843E-01    0.1270473835E+00    0.3963484190E-01    0.3111985128E+00
    0.2100000000E+03    0.3304629694E+00    0.3161372026E-01    0.1310578651E+00    0.4148280190E-01    0.3211629305E+00
    0.2300000000E+03    0.3437460574E+00    0.3140495725E-01    0.1345781076E+00    0.4315281747E-01    0.3299265057E+00
    0.2500000000E+03    0.3558118149E+00    0.3113056484E-01    0.1376944097E+00    0.4467010020E-01    0.3376996154E+00
    0.2700000000E+03    0.3668237720E+00    0.3081129461E-01    0.1404737852E+00    0.4605515330E-01    0.3446457380E+00
    0.2900000000E+03    0.3769165199E+00    0.3046218513E-01    0.1429690850E+00    0.4732485275E-01    0.3508938905E+00
    0.3100000000E+03    0.3862020198E+00    0.3009420169E-01    0.1452225651E+00    0.4849323803E-01    0.3565472971E+00
    0.3300000000E+03    0.3947742983E+00    0.2971537076E-01    0.1472684259E+00    0.4957210049E-01    0.3616895605E+00
    0.3500000000E+03    0.4027129951E+00    0.2933157690E-01    0.1491346525E+00    0.5057142795E-01    0.3663891370E+00
    0.3700000000E+03    0.4100860826E+00    0.2894712997E-01    0.1508443717E+00    0.5149974564E-01    0.3707026372E+00
    0.3900000000E+03    0.4169519780E+00    0.2856517367E-01    0.1524168674E+00    0.5236438086E-01    0.3746772966E+00
    0.4100000000E+03    0.4233612027E+00    0.2818798287E-01    0.1538683505E+00    0.5317167099E-01    0.3783528507E+00
    0.4300000000E+03    0.4293577001E+00    0.2781718203E-01    0.1552125510E+00    0.5392712865E-01    0.3817629761E+00
    0.4500000000E+03    0.4349798928E+00    0.2745390700E-01    0.1564611772E+00    0.5463557421E-01    0.3849364102E+00
    0.4700000000E+03    0.4402615378E+00    0.2709892572E-01    0.1576242769E+00    0.5530124305E-01    0.3878978307E+00
    0.4900000000E+03    0.4452324251E+00    0.2675272883E-01    0.1587105227E+00    0.5592787307E-01    0.3906685528E+00
    0.1000000000E+03    0.2234339290E+00    0.2945898653E-01    0.9876368282E-01    0.2803670761E-01    0.2413488830E+00
    0.3000000000E+03    0.3816539251E+00    0.3027999280E-01    0.1441237506E+00    0.4792092581E-01    0.3537893112E+00
    0.5000000000E+03    0.4476097027E+00    0.2658301924E-01    0.1592272170E+00    0.5622759857E-01    0.3919882832E+00
    0.7000000000E+03    0.4838961297E+00    0.2365574647E-01    0.1669180643E+00    0.6080706163E-01    0.4117984051E+00
    0.9000000000E+03    0.5067607042E+00    0.2146656556E-01    0.1716192416E+00    0.6369860075E-01    0.4241182501E+00
    0.1100000000E+04    0.5224344398E+00    0.1978545152E-01    0.1748058017E+00    0.6568487578E-01    0.4326078133E+00
    0.1300000000E+04    0.5338220978E+00    0.1845196597E-01    0.1771149291E+00    0.6713100814E-01    0.4388584897E+00
    0.1500000000E+04    0.5424566566E+00    0.1736389752E-01    0.1788684314E+00    0.6822982582E-01    0.4436790683E+00
    0.1700000000E+04    0.5492214266E+00    0.1645515642E-01    0.1802469768E+00    0.6909251534E-01    0.4475263870E+00
    0.1900000000E+04    0.5546601670E+00    0.1568158514E-01    0.1813600901E+00    0.6978757021E-01    0.4506790364E+00
    0.2100000000E+04    0.5591254055E+00    0.1501266250E-01    0.1822781615E+00    0.7035942691E-01    0.4533171038E+00
    0.2300000000E+04    0.5628554354E+00    0.1442662755E-01    0.1830485598E+00    0.7083814359E-01    0.4555624681E+00
    0.2500000000E+04    0.5660169713E+00    0.1390753390E-01    0.1837043697E+00    0.7124476429E-01    0.4575007322E+00
    0.2700000000E+04    0.5687300651E+00    0.1344341248E-01    0.1842694207E+00    0.7159445349E-01    0.4591938913E+00
    0.2900000000E+04    0.5710833154E+00    0.1302508944E-01    0.1847613248E+00    0.7189841056E-01    0.4606880136E+00
    0.3100000000E+04    0.5731435064E+00    0.1264540312E-01    0.1851933888E+00    0.7216508335E-01    0.4620180919E+00
    0.3300000000E+04    0.5749619142E+00    0.1229867176E-01    0.1855758589E+00    0.7240096258E-01    0.4632112133E+00
    0.3500000000E+04    0.5765785501E+00    0.1198032280E-01    0.1859167568E+00    0.7261111661E-01    0.4642886944E+00
    0.3700000000E+04    0.5780250849E+00    0.1168662934E-01    0.1862224545E+00    0.7279956016E-01    0.4652675551E+00
    0.3900000000E+04    0.5793269098E+00    0.1141451906E-01    0.1864980796E+00    0.7296951421E-01    0.4661615610E+00
    0.4100000000E+04    0.5805046160E+00    0.1116143329E-01    0.1867478055E+00    0.7312359264E-01    0.4669819734E+00
    0.4300000000E+04    0.5815750750E+00    0.1092522145E-01    0.1869750650E+00    0.7326393873E-01    0.4677381006E+00
    0.4500000000E+04    0.5825522408E+00    0.1070406081E-01    0.1871827078E+00    0.7339232638E-01    0.4684377086E+00
    0.4700000000E+04    0.5834477530E+00    0.1049639475E-01    0.1873731198E+00    0.7351023633E-01    0.4690873312E+00
    0.4900000000E+04    0.5842713969E+00    0.1030088466E-01    0.1875483143E+00    0.7361891430E-01    0.4696925081E+00
    0.1000000000E+04    0.5152693466E+00    0.2057419821E-01    0.1733512960E+00    0.6477635851E-01    0.4287157777E+00
    0.3000000000E+04    0.5721465326E+00    0.1283080151E-01    0.1849841360E+00    0.7203596321E-01    0.4613717090E+00
    0.5000000000E+04    0.5846589080E+00    0.1020731991E-01    0.1876307497E+00    0.7367012755E-01    0.4699799350E+00
    0.7000000000E+04    0.5901082245E+00    0.8760421803E-02    0.1887863846E+00    0.7439751308E-01    0.4742482233E+00
    0.9000000000E+04    0.5931512658E+00    0.7807033020E-02    0.1894197240E+00    0.7481243427E-01    0.4768871448E+00
    0.1100000000E+05    0.5950909313E+00    0.7116598059E-02    0.1898101936E+00    0.7508248476E-01    0.4787185382E+00
    0.1300000000E+05    0.5964339046E+00    0.6586173743E-02    0.1900686626E+00    0.7527333473E-01    0.4800835989E+00
    0.1500000000E+05    0.5974180450E+00    0.6161806517E-02    0.1902478576E+00    0.7541604195E-01    0.4811516714E+00
    0.1700000000E+05    0.5981697234E+00    0.5812076313E-02    0.1903760135E+00    0.7552722798E-01    0.4820172363E+00
    0.1900000000E+05    0.5987622633E+00    0.5517259237E-02    0.1904695802E+00    0.7561660715E-01    0.4827375726E+00
    0.2100000000E+05    0.5992411196E+00    0.5264255514E-02    0.1905387667E+00    0.7569024493E-01    0.4833496360E+00
    0.2300000000E+05    0.5996359629E+00    0.5043973551E-02    0.1905902275E+00    0.7575212889E-01    0.4838784537E+00
    0.2500000000E+05    0.5999669799E+00    0.4849876643E-02    0.1906284747E+00    0.7580499125E-01    0.4843416455E+00
    0.2700000000E+05    0.6002483800E+00    0.4677126631E-02    0.1906566678E+00    0.7585076879E-01    0.4847520172E+00
    0.2900000000E+05    0.6004904535E+00    0.4522054538E-02    0.1906770794E+00    0.7589087397E-01    0.4851191262E+00
    0.3100000000E+05    0.6007008349E+00    0.4381820074E-02    0.1906913816E+00    0.7592636196E-01    0.4854502682E+00
    0.3300000000E+05    0.6008853066E+00    0.4254185126E-02    0.1907008291E+00    0.7595803754E-01    0.4857511208E+00
    0.3500000000E+05    0.6010483285E+00    0.4137358687E-02    0.1907063790E+00    0.7598652569E-01    0.4860261773E+00
    0.3700000000E+05    0.6011933948E+00    0.4029888012E-02    0.1907087727E+00    0.7601231941E-01    0.4862790461E+00
    0.3900000000E+05    0.6013232819E+00    0.3930580542E-02    0.1907085913E+00    0.7603581312E-01    0.4865126631E+00
    0.4100000000E+05    0.6014402237E+00    0.3838446800E-02    0.1907062961E+00    0.7605732629E-01    0.4867294445E+00
    0.4300000000E+05    0.6015460375E+00    0.3752657919E-02    0.1907022567E+00    0.7607712056E-01    0.4869313996E+00
    0.4500000000E+05    0.6016422165E+00    0.3672513547E-02    0.1906967721E+00    0.7609541242E-01    0.4871202150E+00
    0.4700000000E+05    0.6017299996E+00    0.3597417275E-02    0.1906900860E+00    0.7611238261E-01    0.4872973181E+00
    0.4900000000E+05    0.6018104224E+00    0.3526857577E-02    0.1906823986E+00    0.7612818325E-01    0.4874639266E+00
    0.1000000000E+05    0.5942179300E+00    0.7437031842E-02    0.1896363624E+00    0.7496025307E-01    0.4778765405E+00
    0.3000000000E+05    0.6005992081E+00    0.4450234507E-02    0.1906849076E+00    0.7590913990E-01    0.4852888062E+00
    0.5000000000E+05    0.6018481519E+00    0.3493138555E-02    0.1906782323E+00    0.7613568610E-01    0.4875436281E+00
    0.7000000000E+05    0.6023702794E+00    0.2975775146E-02    0.1905704452E+00    0.7624737839E-01    0.4887774157E+00
    0.9000000000E+05    0.6026529503E+00    0.2639142156E-02    0.1904489715E+00    0.7631740671E-01    0.4895987258E+00
    0.1100000000E+06    0.6028280936E+00    0.2397503333E-02    0.1903311180E+00    0.7636701346E-01    0.4902032508E+00
    0.1300000000E+06    0.6029460533E+00    0.2213089087E-02    0.1902207783E+00    0.7640483682E-01    0.4906763128E+00
    0.1500000000E+06    0.6030301350E+00    0.2066307511E-02    0.1901184028E+00    0.7643512145E-01    0.4910620722E+00
    0.1700000000E+06    0.6030925761E+00    0.1945843207E-02    0.1900234759E+00    0.7646022616E-01    0.4913860864E+00
    0.1900000000E+06    0.6031404033E+00    0.1844641146E-02    0.1899352486E+00    0.7648158072E-01    0.4916643620E+00
    0.2100000000E+06    0.6031779297E+00    0.1758042375E-02    0.1898529711E+00    0.7650010977E-01    0.4919075329E+00
    0.2300000000E+06    0.6032079448E+00    0.1682829178E-02    0.1897759642E+00    0.7651644201E-01    0.4921229941E+00
    0.2500000000E+06    0.6032323290E+00    0.1616697802E-02    0.1897036343E+00    0.7653102239E-01    0.4923160802E+00
    0.2700000000E+06    0.6032523941E+00    0.1557949387E-02    0.1896354697E+00    0.7654417626E-01    0.4924907558E+00
    0.2900000000E+06    0.6032690820E+00    0.1505299799E-02    0.1895710307E+00    0.7655614807E-01    0.4926500418E+00
    0.3100000000E+06    0.6032830851E+00    0.1457757820E-02    0.1895099396E+00    0.7656712575E-01    0.4927962891E+00
    0.3300000000E+06    0.6032949233E+00    0.1414544404E-02    0.1894518703E+00    0.7657725664E-01    0.4929313607E+00
    0.3500000000E+06    0.6033049943E+00    0.1375037593E-02    0.1893965409E+00    0.7658665822E-01    0.4930567559E+00
    0.3700000000E+06    0.6033136067E+00    0.1338733970E-02    0.1893437055E+00    0.7659542557E-01    0.4931736983E+00
    0.3900000000E+06    0.6033210037E+00    0.1305221078E-02    0.1892931498E+00    0.7660363665E-01    0.4932831982E+00
    0.4100000000E+06    0.6033273791E+00    0.1274157309E-02    0.1892446849E+00    0.7661135613E-01    0.4933860993E+00
    0.4300000000E+06    0.6033328893E+00    0.1245256967E-02    0.1891981446E+00    0.7661863820E-01    0.4934831127E+00
    0.4500000000E+06    0.6033376616E+00    0.1218279021E-02    0.1891533813E+00    0.7662552871E-01    0.4935748429E+00
    0.4700000000E+06    0.6033418007E+00    0.1193018500E-02    0.1891102636E+00    0.7663206675E-01    0.4936618080E+00
    0.4900000000E+06    0.6033453932E+00    0.1169299831E-02    0.1890686741E+00    0.7663828593E-01    0.4937444550E+00
    0.1000000000E+06    0.6027498640E+00    0.2509424325E-02    0.1903892152E+00    0.7634407065E-01    0.4899213556E+00
    0.3000000000E+06    0.6032763833E+00    0.1480943278E-02    0.1895400882E+00    0.7656175116E-01    0.4927246691E+00
    0.5000000000E+06    0.6033470077E+00    0.1157970559E-02    0.1890484192E+00    0.7664128519E-01    0.4937842825E+00
    0.7000000000E+06    0.6033631565E+00    0.9845672386E-03    0.1887028848E+00    0.7668990824E-01    0.4944263282E+00
    0.9000000000E+06    0.6033643650E+00    0.8721514601E-03    0.1884359017E+00    0.7672488502E-01    0.4948825562E+00
    0.1100000000E+07    0.6033602097E+00    0.7916480371E-03    0.1882180802E+00    0.7675218349E-01    0.4952345281E+00
    0.1300000000E+07    0.6033539272E+00    0.7303116235E-03    0.1880339809E+00    0.7677456284E-01    0.4955201052E+00
    0.1500000000E+07    0.6033468231E+00    0.6815530278E-03    0.1878744771E+00    0.7679352297E-01    0.4957598464E+00
    0.1700000000E+07    0.6033394808E+00    0.6415759653E-03    0.1877337194E+00    0.7680996915E-01    0.4959661193E+00
    0.1900000000E+07    0.6033321763E+00    0.6080179764E-03    0.1876077310E+00    0.7682448947E-01    0.4961469238E+00
    0.2100000000E+07    0.6033250420E+00    0.5793213234E-03    0.1874936837E+00    0.7683748740E-01    0.4963077227E+00
    0.2300000000E+07    0.6033181393E+00    0.5544114952E-03    0.1873894936E+00    0.7684925173E-01    0.4964524075E+00
    0.2500000000E+07    0.6033114931E+00    0.5325199919E-03    0.1872935806E+00    0.7685999624E-01    0.4965838451E+00
    0.2700000000E+07    0.6033051089E+00    0.5130806064E-03    0.1872047174E+00    0.7686988361E-01    0.4967042066E+00
    0.2900000000E+07    0.6032989821E+00    0.4956656873E-03    0.1871219319E+00    0.7687904045E-01    0.4968151748E+00
    0.3100000000E+07    0.6032931031E+00    0.4799453558E-03    0.1870444407E+00    0.7688756730E-01    0.4969180794E+00
    0.3300000000E+07    0.6032874594E+00    0.4656605016E-03    0.1869716031E+00    0.7689554527E-01    0.4970139892E+00
    0.3500000000E+07    0.6032820379E+00    0.4526043732E-03    0.1869028886E+00    0.7690304074E-01    0.4971037753E+00
    0.3700000000E+07    0.6032768253E+00    0.4406097051E-03    0.1868378527E+00    0.7691010876E-01    0.4971881572E+00
    0.3900000000E+07    0.6032718088E+00    0.4295395151E-03    0.1867761193E+00    0.7691679546E-01    0.4972677358E+00
    0.4100000000E+07    0.6032669760E+00    0.4192803948E-03    0.1867173674E+00    0.7692313990E-01    0.4973430179E+00
    0.4300000000E+07    0.6032623156E+00    0.4097375340E-03    0.1866613207E+00    0.7692917540E-01    0.4974144348E+00
    0.4500000000E+07    0.6032578167E+00    0.4008309707E-03    0.1866077398E+00    0.7693493068E-01    0.4974823564E+00
    0.4700000000E+07    0.6032534695E+00    0.3924927269E-03    0.1865564157E+00    0.7694043060E-01    0.4975471025E+00
    0.4900000000E+07    0.6032492648E+00    0.3846645921E-03    0.1865071651E+00    0.7694569687E-01    0.4976089513E+00
    0.1000000000E+07    0.6033626856E+00    0.8289159582E-03    0.1883220132E+00    0.7673927952E-01    0.4950686306E+00
    0.3000000000E+07    0.6032960124E+00    0.4876113026E-03    0.1870825674E+00    0.7688337717E-01    0.4968675630E+00
    0.5000000000E+07    0.6032472132E+00    0.3809258608E-03    0.1864832660E+00    0.7694824843E-01    0.4976388665E+00
    0.7000000000E+07    0.6032119287E+00    0.3237328620E-03    0.1860832260E+00    0.7699061912E-01    0.4981309100E+00
    0.9000000000E+07    0.6031844410E+00    0.2866856073E-03    0.1857822533E+00    0.7702214240E-01    0.4984915202E+00
    0.1100000000E+08    0.6031619533E+00    0.2601694623E-03    0.1855407989E+00    0.7704725699E-01    0.4987757339E+00
    0.1300000000E+08    0.6031429331E+00    0.2399742985E-03    0.1853391220E+00    0.7706813456E-01    0.4990100484E+00
    0.1500000000E+08    0.6031264560E+00    0.2239251176E-03    0.1851659291E+00    0.7708600115E-01    0.4992092405E+00
    0.1700000000E+08    0.6031119229E+00    0.2107694951E-03    0.1850141482E+00    0.7710161726E-01    0.4993823860E+00
    0.1900000000E+08    0.6030989236E+00    0.1997283635E-03    0.1848790549E+00    0.7711548727E-01    0.4995354547E+00
    0.2100000000E+08    0.6030871652E+00    0.1902882019E-03    0.1847573355E+00    0.7712796293E-01    0.4996725813E+00
    0.2300000000E+08    0.6030764316E+00    0.1820948885E-03    0.1846465756E+00    0.7713929933E-01    0.4997967463E+00
    0.2500000000E+08    0.6030665582E+00    0.1748952123E-03    0.1845449614E+00    0.7714968741E-01    0.4999101684E+00
    0.2700000000E+08    0.6030574173E+00    0.1685026533E-03    0.1844510955E+00    0.7715927375E-01    0.5000145436E+00
