  Pressure (Pa) 22mC5-400 (mol/kg) 2mC6-400 (mol/kg) 3mC6-400 (mol/kg) 23mC5-400 (mol/kg) C7-400 (mol/kg)
    0.1000000000E+01    0.3691075567E-02    0.4749234822E-02    0.2106951266E-02    0.1851755757E-03    0.1709478127E-02
    0.3000000000E+01    0.1085146659E-01    0.1382680595E-01    0.6181010335E-02    0.5444092303E-03    0.5015444421E-02
    0.5000000000E+01    0.1773381279E-01    0.2237964323E-01    0.1007939916E-01    0.8897035391E-03    0.8179462780E-02
    0.7000000000E+01    0.2435750081E-01    0.3044772656E-01    0.1381402279E-01    0.1222030280E-02    0.1121114074E-01
    0.9000000000E+01    0.3074010218E-01    0.3806718088E-01    0.1739571812E-01    0.1542270255E-02    0.1411922439E-01
    0.1100000000E+02    0.3689758145E-01    0.4527072423E-01    0.2083437168E-01    0.1851223722E-02    0.1691169334E-01
    0.1300000000E+02    0.4284447637E-01    0.5208805518E-01    0.2413902212E-01    0.2149619423E-02    0.1959584331E-01
    0.1500000000E+02    0.4859405442E-01    0.5854618901E-01    0.2731794970E-01    0.2438122430E-02    0.2217835831E-01
    0.1700000000E+02    0.5415844912E-01    0.6466975019E-01    0.3037875464E-01    0.2717340979E-02    0.2466537378E-01
    0.1900000000E+02    0.5954877921E-01    0.7048122785E-01    0.3332842596E-01    0.2987832440E-02    0.2706253211E-01
    0.2100000000E+02    0.6477525316E-01    0.7600119931E-01    0.3617340205E-01    0.3250108557E-02    0.2937503148E-01
    0.2300000000E+02    0.6984726092E-01    0.8124852639E-01    0.3891962418E-01    0.3504640047E-02    0.3160766904E-01
    0.2500000000E+02    0.7477345491E-01    0.8624052817E-01    0.4157258393E-01    0.3751860656E-02    0.3376487907E-01
    0.2700000000E+02    0.7956182150E-01    0.9099313345E-01    0.4413736516E-01    0.3992170745E-02    0.3585076693E-01
    0.2900000000E+02    0.8421974436E-01    0.9552101568E-01    0.4661868149E-01    0.4225940465E-02    0.3786913920E-01
    0.3100000000E+02    0.8875406069E-01    0.9983771248E-01    0.4902090955E-01    0.4453512573E-02    0.3982353055E-01
    0.3300000000E+02    0.9317111130E-01    0.1039557320E+00    0.5134811887E-01    0.4675204945E-02    0.4171722783E-01
    0.3500000000E+02    0.9747678527E-01    0.1078866475E+00    0.5360409851E-01    0.4891312813E-02    0.4355329153E-01
    0.3700000000E+02    0.1016765598E+00    0.1116411821E+00    0.5579238096E-01    0.5102110762E-02    0.4533457511E-01
    0.3900000000E+02    0.1057755361E+00    0.1152292838E+00    0.5791626375E-01    0.5307854526E-02    0.4706374235E-01
    0.4100000000E+02    0.1097784712E+00    0.1186601939E+00    0.5997882873E-01    0.5508782594E-02    0.4874328300E-01
    0.4300000000E+02    0.1136898071E+00    0.1219425071E+00    0.6198295965E-01    0.5705117656E-02    0.5037552687E-01
    0.4500000000E+02    0.1175136966E+00    0.1250842270E+00    0.6393135787E-01    0.5897067907E-02    0.5196265656E-01
    0.4700000000E+02    0.1212540266E+00    0.1280928143E+00    0.6582655676E-01    0.6084828218E-02    0.5350671906E-01
    0.4900000000E+02    0.1249144398E+00    0.1309752323E+00    0.6767093460E-01    0.6268581204E-02    0.5500963618E-01
    0.1000000000E+02    0.3384604196E-01    0.4171901866E-01    0.1913234144E-01    0.1698110677E-02    0.1552943959E-01
    0.3000000000E+02    0.8650194595E-01    0.9770495753E-01    0.4782942033E-01    0.4340480797E-02    0.3885412152E-01
    0.5000000000E+02    0.1267157537E+00    0.1323711776E+00    0.6857476939E-01    0.6359008905E-02    0.5574623392E-01
    0.7000000000E+02    0.1592736126E+00    0.1550380242E+00    0.8446058178E-01    0.7993637547E-02    0.6870375072E-01
    0.9000000000E+02    0.1866859314E+00    0.1703918679E+00    0.9713857717E-01    0.9370228064E-02    0.7906179233E-01
    0.1100000000E+03    0.2104071416E+00    0.1810246405E+00    0.1075752655E+00    0.1056170306E-01    0.8760206484E-01
    0.1300000000E+03    0.2313453461E+00    0.1884748627E+00    0.1163760961E+00    0.1161359494E-01    0.9481452831E-01
    0.1500000000E+03    0.2501018127E+00    0.1937068785E+00    0.1239409742E+00    0.1255605231E-01    0.1010229849E+00
    0.1700000000E+03    0.2670940209E+00    0.1973517904E+00    0.1305454825E+00    0.1341000882E-01    0.1064506936E+00
    0.1900000000E+03    0.2826234809E+00    0.1998372967E+00    0.1363862406E+00    0.1419058346E-01    0.1112570274E+00
    0.2100000000E+03    0.2969153009E+00    0.2014617014E+00    0.1416076537E+00    0.1490906429E-01    0.1155590969E+00
    0.2300000000E+03    0.3101423825E+00    0.2024381069E+00    0.1463184127E+00    0.1557412167E-01    0.1194450943E+00
    0.2500000000E+03    0.3224408157E+00    0.2029218533E+00    0.1506020671E+00    0.1619258015E-01    0.1229828463E+00
    0.2700000000E+03    0.3339200122E+00    0.2030281318E+00    0.1545240235E+00    0.1676992655E-01    0.1262254772E+00
    0.2900000000E+03    0.3446695741E+00    0.2028436202E+00    0.1581363097E+00    0.1731065438E-01    0.1292152655E+00
    0.3100000000E+03    0.3547640729E+00    0.2024343632E+00    0.1614808990E+00    0.1781850351E-01    0.1319863360E+00
    0.3300000000E+03    0.3642664521E+00    0.2018512285E+00    0.1645920802E+00    0.1829663072E-01    0.1345665791E+00
    0.3500000000E+03    0.3732304991E+00    0.2011337582E+00    0.1674981802E+00    0.1874773371E-01    0.1369790467E+00
    0.3700000000E+03    0.3817026772E+00    0.2003129336E+00    0.1702228380E+00    0.1917414291E-01    0.1392429845E+00
    0.3900000000E+03    0.3897235047E+00    0.1994131925E+00    0.1727859610E+00    0.1957789066E-01    0.1413746079E+00
    0.4100000000E+03    0.3973286109E+00    0.1984539201E+00    0.1752044534E+00    0.1996076417E-01    0.1433876920E+00
    0.4300000000E+03    0.4045495560E+00    0.1974505650E+00    0.1774927785E+00    0.2032434658E-01    0.1452940281E+00
    0.4500000000E+03    0.4114144764E+00    0.1964154844E+00    0.1796633968E+00    0.2067004940E-01    0.1471037793E+00
    0.4700000000E+03    0.4179485994E+00    0.1953585904E+00    0.1817271117E+00    0.2099913823E-01    0.1488257608E+00
    0.4900000000E+03    0.4241746579E+00    0.1942878486E+00    0.1836933455E+00    0.2131275359E-01    0.1504676642E+00
    0.1000000000E+03    0.1989419652E+00    0.1761847926E+00    0.1025931077E+00    0.9985797797E-02    0.8352356753E-01
    0.3000000000E+03    0.3497945326E+00    0.2026636014E+00    0.1598397661E+00    0.1756847946E-01    0.1306262697E+00
    0.5000000000E+03    0.4271786696E+00    0.1937493391E+00    0.1846425289E+00    0.2146408518E-01    0.1512607278E+00
    0.7000000000E+03    0.4751990957E+00    0.1832646046E+00    0.2000669000E+00    0.2388477630E-01    0.1641916470E+00
    0.9000000000E+03    0.5075055223E+00    0.1741732530E+00    0.2111242416E+00    0.2551555672E-01    0.1735167298E+00
    0.1100000000E+04    0.5304455711E+00    0.1665440871E+00    0.2196762523E+00    0.2667516311E-01    0.1807643558E+00
    0.1300000000E+04    0.5474180453E+00    0.1600966498E+00    0.2266101034E+00    0.2753435540E-01    0.1866653189E+00
    0.1500000000E+04    0.5603940721E+00    0.1545672934E+00    0.2324156992E+00    0.2819221727E-01    0.1916243564E+00
    0.1700000000E+04    0.5705844883E+00    0.1497538419E+00    0.2373914206E+00    0.2870964548E-01    0.1958886209E+00
    0.1900000000E+04    0.5787679235E+00    0.1455070659E+00    0.2417321723E+00    0.2912581928E-01    0.1996199340E+00
    0.2100000000E+04    0.5854644632E+00    0.1417166895E+00    0.2455721304E+00    0.2946692149E-01    0.2029299356E+00
    0.2300000000E+04    0.5910328781E+00    0.1383001337E+00    0.2490075149E+00    0.2975102277E-01    0.2058988431E+00
    0.2500000000E+04    0.5957276181E+00    0.1351945100E+00    0.2521096198E+00    0.2999094575E-01    0.2085862024E+00
    0.2700000000E+04    0.5997335480E+00    0.1323510915E+00    0.2549327025E+00    0.3019601107E-01    0.2110374078E+00
    0.2900000000E+04    0.6031878440E+00    0.1297314974E+00    0.2575189863E+00    0.3037313852E-01    0.2132878420E+00
    0.3100000000E+04    0.6061942118E+00    0.1273050325E+00    0.2599019552E+00    0.3052756214E-01    0.2153656072E+00
    0.3300000000E+04    0.6088323626E+00    0.1250468050E+00    0.2621085963E+00    0.3066330704E-01    0.2172933855E+00
    0.3500000000E+04    0.6111644789E+00    0.1229363737E+00    0.2641609680E+00    0.3078351485E-01    0.2190897418E+00
    0.3700000000E+04    0.6132397186E+00    0.1209567604E+00    0.2660773226E+00    0.3089067045E-01    0.2207700579E+00
    0.3900000000E+04    0.6150974127E+00    0.1190937178E+00    0.2678729279E+00    0.3098676306E-01    0.2223472168E+00
    0.4100000000E+04    0.6167693742E+00    0.1173351783E+00    0.2695606792E+00    0.3107340252E-01    0.2238321122E+00
    0.4300000000E+04    0.6182815919E+00    0.1156708341E+00    0.2711515622E+00    0.3115190464E-01    0.2252340357E+00
    0.4500000000E+04    0.6196554896E+00    0.1140918127E+00    0.2726550090E+00    0.3122335472E-01    0.2265609735E+00
    0.4700000000E+04    0.6209088758E+00    0.1125904238E+00    0.2740791750E+00    0.3128865540E-01    0.2278198385E+00
    0.4900000000E+04    0.6220566673E+00    0.1111599590E+00    0.2754311571E+00    0.3134856315E-01    0.2290166524E+00
    0.1000000000E+04    0.5198888861E+00    0.1701924144E+00    0.2156448160E+00    0.2614132371E-01    0.1773437684E+00
    0.3000000000E+04    0.6047415620E+00    0.1284957976E+00    0.2587340671E+00    0.3045291280E-01    0.2143467810E+00
    0.5000000000E+04    0.6225949760E+00    0.1104694551E+00    0.2760820509E+00    0.3137669819E-01    0.2295934648E+00
    0.7000000000E+04    0.6300379555E+00    0.9926958228E-01    0.2864795462E+00    0.3176906135E-01    0.2388669838E+00
    0.9000000000E+04    0.6340785128E+00    0.9130210193E-01    0.2936895677E+00    0.3198609409E-01    0.2453722154E+00
    0.1100000000E+05    0.6366049295E+00    0.8520647139E-01    0.2990999018E+00    0.3212435743E-01    0.2503014699E+00
    0.1300000000E+05    0.6383302423E+00    0.8032284906E-01    0.3033682737E+00    0.3222054651E-01    0.2542237130E+00
    0.1500000000E+05    0.6395817129E+00    0.7628265808E-01    0.3068549530E+00    0.3229161090E-01    0.2574524058E+00
    0.1700000000E+05    0.6405301600E+00    0.7285999667E-01    0.3097771209E+00    0.3234645435E-01    0.2601774755E+00
    0.1900000000E+05    0.6412732988E+00    0.6990693474E-01    0.3122749993E+00    0.3239020283E-01    0.2625221097E+00
    0.2100000000E+05    0.6418710036E+00    0.6732165134E-01    0.3144439320E+00    0.3242601737E-01    0.2645704211E+00
    0.2300000000E+05    0.6423619801E+00    0.6503127549E-01    0.3163514294E+00    0.3245595451E-01    0.2663821986E+00
    0.2500000000E+05    0.6427723471E+00    0.6298199083E-01    0.3180468813E+00    0.3248141088E-01    0.2680013413E+00
    0.2700000000E+05    0.6431203611E+00    0.6113301107E-01    0.3195674051E+00    0.3250336892E-01    0.2694609531E+00
    0.2900000000E+05    0.6434191636E+00    0.5945274656E-01    0.3209415321E+00    0.3252254032E-01    0.2707865617E+00
    0.3100000000E+05    0.6436784528E+00    0.5791627399E-01    0.3221916185E+00    0.3253945363E-01    0.2719982314E+00
    0.3300000000E+05    0.6439055408E+00    0.5650361344E-01    0.3233354742E+00    0.3255450986E-01    0.2731119928E+00
    0.3500000000E+05    0.6441060438E+00    0.5519852375E-01    0.3243874931E+00    0.3256801895E-01    0.2741408381E+00
    0.3700000000E+05    0.6442843463E+00    0.5398764049E-01    0.3253594568E+00    0.3258022440E-01    0.2750954303E+00
    0.3900000000E+05    0.6444439209E+00    0.5285984648E-01    0.3262611175E+00    0.3259132027E-01    0.2759846184E+00
    0.4100000000E+05    0.6445875532E+00    0.5180580401E-01    0.3271006287E+00    0.3260146317E-01    0.2768158193E+00
    0.4300000000E+05    0.6447175036E+00    0.5081760139E-01    0.3278848690E+00    0.3261078100E-01    0.2775953055E+00
    0.4500000000E+05    0.6448356255E+00    0.4988848235E-01    0.3286196887E+00    0.3261937925E-01    0.2783284240E+00
    0.4700000000E+05    0.6449434524E+00    0.4901263586E-01    0.3293101007E+00    0.3262734576E-01    0.2790197671E+00
    0.4900000000E+05    0.6450422646E+00    0.4818503129E-01    0.3299604287E+00    0.3263475431E-01    0.2796733043E+00
    0.1000000000E+05    0.6354727893E+00    0.8807112268E-01    0.2965687386E+00    0.3206208173E-01    0.2479898359E+00
    0.3000000000E+05    0.6435532439E+00    0.5866788476E-01    0.3215808759E+00    0.3253125169E-01    0.2714055558E+00
    0.5000000000E+05    0.6450886335E+00    0.4778792826E-01    0.3302717536E+00    0.3263826923E-01    0.2799869926E+00
    0.7000000000E+05    0.6457321787E+00    0.4156151046E-01    0.3350896425E+00    0.3269037778E-01    0.2849186399E+00
    0.9000000000E+05    0.6460839449E+00    0.3737079415E-01    0.3382596049E+00    0.3272285912E-01    0.2882592863E+00
    0.1100000000E+06    0.6463046983E+00    0.3429189265E-01    0.3405465708E+00    0.3274579295E-01    0.2907305762E+00
    0.1300000000E+06    0.6464555789E+00    0.3190107348E-01    0.3422951412E+00    0.3276324338E-01    0.2926627538E+00
    0.1500000000E+06    0.6465648782E+00    0.2997210769E-01    0.3436867730E+00    0.3277719661E-01    0.2942320893E+00
    0.1700000000E+06    0.6466474699E+00    0.2837141323E-01    0.3448274010E+00    0.3278875225E-01    0.2955427425E+00
    0.1900000000E+06    0.6467119133E+00    0.2701421251E-01    0.3457836057E+00    0.3279857495E-01    0.2966609045E+00
    0.2100000000E+06    0.6467634777E+00    0.2584369311E-01    0.3465996246E+00    0.3280709365E-01    0.2976310056E+00
    0.2300000000E+06    0.6468055827E+00    0.2482012701E-01    0.3473061559E+00    0.3281459948E-01    0.2984841727E+00
    0.2500000000E+06    0.6468405422E+00    0.2391476444E-01    0.3479252599E+00    0.3282129826E-01    0.2992429760E+00
    0.2700000000E+06    0.6468699774E+00    0.2310620507E-01    0.3484732523E+00    0.3282734027E-01    0.2999242507E+00
    0.2900000000E+06    0.6468950570E+00    0.2237813840E-01    0.3489624938E+00    0.3283283835E-01    0.3005408550E+00
    0.3100000000E+06    0.6469166444E+00    0.2171788088E-01    0.3494025429E+00    0.3283787918E-01    0.3011028092E+00
    0.3300000000E+06    0.6469353911E+00    0.2111539732E-01    0.3498009223E+00    0.3284253066E-01    0.3016180584E+00
    0.3500000000E+06    0.6469517975E+00    0.2056262747E-01    0.3501636441E+00    0.3284684691E-01    0.3020929978E+00
    0.3700000000E+06    0.6469662543E+00    0.2005301117E-01    0.3504955780E+00    0.3285087172E-01    0.3025328432E+00
    0.3900000000E+06    0.6469790710E+00    0.1958114634E-01    0.3508007160E+00    0.3285464097E-01    0.3029418991E+00
    0.4100000000E+06    0.6469904954E+00    0.1914253778E-01    0.3510823654E+00    0.3285818440E-01    0.3033237548E+00
    0.4300000000E+06    0.6470007287E+00    0.1873340983E-01    0.3513432925E+00    0.3286152695E-01    0.3036814312E+00
    0.4500000000E+06    0.6470099355E+00    0.1835056416E-01    0.3515858311E+00    0.3286468970E-01    0.3040174927E+00
    0.4700000000E+06    0.6470182520E+00    0.1799127074E-01    0.3518119654E+00    0.3286769061E-01    0.3043341325E+00
    0.4900000000E+06    0.6470257917E+00    0.1765318286E-01    0.3520233947E+00    0.3287054513E-01    0.3046332399E+00
    0.1000000000E+06    0.6462057186E+00    0.3572545483E-01    0.3394864402E+00    0.3273519329E-01    0.2895778069E+00
    0.3000000000E+06    0.6469062424E+00    0.2204021370E-01    0.3491881566E+00    0.3283541130E-01    0.3008281252E+00
    0.5000000000E+06    0.6470293007E+00    0.1749144575E-01    0.3521240607E+00    0.3287192175E-01    0.3047767392E+00
    0.7000000000E+06    0.6470754117E+00    0.1499560352E-01    0.3536337006E+00    0.3289423932E-01    0.3070293682E+00
    0.9000000000E+06    0.6470974185E+00    0.1335677160E-01    0.3545720751E+00    0.3291029522E-01    0.3085558948E+00
    0.1100000000E+07    0.6471091411E+00    0.1217284440E-01    0.3552173117E+00    0.3292282831E-01    0.3096887720E+00
    0.1300000000E+07    0.6471156816E+00    0.1126489520E-01    0.3556899211E+00    0.3293310448E-01    0.3105783843E+00
    0.1500000000E+07    0.6471193246E+00    0.1053942885E-01    0.3560514348E+00    0.3294181178E-01    0.3113044644E+00
    0.1700000000E+07    0.6471212288E+00    0.9942137600E-02    0.3563368559E+00    0.3294936547E-01    0.3119139395E+00
    0.1900000000E+07    0.6471220365E+00    0.9439003541E-02    0.3565676919E+00    0.3295603533E-01    0.3124365621E+00
    0.2100000000E+07    0.6471221271E+00    0.9007474642E-02    0.3567579459E+00    0.3296200648E-01    0.3128922786E+00
    0.2300000000E+07    0.6471217366E+00    0.8631923386E-02    0.3569171569E+00    0.3296741140E-01    0.3132950568E+00
    0.2500000000E+07    0.6471210178E+00    0.8301128656E-02    0.3570520634E+00    0.3297234818E-01    0.3136550255E+00
    0.2700000000E+07    0.6471200725E+00    0.8006794495E-02    0.3571675699E+00    0.3297689146E-01    0.3139797432E+00
    0.2900000000E+07    0.6471189704E+00    0.7742635877E-02    0.3572673362E+00    0.3298109935E-01    0.3142749873E+00
    0.3100000000E+07    0.6471177603E+00    0.7503791440E-02    0.3573541520E+00    0.3298501799E-01    0.3145452646E+00
    0.3300000000E+07    0.6471164771E+00    0.7286433319E-02    0.3574301827E+00    0.3298868459E-01    0.3147941522E+00
    0.3500000000E+07    0.6471151458E+00    0.7087500315E-02    0.3574971361E+00    0.3299212963E-01    0.3150245335E+00
    0.3700000000E+07    0.6471137847E+00    0.6904510802E-02    0.3575563783E+00    0.3299537838E-01    0.3152387632E+00
    0.3900000000E+07    0.6471124072E+00    0.6735428630E-02    0.3576090149E+00    0.3299845201E-01    0.3154387873E+00
    0.4100000000E+07    0.6471110233E+00    0.6578565142E-02    0.3576559512E+00    0.3300136844E-01    0.3156262310E+00
    0.4300000000E+07    0.6471096405E+00    0.6432506330E-02    0.3576979357E+00    0.3300414298E-01    0.3158024642E+00
    0.4500000000E+07    0.6471082642E+00    0.6296057854E-02    0.3577355923E+00    0.3300678881E-01    0.3159686516E+00
    0.4700000000E+07    0.6471068986E+00    0.6168202948E-02    0.3577694460E+00    0.3300931734E-01    0.3161257909E+00
    0.4900000000E+07    0.6471055466E+00    0.6048069802E-02    0.3577999412E+00    0.3301173854E-01    0.3162747431E+00
    0.1000000000E+07    0.6471041464E+00    0.1272201088E-01    0.3549217988E+00    0.3291690369E-01    0.3091597670E+00
    0.3000000000E+07    0.6471183764E+00    0.7620309251E-02    0.3573122152E+00    0.3298309232E-01    0.3144130046E+00
    0.5000000000E+07    0.6471048765E+00    0.5990659674E-02    0.3578140499E+00    0.3301291167E-01    0.3163463863E+00
    0.7000000000E+07    0.6470924735E+00    0.5109623764E-02    0.3579879961E+00    0.3303239536E-01    0.3174881845E+00
    0.9000000000E+07    0.6470819529E+00    0.4536042490E-02    0.3580494177E+00    0.3304689451E-01    0.3182832019E+00
    0.1100000000E+08    0.6470729586E+00    0.4124067911E-02    0.3580612328E+00    0.3305844807E-01    0.3188865201E+00
    0.1300000000E+08    0.6470651432E+00    0.3809471310E-02    0.3580481641E+00    0.3306805383E-01    0.3193693594E+00
    0.1500000000E+08    0.6470582479E+00    0.3558935846E-02    0.3580216853E+00    0.3307627523E-01    0.3197699946E+00
    0.1700000000E+08    0.6470520856E+00    0.3353216335E-02    0.3579877221E+00    0.3308346178E-01    0.3201112295E+00
    0.1900000000E+08    0.6470465184E+00    0.3180310959E-02    0.3579495683E+00    0.3308984533E-01    0.3204076838E+00
    0.2100000000E+08    0.6470414433E+00    0.3032292029E-02    0.3579091526E+00    0.3309558759E-01    0.3206692599E+00
    0.2300000000E+08    0.6470367814E+00    0.2903682806E-02    0.3578676479E+00    0.3310080585E-01    0.3209029578E+00
    0.2500000000E+08    0.6470324710E+00    0.2790561104E-02    0.3578257855E+00    0.3310558789E-01    0.3211138987E+00
    0.2700000000E+08    0.6470284632E+00    0.2690033804E-02    0.3577840291E+00    0.3311000112E-01    0.3213059360E+00
