  Pressure (Pa) 22mC5-400 (mol/kg) 2mC6-400 (mol/kg) 3mC6-400 (mol/kg) 23mC5-400 (mol/kg) C7-400 (mol/kg)
    0.1000000000E+01    0.3704216164E-02    0.7888035350E-03    0.1047011750E-02    0.3716690701E-03    0.1019429450E-01
    0.3000000000E+01    0.1096451028E-01    0.2281241591E-02    0.3035398788E-02    0.1100156173E-02    0.2955916637E-01
    0.5000000000E+01    0.1803421672E-01    0.3668950128E-02    0.4894458757E-02    0.1809536461E-02    0.4767056280E-01
    0.7000000000E+01    0.2492124289E-01    0.4961392312E-02    0.6636482115E-02    0.2500602476E-02    0.6464741594E-01
    0.9000000000E+01    0.3163305821E-01    0.6166913649E-02    0.8272247498E-02    0.3174102869E-02    0.8059404010E-01
    0.1100000000E+02    0.3817672398E-01    0.7292905503E-02    0.9811247322E-02    0.3830745388E-02    0.9560231202E-01
    0.1300000000E+02    0.4455892069E-01    0.8345940385E-02    0.1126187416E-01    0.4471199620E-02    0.1097534722E+00
    0.1500000000E+02    0.5078597331E-01    0.9331884548E-02    0.1263157561E-01    0.5096099523E-02    0.1231196218E+00
    0.1700000000E+02    0.5686387455E-01    0.1025599227E-01    0.1392698373E-01    0.5706045754E-02    0.1357649740E+00
    0.1900000000E+02    0.6279830634E-01    0.1112298518E-01    0.1515402375E-01    0.6301607825E-02    0.1477469044E+00
    0.2100000000E+02    0.6859465968E-01    0.1193711943E-01    0.1631800585E-01    0.6883326093E-02    0.1591168390E+00
    0.2300000000E+02    0.7425805297E-01    0.1270224274E-01    0.1742370299E-01    0.7451713594E-02    0.1699210061E+00
    0.2500000000E+02    0.7979334905E-01    0.1342184316E-01    0.1847541720E-01    0.8007257750E-02    0.1802010777E+00
    0.2700000000E+02    0.8520517090E-01    0.1409909086E-01    0.1947703636E-01    0.8550421947E-02    0.1899947179E+00
    0.2900000000E+02    0.9049791627E-01    0.1473687421E-01    0.2043208283E-01    0.9081646996E-02    0.1993360542E+00
    0.3100000000E+02    0.9567577122E-01    0.1533783084E-01    0.2134375551E-01    0.9601352493E-02    0.2082560831E+00
    0.3300000000E+02    0.1007427227E+00    0.1590437477E-01    0.2221496614E-01    0.1010993808E-01    0.2167830220E+00
    0.3500000000E+02    0.1057025705E+00    0.1643871988E-01    0.2304837086E-01    0.1060778463E-01    0.2249426142E+00
    0.3700000000E+02    0.1105589375E+00    0.1694290054E-01    0.2384639766E-01    0.1109525531E-01    0.2327583943E+00
    0.3900000000E+02    0.1153152806E+00    0.1741878965E-01    0.2461127040E-01    0.1157269662E-01    0.2402519208E+00
    0.4100000000E+02    0.1199748998E+00    0.1786811454E-01    0.2534502985E-01    0.1204043937E-01    0.2474429792E+00
    0.4300000000E+02    0.1245409470E+00    0.1829247094E-01    0.2604955216E-01    0.1249879949E-01    0.2543497614E+00
    0.4500000000E+02    0.1290164343E+00    0.1869333539E-01    0.2672656515E-01    0.1294807892E-01    0.2609890225E+00
    0.4700000000E+02    0.1334042418E+00    0.1907207625E-01    0.2737766270E-01    0.1338856637E-01    0.2673762210E+00
    0.4900000000E+02    0.1377071245E+00    0.1942996346E-01    0.2800431751E-01    0.1382053802E-01    0.2735256411E+00
    0.1000000000E+02    0.3492548364E-01    0.6739422206E-02    0.9053294744E-02    0.3504488650E-02    0.8821016214E-01
    0.3000000000E+02    0.9310095133E-01    0.1504180004E-01    0.2089315257E-01    0.9342914257E-02    0.2038469071E+00
    0.5000000000E+02    0.1398275476E+00    0.1960145907E-01    0.2830890877E-01    0.1403341346E-01    0.2765153545E+00
    0.7000000000E+02    0.1783621646E+00    0.2218300110E-01    0.3339970975E-01    0.1790245571E-01    0.3265646149E+00
    0.9000000000E+02    0.2108068535E+00    0.2362183838E-01    0.3711616314E-01    0.2116076323E-01    0.3632205399E+00
    0.1100000000E+03    0.2385815755E+00    0.2436365894E-01    0.3995179324E-01    0.2395069025E-01    0.3912783483E+00
    0.1300000000E+03    0.2626825383E+00    0.2466551941E-01    0.4218851792E-01    0.2637211470E-01    0.4134803197E+00
    0.1500000000E+03    0.2838313037E+00    0.2468394263E-01    0.4399920569E-01    0.2849738334E-01    0.4315098653E+00
    0.1700000000E+03    0.3025648935E+00    0.2451805710E-01    0.4549582435E-01    0.3038034341E-01    0.4464585490E+00
    0.1900000000E+03    0.3192924181E+00    0.2423250174E-01    0.4675413087E-01    0.3206201888E-01    0.4590657334E+00
    0.2100000000E+03    0.3343318939E+00    0.2387035516E-01    0.4782724060E-01    0.3357430117E-01    0.4698503752E+00
    0.2300000000E+03    0.3479349038E+00    0.2346079144E-01    0.4875351434E-01    0.3494242114E-01    0.4791876823E+00
    0.2500000000E+03    0.3603035550E+00    0.2302379047E-01    0.4956135956E-01    0.3618664906E-01    0.4873558111E+00
    0.2700000000E+03    0.3716024146E+00    0.2257312812E-01    0.5027226919E-01    0.3732349125E-01    0.4945654402E+00
    0.2900000000E+03    0.3819670910E+00    0.2211832443E-01    0.5090280970E-01    0.3836655027E-01    0.5009791329E+00
    0.3100000000E+03    0.3915105185E+00    0.2166594085E-01    0.5146595958E-01    0.3932715506E-01    0.5067243807E+00
    0.3300000000E+03    0.4003276412E+00    0.2122046017E-01    0.5197203327E-01    0.4021483051E-01    0.5119026135E+00
    0.3500000000E+03    0.4084989564E+00    0.2078489277E-01    0.5242933316E-01    0.4103765273E-01    0.5165955618E+00
    0.3700000000E+03    0.4160932344E+00    0.2036120001E-01    0.5284461871E-01    0.4180252180E-01    0.5208698378E+00
    0.3900000000E+03    0.4231696327E+00    0.1995059334E-01    0.5322344994E-01    0.4251537364E-01    0.5247802910E+00
    0.4100000000E+03    0.4297793580E+00    0.1955374755E-01    0.5357044292E-01    0.4318134679E-01    0.5283725069E+00
    0.4300000000E+03    0.4359669883E+00    0.1917095416E-01    0.5388946250E-01    0.4380491487E-01    0.5316846923E+00
    0.4500000000E+03    0.4417715330E+00    0.1880223241E-01    0.5418376959E-01    0.4438999296E-01    0.5347491171E+00
    0.4700000000E+03    0.4472272924E+00    0.1844741004E-01    0.5445613506E-01    0.4494002376E-01    0.5375932301E+00
    0.4900000000E+03    0.4523645595E+00    0.1810618226E-01    0.5470892867E-01    0.4545804796E-01    0.5402405312E+00
    0.1000000000E+03    0.2252078873E+00    0.2406073434E-01    0.3862308836E-01    0.2260724904E-01    0.3781200766E+00
    0.3000000000E+03    0.3868351514E+00    0.2189150941E-01    0.5119211009E-01    0.3885652649E-01    0.5039284472E+00
    0.5000000000E+03    0.4548222735E+00    0.1794054572E-01    0.5482863451E-01    0.4570591234E-01    0.5414968139E+00
    0.7000000000E+03    0.4924077233E+00    0.1522755926E-01    0.5656695234E-01    0.4950010004E-01    0.5599869475E+00
    0.9000000000E+03    0.5161611725E+00    0.1335102341E-01    0.5758499727E-01    0.5190279594E-01    0.5711249435E+00
    0.1100000000E+04    0.5324760505E+00    0.1199001177E-01    0.5825206782E-01    0.5355640961E-01    0.5786272464E+00
    0.1300000000E+04    0.5443456509E+00    0.1095851151E-01    0.5872163192E-01    0.5476191758E-01    0.5840541657E+00
    0.1500000000E+04    0.5533545682E+00    0.1014794954E-01    0.5906903621E-01    0.5567876139E-01    0.5881793474E+00
    0.1700000000E+04    0.5604179450E+00    0.9492125069E-02    0.5933564222E-01    0.5639908555E-01    0.5914315919E+00
    0.1900000000E+04    0.5661001145E+00    0.8948781635E-02    0.5954605774E-01    0.5697975083E-01    0.5940684334E+00
    0.2100000000E+04    0.5707674355E+00    0.8489807111E-02    0.5971584265E-01    0.5745769580E-01    0.5962542382E+00
    0.2300000000E+04    0.5746678151E+00    0.8095812825E-02    0.5985531756E-01    0.5785793308E-01    0.5980990363E+00
    0.2500000000E+04    0.5779748435E+00    0.7753003673E-02    0.5997159714E-01    0.5819798901E-01    0.5996793729E+00
    0.2700000000E+04    0.5808136115E+00    0.7451296527E-02    0.6006974436E-01    0.5849050194E-01    0.6010502145E+00
    0.2900000000E+04    0.5832764912E+00    0.7183147036E-02    0.6015345953E-01    0.5874481093E-01    0.6022520960E+00
    0.3100000000E+04    0.5854331455E+00    0.6942793886E-02    0.6022550911E-01    0.5896796391E-01    0.6033155943E+00
    0.3300000000E+04    0.5873370835E+00    0.6725757693E-02    0.6028800220E-01    0.5916537825E-01    0.6042642286E+00
    0.3500000000E+04    0.5890300736E+00    0.6528500042E-02    0.6034257438E-01    0.5934128560E-01    0.6051163995E+00
    0.3700000000E+04    0.5905451886E+00    0.6348186101E-02    0.6039051308E-01    0.5949903890E-01    0.6058867195E+00
    0.3900000000E+04    0.5919089508E+00    0.6182515884E-02    0.6043284523E-01    0.5964132893E-01    0.6065869468E+00
    0.4100000000E+04    0.5931428737E+00    0.6029602088E-02    0.6047039971E-01    0.5977033977E-01    0.6072266552E+00
    0.4300000000E+04    0.5942645888E+00    0.5887880122E-02    0.6050385265E-01    0.5988786266E-01    0.6078137232E+00
    0.4500000000E+04    0.5952886811E+00    0.5756040859E-02    0.6053376088E-01    0.5999538038E-01    0.6083546955E+00
    0.4700000000E+04    0.5962273192E+00    0.5632979642E-02    0.6056058700E-01    0.6009413088E-01    0.6088550570E+00
    0.4900000000E+04    0.5970907343E+00    0.5517757144E-02    0.6058471834E-01    0.6018515576E-01    0.6093194403E+00
    0.1000000000E+04    0.5250146603E+00    0.1262009065E-01    0.5795012525E-01    0.5279973671E-01    0.5752060489E+00
    0.3000000000E+04    0.5843894335E+00    0.7059801315E-02    0.6019079780E-01    0.5885991115E-01    0.6027995341E+00
    0.5000000000E+04    0.5974969937E+00    0.5462829461E-02    0.6059587761E-01    0.6022805229E-01    0.6095393952E+00
    0.7000000000E+04    0.6032128581E+00    0.4629907139E-02    0.6073522848E-01    0.6083746662E-01    0.6127561973E+00
    0.9000000000E+04    0.6064078552E+00    0.4096279424E-02    0.6079079682E-01    0.6118523527E-01    0.6146924316E+00
    0.1100000000E+05    0.6084461527E+00    0.3716311663E-02    0.6081127143E-01    0.6141164712E-01    0.6160082461E+00
    0.1300000000E+05    0.6098585769E+00    0.3427687266E-02    0.6081469317E-01    0.6157169558E-01    0.6169721070E+00
    0.1500000000E+05    0.6108944337E+00    0.3198640062E-02    0.6080908093E-01    0.6169139591E-01    0.6177151189E+00
    0.1700000000E+05    0.6116862267E+00    0.3011029784E-02    0.6079844075E-01    0.6178467380E-01    0.6183094471E+00
    0.1900000000E+05    0.6123108651E+00    0.2853633659E-02    0.6078494203E-01    0.6185966935E-01    0.6187983367E+00
    0.2100000000E+05    0.6128160420E+00    0.2719081533E-02    0.6076982961E-01    0.6192146585E-01    0.6192094043E+00
    0.2300000000E+05    0.6132328990E+00    0.2602304057E-02    0.6075384854E-01    0.6197340556E-01    0.6195611813E+00
    0.2500000000E+05    0.6135826303E+00    0.2499683065E-02    0.6073745850E-01    0.6201777882E-01    0.6198666057E+00
    0.2700000000E+05    0.6138801584E+00    0.2408556843E-02    0.6072094902E-01    0.6205620937E-01    0.6201350090E+00
    0.2900000000E+05    0.6141362935E+00    0.2326917280E-02    0.6070450460E-01    0.6208988145E-01    0.6203733064E+00
    0.3100000000E+05    0.6143590580E+00    0.2253216677E-02    0.6068824306E-01    0.6211967986E-01    0.6205867418E+00
    0.3300000000E+05    0.6145545300E+00    0.2186240128E-02    0.6067223905E-01    0.6214627950E-01    0.6207793712E+00
    0.3500000000E+05    0.6147273985E+00    0.2125018684E-02    0.6065653864E-01    0.6217020448E-01    0.6209543856E+00
    0.3700000000E+05    0.6148813383E+00    0.2068768725E-02    0.6064116885E-01    0.6219186833E-01    0.6211143338E+00
    0.3900000000E+05    0.6150192702E+00    0.2016848671E-02    0.6062614382E-01    0.6221160187E-01    0.6212612788E+00
    0.4100000000E+05    0.6151435448E+00    0.1968727457E-02    0.6061146898E-01    0.6222967310E-01    0.6213969099E+00
    0.4300000000E+05    0.6152560747E+00    0.1923961165E-02    0.6059714385E-01    0.6224630152E-01    0.6215226255E+00
    0.4500000000E+05    0.6153584324E+00    0.1882175436E-02    0.6058316399E-01    0.6226166874E-01    0.6216395939E+00
    0.4700000000E+05    0.6154519222E+00    0.1843052030E-02    0.6056952230E-01    0.6227592642E-01    0.6217488000E+00
    0.4900000000E+05    0.6155376351E+00    0.1806318441E-02    0.6055621000E-01    0.6228920221E-01    0.6218510800E+00
    0.1000000000E+05    0.6075285485E+00    0.3892025887E-02    0.6080393804E-01    0.6130916003E-01    0.6154063553E+00
    0.3000000000E+05    0.6142514292E+00    0.2289157167E-02    0.6069634549E-01    0.6210521857E-01    0.6204828549E+00
    0.5000000000E+05    0.6155778684E+00    0.1788773138E-02    0.6054967433E-01    0.6229550638E-01    0.6218998506E+00
    0.7000000000E+05    0.6161365374E+00    0.1520265792E-02    0.6043372313E-01    0.6238937307E-01    0.6226412562E+00
    0.9000000000E+05    0.6164412542E+00    0.1346224040E-02    0.6033963962E-01    0.6244824244E-01    0.6231198587E+00
    0.1100000000E+06    0.6166315008E+00    0.1221601960E-02    0.6026077607E-01    0.6248995133E-01    0.6234640180E+00
    0.1300000000E+06    0.6167606435E+00    0.1126659947E-02    0.6019296369E-01    0.6252175581E-01    0.6237283528E+00
    0.1500000000E+06    0.6168534500E+00    0.1051193964E-02    0.6013350431E-01    0.6254722239E-01    0.6239405905E+00
    0.1700000000E+06    0.6169229586E+00    0.9893252851E-03    0.6008056953E-01    0.6256833350E-01    0.6241165212E+00
    0.1900000000E+06    0.6169766740E+00    0.9373955800E-03    0.6003286836E-01    0.6258629100E-01    0.6242658985E+00
    0.2100000000E+06    0.6170192148E+00    0.8929926663E-03    0.5998945709E-01    0.6260187222E-01    0.6243951238E+00
    0.2300000000E+06    0.6170535751E+00    0.8544526583E-03    0.5994962568E-01    0.6261560581E-01    0.6245086015E+00
    0.2500000000E+06    0.6170817786E+00    0.8205855430E-03    0.5991282673E-01    0.6262786591E-01    0.6246094777E+00
    0.2700000000E+06    0.6171052406E+00    0.7905145667E-03    0.5987862949E-01    0.6263892614E-01    0.6247000703E+00
    0.2900000000E+06    0.6171249797E+00    0.7635775369E-03    0.5984668892E-01    0.6264899208E-01    0.6247821314E+00
    0.3100000000E+06    0.6171417468E+00    0.7392636657E-03    0.5981672443E-01    0.6265822180E-01    0.6248570144E+00
    0.3300000000E+06    0.6171561073E+00    0.7171717535E-03    0.5978850475E-01    0.6266673923E-01    0.6249257841E+00
    0.3500000000E+06    0.6171684944E+00    0.6969816799E-03    0.5976183700E-01    0.6267464318E-01    0.6249892925E+00
    0.3700000000E+06    0.6171792456E+00    0.6784344686E-03    0.5973655869E-01    0.6268201364E-01    0.6250482304E+00
    0.3900000000E+06    0.6171886274E+00    0.6613180369E-03    0.5971253159E-01    0.6268891620E-01    0.6251031652E+00
    0.4100000000E+06    0.6171968527E+00    0.6454568059E-03    0.5968963717E-01    0.6269540523E-01    0.6251545681E+00
    0.4300000000E+06    0.6172040938E+00    0.6307039944E-03    0.5966777301E-01    0.6270152635E-01    0.6252028343E+00
    0.4500000000E+06    0.6172104915E+00    0.6169358128E-03    0.5964685000E-01    0.6270731810E-01    0.6252482984E+00
    0.4700000000E+06    0.6172161617E+00    0.6040470274E-03    0.5962679015E-01    0.6271281338E-01    0.6252912455E+00
    0.4900000000E+06    0.6172212007E+00    0.5919475278E-03    0.5960752478E-01    0.6271804047E-01    0.6253319208E+00
    0.1000000000E+06    0.6165463442E+00    0.1279292515E-02    0.6029861003E-01    0.6247066061E-01    0.6233044103E+00
    0.3000000000E+06    0.6171336958E+00    0.7511199649E-03    0.5983147513E-01    0.6265370305E-01    0.6248203979E+00
    0.5000000000E+06    0.6172235093E+00    0.5861690628E-03    0.5959817075E-01    0.6272056122E-01    0.6253514740E+00
    0.7000000000E+06    0.6172506107E+00    0.4977983944E-03    0.5944113898E-01    0.6276142011E-01    0.6256624239E+00
    0.9000000000E+06    0.6172593709E+00    0.4405849647E-03    0.5932253578E-01    0.6279080338E-01    0.6258786518E+00
    0.1100000000E+07    0.6172609383E+00    0.3996524437E-03    0.5922717419E-01    0.6281373106E-01    0.6260429067E+00
    0.1300000000E+07    0.6172592454E+00    0.3684887315E-03    0.5914740836E-01    0.6283252374E-01    0.6261746058E+00
    0.1500000000E+07    0.6172559635E+00    0.3437305540E-03    0.5907884081E-01    0.6284844273E-01    0.6262841207E+00
    0.1700000000E+07    0.6172518911E+00    0.3234417340E-03    0.5901870764E-01    0.6286224919E-01    0.6263776090E+00
    0.1900000000E+07    0.6172474404E+00    0.3064181535E-03    0.5896515754E-01    0.6287443751E-01    0.6264590103E+00
    0.2100000000E+07    0.6172428360E+00    0.2918662864E-03    0.5891688929E-01    0.6288534685E-01    0.6265309902E+00
    0.2300000000E+07    0.6172382040E+00    0.2792390258E-03    0.5887295330E-01    0.6289521994E-01    0.6265954320E+00
    0.2500000000E+07    0.6172336166E+00    0.2681452387E-03    0.5883263523E-01    0.6290423644E-01    0.6266537135E+00
    0.2700000000E+07    0.6172291148E+00    0.2582968571E-03    0.5879538413E-01    0.6291253305E-01    0.6267068717E+00
    0.2900000000E+07    0.6172247214E+00    0.2494763784E-03    0.5876076613E-01    0.6292021617E-01    0.6267557055E+00
    0.3100000000E+07    0.6172204482E+00    0.2415160776E-03    0.5872843343E-01    0.6292737026E-01    0.6268008434E+00
    0.3300000000E+07    0.6172163000E+00    0.2342842484E-03    0.5869810290E-01    0.6293406346E-01    0.6268427877E+00
    0.3500000000E+07    0.6172122777E+00    0.2276758255E-03    0.5866954100E-01    0.6294035154E-01    0.6268819464E+00
    0.3700000000E+07    0.6172083794E+00    0.2216058294E-03    0.5864255285E-01    0.6294628076E-01    0.6269186551E+00
    0.3900000000E+07    0.6172046018E+00    0.2160046815E-03    0.5861697408E-01    0.6295188984E-01    0.6269531929E+00
    0.4100000000E+07    0.6172009407E+00    0.2108147891E-03    0.5859266483E-01    0.6295721160E-01    0.6269857946E+00
    0.4300000000E+07    0.6171973915E+00    0.2059880139E-03    0.5856950509E-01    0.6296227402E-01    0.6270166591E+00
    0.4500000000E+07    0.6171939492E+00    0.2014837637E-03    0.5854739108E-01    0.6296710122E-01    0.6270459569E+00
    0.4700000000E+07    0.6171906091E+00    0.1972675362E-03    0.5852623250E-01    0.6297171409E-01    0.6270738346E+00
    0.4900000000E+07    0.6171873664E+00    0.1933097911E-03    0.5850595025E-01    0.6297613084E-01    0.6271004195E+00
    0.1000000000E+07    0.6172607267E+00    0.4185973730E-03    0.5927253331E-01    0.6280289374E-01    0.6259657587E+00
    0.3000000000E+07    0.6172225694E+00    0.2453976549E-03    0.5874433313E-01    0.6292385475E-01    0.6267787025E+00
    0.5000000000E+07    0.6171857800E+00    0.1914197541E-03    0.5849611565E-01    0.6297827076E-01    0.6271132625E+00
    0.7000000000E+07    0.6171581485E+00    0.1625230471E-03    0.5833217150E-01    0.6301380104E-01    0.6273230965E+00
    0.9000000000E+07    0.6171362745E+00    0.1438222835E-03    0.5820958290E-01    0.6304022975E-01    0.6274753036E+00
    0.1100000000E+08    0.6171182169E+00    0.1304467213E-03    0.5811164795E-01    0.6306128242E-01    0.6275944050E+00
    0.1300000000E+08    0.6171028537E+00    0.1202653155E-03    0.5803010131E-01    0.6307878137E-01    0.6276920646E+00
    0.1500000000E+08    0.6170894893E+00    0.1121778533E-03    0.5796024288E-01    0.6309375526E-01    0.6277747297E+00
    0.1700000000E+08    0.6170776649E+00    0.1055511326E-03    0.5789914283E-01    0.6310684203E-01    0.6278463326E+00
    0.1900000000E+08    0.6170670628E+00    0.9999144517E-04    0.5784485098E-01    0.6311846477E-01    0.6279094458E+00
    0.2100000000E+08    0.6170574540E+00    0.9523937758E-04    0.5779600355E-01    0.6312891848E-01    0.6279658422E+00
    0.2300000000E+08    0.6170486684E+00    0.9111609940E-04    0.5775160933E-01    0.6313841710E-01    0.6280167950E+00
    0.2500000000E+08    0.6170405760E+00    0.8749377817E-04    0.5771092527E-01    0.6314712074E-01    0.6280632484E+00
    0.2700000000E+08    0.6170330754E+00    0.8427827555E-04    0.5767337999E-01    0.6315515233E-01    0.6281059222E+00
