  Pressure (Pa) 22mC5-400 (mol/kg) 2mC6-400 (mol/kg) 3mC6-400 (mol/kg) 23mC5-400 (mol/kg) C7-400 (mol/kg)
    0.1000000000E+01    0.3697217052E-02    0.3149767304E-02    0.1568740741E-02    0.9274176499E-04    0.8485654884E-02
    0.3000000000E+01    0.1090410624E-01    0.9079425236E-02    0.4538411890E-02    0.2735243930E-03    0.2455335537E-01
    0.5000000000E+01    0.1787321956E-01    0.1455804463E-01    0.7304126682E-02    0.4483470069E-03    0.3952265572E-01
    0.7000000000E+01    0.2461827731E-01    0.1963033120E-01    0.9886775011E-02    0.6175534589E-03    0.5350588953E-01
    0.9000000000E+01    0.3115193511E-01    0.2433527909E-01    0.1230446917E-01    0.7814609220E-03    0.6660046549E-01
    0.1100000000E+02    0.3748588521E-01    0.2870706506E-01    0.1457299157E-01    0.9403624277E-03    0.7889127194E-01
    0.1300000000E+02    0.4363094646E-01    0.3277577823E-01    0.1670615847E-01    0.1094529120E-02    0.9045263066E-01
    0.1500000000E+02    0.4959714438E-01    0.3656801954E-01    0.1871611764E-01    0.1244212264E-02    0.1013498956E+00
    0.1700000000E+02    0.5539378266E-01    0.4010739777E-01    0.2061359347E-01    0.1389645033E-02    0.1116407697E+00
    0.1900000000E+02    0.6102950707E-01    0.4341494231E-01    0.2240809003E-01    0.1531044115E-02    0.1213763958E+00
    0.2100000000E+02    0.6651236272E-01    0.4650944881E-01    0.2410806036E-01    0.1668611145E-02    0.1306022662E+00
    0.2300000000E+02    0.7184984548E-01    0.4940777009E-01    0.2572104830E-01    0.1802533993E-02    0.1393589846E+00
    0.2500000000E+02    0.7704894818E-01    0.5212506237E-01    0.2725380788E-01    0.1932987923E-02    0.1476829078E+00
    0.2700000000E+02    0.8211620226E-01    0.5467499457E-01    0.2871240439E-01    0.2060136636E-02    0.1556066892E+00
    0.2900000000E+02    0.8705771540E-01    0.5706992712E-01    0.3010230036E-01    0.2184133212E-02    0.1631597398E+00
    0.3100000000E+02    0.9187920544E-01    0.5932106533E-01    0.3142842881E-01    0.2305120965E-02    0.1703686232E+00
    0.3300000000E+02    0.9658603121E-01    0.6143859158E-01    0.3269525621E-01    0.2423234206E-02    0.1772573929E+00
    0.3500000000E+02    0.1011832204E+00    0.6343177948E-01    0.3390683655E-01    0.2538598952E-02    0.1838478840E+00
    0.3700000000E+02    0.1056754949E+00    0.6530909312E-01    0.3506685809E-01    0.2651333554E-02    0.1901599635E+00
    0.3900000000E+02    0.1100672939E+00    0.6707827335E-01    0.3617868387E-01    0.2761549277E-02    0.1962117489E+00
    0.4100000000E+02    0.1143627949E+00    0.6874641333E-01    0.3724538694E-01    0.2869350830E-02    0.2020197972E+00
    0.4300000000E+02    0.1185659327E+00    0.7032002459E-01    0.3826978113E-01    0.2974836838E-02    0.2075992703E+00
    0.4500000000E+02    0.1226804172E+00    0.7180509529E-01    0.3925444792E-01    0.3078100291E-02    0.2129640799E+00
    0.4700000000E+02    0.1267097493E+00    0.7320714141E-01    0.4020176009E-01    0.3179228936E-02    0.2181270143E+00
    0.4900000000E+02    0.1306572354E+00    0.7453125216E-01    0.4111390247E-01    0.3278305651E-02    0.2230998500E+00
    0.1000000000E+02    0.3434317796E-01    0.2656084853E-01    0.1345647102E-01    0.8615199847E-03    0.7284146741E-01
    0.3000000000E+02    0.8948312030E-01    0.5821281156E-01    0.3077304611E-01    0.2244994595E-02    0.1668056438E+00
    0.5000000000E+02    0.1326012696E+00    0.7516556543E-01    0.4155742092E-01    0.3327099185E-02    0.2255184090E+00
    0.7000000000E+02    0.1678604031E+00    0.8473087144E-01    0.4899617419E-01    0.4212171996E-02    0.2661460016E+00
    0.9000000000E+02    0.1976253058E+00    0.9016572821E-01    0.5448036252E-01    0.4959488770E-02    0.2961906816E+00
    0.1100000000E+03    0.2233459313E+00    0.9312792760E-01    0.5871702611E-01    0.5605395804E-02    0.3194698834E+00
    0.1300000000E+03    0.2459662011E+00    0.9454023515E-01    0.6210507493E-01    0.6173555545E-02    0.3381397198E+00
    0.1500000000E+03    0.2661311342E+00    0.9495036729E-01    0.6488743593E-01    0.6680138051E-02    0.3535146075E+00
    0.1700000000E+03    0.2842995516E+00    0.9469946952E-01    0.6722094692E-01    0.7136645944E-02    0.3664440441E+00
    0.1900000000E+03    0.3008090543E+00    0.9400805379E-01    0.6921165106E-01    0.7551543119E-02    0.3775029958E+00
    0.2100000000E+03    0.3159153235E+00    0.9302284826E-01    0.7093398286E-01    0.7931239880E-02    0.3870954588E+00
    0.2300000000E+03    0.3298168731E+00    0.9184373124E-01    0.7244183318E-01    0.8280713412E-02    0.3955142230E+00
    0.2500000000E+03    0.3426711894E+00    0.9053990371E-01    0.7377524862E-01    0.8603912381E-02    0.4029770797E+00
    0.2700000000E+03    0.3546055783E+00    0.8915995835E-01    0.7496465615E-01    0.8904028845E-02    0.4096496680E+00
    0.2900000000E+03    0.3657246515E+00    0.8773834374E-01    0.7603362084E-01    0.9183685924E-02    0.4156603975E+00
    0.3100000000E+03    0.3761156164E+00    0.8629962450E-01    0.7700070048E-01    0.9445070412E-02    0.4211104903E+00
    0.3300000000E+03    0.3858520945E+00    0.8486135295E-01    0.7788072544E-01    0.9690028509E-02    0.4260809153E+00
    0.3500000000E+03    0.3949969314E+00    0.8343604329E-01    0.7868570234E-01    0.9920136253E-02    0.4306372866E+00
    0.3700000000E+03    0.4036043009E+00    0.8203255210E-01    0.7942546493E-01    0.1013675227E-01    0.4348333947E+00
    0.3900000000E+03    0.4117213057E+00    0.8065705821E-01    0.8010815150E-01    0.1034105792E-01    0.4387137971E+00
    0.4100000000E+03    0.4193892141E+00    0.7931376740E-01    0.8074056060E-01    0.1053408828E-01    0.4423157506E+00
    0.4300000000E+03    0.4266444282E+00    0.7800542503E-01    0.8132842010E-01    0.1071675641E-01    0.4456706730E+00
    0.4500000000E+03    0.4335192508E+00    0.7673369256E-01    0.8187659331E-01    0.1088987261E-01    0.4488052640E+00
    0.4700000000E+03    0.4400425015E+00    0.7549942663E-01    0.8238923878E-01    0.1105415982E-01    0.4517423746E+00
    0.4900000000E+03    0.4462400155E+00    0.7430288735E-01    0.8286993562E-01    0.1121026619E-01    0.4545016890E+00
    0.1000000000E+03    0.2109233534E+00    0.9188658308E-01    0.5672485136E-01    0.5293418904E-02    0.3085150385E+00
    0.3000000000E+03    0.3710062647E+00    0.8701988746E-01    0.7652889410E-01    0.9316539799E-02    0.4184500537E+00
    0.5000000000E+03    0.4492239810E+00    0.7371872272E-01    0.8309928817E-01    0.1128543620E-01    0.4558200934E+00
    0.7000000000E+03    0.4964002678E+00    0.6384815550E-01    0.8658068298E-01    0.1247471530E-01    0.4760056741E+00
    0.9000000000E+03    0.5276502606E+00    0.5670234491E-01    0.8879463409E-01    0.1326367329E-01    0.4890579664E+00
    0.1100000000E+04    0.5496594299E+00    0.5136968256E-01    0.9034949767E-01    0.1382017390E-01    0.4983630447E+00
    0.1300000000E+04    0.5658792704E+00    0.4725181990E-01    0.9151226199E-01    0.1423092902E-01    0.5054183134E+00
    0.1500000000E+04    0.5782623110E+00    0.4397419119E-01    0.9242041223E-01    0.1454501880E-01    0.5110002112E+00
    0.1700000000E+04    0.5879879714E+00    0.4129775637E-01    0.9315268585E-01    0.1479210583E-01    0.5155562601E+00
    0.1900000000E+04    0.5958061049E+00    0.3906504093E-01    0.9375774651E-01    0.1499105900E-01    0.5193647176E+00
    0.2100000000E+04    0.6022137509E+00    0.3716887851E-01    0.9426745045E-01    0.1515439211E-01    0.5226087758E+00
    0.2300000000E+04    0.6075520364E+00    0.3553411003E-01    0.9470361098E-01    0.1529069813E-01    0.5254145563E+00
    0.2500000000E+04    0.6120620992E+00    0.3410657985E-01    0.9508171529E-01    0.1540605455E-01    0.5278720706E+00
    0.2700000000E+04    0.6159187786E+00    0.3284631794E-01    0.9541309162E-01    0.1550487025E-01    0.5300474886E+00
    0.2900000000E+04    0.6192516695E+00    0.3172318960E-01    0.9570623544E-01    0.1559041493E-01    0.5319906742E+00
    0.3100000000E+04    0.6221587047E+00    0.3071404228E-01    0.9596765447E-01    0.1566516082E-01    0.5337400032E+00
    0.3300000000E+04    0.6247151643E+00    0.2980078651E-01    0.9620242562E-01    0.1573100932E-01    0.5353255507E+00
    0.3500000000E+04    0.6269797998E+00    0.2896907513E-01    0.9641457306E-01    0.1578944518E-01    0.5367712612E+00
    0.3700000000E+04    0.6289990900E+00    0.2820737503E-01    0.9660733130E-01    0.1584164363E-01    0.5380964636E+00
    0.3900000000E+04    0.6308102564E+00    0.2750630235E-01    0.9678333251E-01    0.1588854637E-01    0.5393169539E+00
    0.4100000000E+04    0.6324434375E+00    0.2685813811E-01    0.9694474241E-01    0.1593091633E-01    0.5404457823E+00
    0.4300000000E+04    0.6339232826E+00    0.2625646950E-01    0.9709336062E-01    0.1596937782E-01    0.5414938371E+00
    0.4500000000E+04    0.6352701368E+00    0.2569592069E-01    0.9723069598E-01    0.1600444644E-01    0.5424702830E+00
    0.4700000000E+04    0.6365009336E+00    0.2517194781E-01    0.9735802377E-01    0.1603655158E-01    0.5433828965E+00
    0.4900000000E+04    0.6376298756E+00    0.2468068115E-01    0.9747642989E-01    0.1606605358E-01    0.5442383242E+00
    0.1000000000E+04    0.5395462695E+00    0.5385330499E-01    0.8963337815E-01    0.1356435743E-01    0.4940609476E+00
    0.3000000000E+04    0.6207532660E+00    0.3120559977E-01    0.9584056483E-01    0.1562900760E-01    0.5328875258E+00
    0.5000000000E+04    0.6381599745E+00    0.2444625690E-01    0.9753258350E-01    0.1607992546E-01    0.5446464123E+00
    0.7000000000E+04    0.6455368123E+00    0.2087159487E-01    0.9835623136E-01    0.1627463136E-01    0.5508510896E+00
    0.9000000000E+04    0.6495863632E+00    0.1855954887E-01    0.9884852867E-01    0.1638352290E-01    0.5548322106E+00
    0.1100000000E+05    0.6521388980E+00    0.1690138826E-01    0.9917653309E-01    0.1645343522E-01    0.5576641710E+00
    0.1300000000E+05    0.6538928309E+00    0.1563465812E-01    0.9941036022E-01    0.1650235545E-01    0.5598121504E+00
    0.1500000000E+05    0.6551713466E+00    0.1462472149E-01    0.9958492339E-01    0.1653866037E-01    0.5615143784E+00
    0.1700000000E+05    0.6561442452E+00    0.1379427212E-01    0.9971967384E-01    0.1656677924E-01    0.5629070798E+00
    0.1900000000E+05    0.6569091832E+00    0.1309525441E-01    0.9982635090E-01    0.1658927563E-01    0.5640745090E+00
    0.2100000000E+05    0.6575262694E+00    0.1249597639E-01    0.9991247820E-01    0.1660773748E-01    0.5650719373E+00
    0.2300000000E+05    0.6580345112E+00    0.1197455793E-01    0.9998310885E-01    0.1662320177E-01    0.5659373257E+00
    0.2500000000E+05    0.6584603186E+00    0.1151533000E-01    0.1000417668E+00    0.1663637501E-01    0.5666977244E+00
    0.2700000000E+05    0.6588222056E+00    0.1110673075E-01    0.1000909865E+00    0.1664775560E-01    0.5673729994E+00
    0.2900000000E+05    0.6591335340E+00    0.1074001352E-01    0.1001326387E+00    0.1665770545E-01    0.5679781141E+00
    0.3100000000E+05    0.6594041871E+00    0.1040842018E-01    0.1001681347E+00    0.1666649394E-01    0.5685245831E+00
    0.3300000000E+05    0.6596416325E+00    0.1010663362E-01    0.1001985593E+00    0.1667432585E-01    0.5690214313E+00
    0.3500000000E+05    0.6598516164E+00    0.9830404236E-02    0.1002247603E+00    0.1668135974E-01    0.5694758469E+00
    0.3700000000E+05    0.6600386331E+00    0.9576288542E-02    0.1002474098E+00    0.1668772035E-01    0.5698936355E+00
    0.3900000000E+05    0.6602062474E+00    0.9341462135E-02    0.1002670473E+00    0.1669350726E-01    0.5702795445E+00
    0.4100000000E+05    0.6603573233E+00    0.9123583196E-02    0.1002841110E+00    0.1669880094E-01    0.5706374996E+00
    0.4300000000E+05    0.6604941882E+00    0.8920691125E-02    0.1002989603E+00    0.1670366717E-01    0.5709707787E+00
    0.4500000000E+05    0.6606187525E+00    0.8731130093E-02    0.1003118925E+00    0.1670816028E-01    0.5712821435E+00
    0.4700000000E+05    0.6607325992E+00    0.8553490563E-02    0.1003231561E+00    0.1671232555E-01    0.5715739398E+00
    0.4900000000E+05    0.6608370511E+00    0.8386563992E-02    0.1003329597E+00    0.1671620105E-01    0.5718481746E+00
    0.1000000000E+05    0.6509928835E+00    0.1766949117E-01    0.9902747768E-01    0.1642188914E-01    0.5563550415E+00
    0.3000000000E+05    0.6592734311E+00    0.1057018742E-01    0.1001510820E+00    0.1666223080E-01    0.5682580657E+00
    0.5000000000E+05    0.6608861091E+00    0.8306786459E-02    0.1003373704E+00    0.1671804041E-01    0.5719792563E+00
    0.7000000000E+05    0.6615703446E+00    0.7082041977E-02    0.1003803077E+00    0.1674535693E-01    0.5739955470E+00
    0.9000000000E+05    0.6619479448E+00    0.6284259708E-02    0.1003787841E+00    0.1676242709E-01    0.5753172476E+00
    0.1100000000E+06    0.6621869360E+00    0.5711079476E-02    0.1003597588E+00    0.1677449687E-01    0.5762744307E+00
    0.1300000000E+06    0.6623515928E+00    0.5273313235E-02    0.1003331637E+00    0.1678368894E-01    0.5770117237E+00
    0.1500000000E+06    0.6624717949E+00    0.4924666507E-02    0.1003033071E+00    0.1679104311E-01    0.5776040007E+00
    0.1700000000E+06    0.6625633138E+00    0.4638383883E-02    0.1002722512E+00    0.1679713598E-01    0.5780944997E+00
    0.1900000000E+06    0.6626352577E+00    0.4397773297E-02    0.1002410429E+00    0.1680231653E-01    0.5785102046E+00
    0.2100000000E+06    0.6626932529E+00    0.4191805532E-02    0.1002102295E+00    0.1680681016E-01    0.5788689636E+00
    0.2300000000E+06    0.6627409614E+00    0.4012859353E-02    0.1001800967E+00    0.1681077002E-01    0.5791831295E+00
    0.2500000000E+06    0.6627808692E+00    0.3855475746E-02    0.1001507871E+00    0.1681430440E-01    0.5794615672E+00
    0.2700000000E+06    0.6628147227E+00    0.3715627383E-02    0.1001223631E+00    0.1681749244E-01    0.5797108307E+00
    0.2900000000E+06    0.6628437844E+00    0.3590268939E-02    0.1000948411E+00    0.1682039357E-01    0.5799358875E+00
    0.3100000000E+06    0.6628689898E+00    0.3477048918E-02    0.1000682109E+00    0.1682305347E-01    0.5801405829E+00
    0.3300000000E+06    0.6628910463E+00    0.3374118583E-02    0.1000424478E+00    0.1682550794E-01    0.5803279476E+00
    0.3500000000E+06    0.6629104990E+00    0.3280001555E-02    0.1000175188E+00    0.1682778550E-01    0.5805004082E+00
    0.3700000000E+06    0.6629277746E+00    0.3193502514E-02    0.9999338718E-01    0.1682990925E-01    0.5806599345E+00
    0.3900000000E+06    0.6629432117E+00    0.3113641879E-02    0.9997001468E-01    0.1683189811E-01    0.5808081453E+00
    0.4100000000E+06    0.6629570824E+00    0.3039608141E-02    0.9994736327E-01    0.1683376777E-01    0.5809463849E+00
    0.4300000000E+06    0.6629696080E+00    0.2970722475E-02    0.9992539593E-01    0.1683553139E-01    0.5810757813E+00
    0.4500000000E+06    0.6629809702E+00    0.2906412062E-02    0.9990407713E-01    0.1683720010E-01    0.5811972884E+00
    0.4700000000E+06    0.6629913195E+00    0.2846189689E-02    0.9988337313E-01    0.1683878337E-01    0.5813117202E+00
    0.4900000000E+06    0.6630007818E+00    0.2789637956E-02    0.9986325209E-01    0.1684028935E-01    0.5814197756E+00
    0.1000000000E+06    0.6620795384E+00    0.5976620190E-02    0.1003706392E+00    0.1676891678E-01    0.5758299994E+00
    0.3000000000E+06    0.6628568205E+00    0.3532267195E-02    0.1000814158E+00    0.1682175124E-01    0.5800405747E+00
    0.5000000000E+06    0.6630052140E+00    0.2762624130E-02    0.9985340075E-01    0.1684101561E-01    0.5814716042E+00
    0.7000000000E+06    0.6630659486E+00    0.2349018460E-02    0.9968067256E-01    0.1685278757E-01    0.5822848556E+00
    0.9000000000E+06    0.6630980892E+00    0.2080751940E-02    0.9954209770E-01    0.1686125379E-01    0.5828367338E+00
    0.1100000000E+07    0.6631175127E+00    0.1888584601E-02    0.9942635678E-01    0.1686786051E-01    0.5832475398E+00
    0.1300000000E+07    0.6631302399E+00    0.1742142756E-02    0.9932692163E-01    0.1687327616E-01    0.5835712931E+00
    0.1500000000E+07    0.6631390408E+00    0.1625715891E-02    0.9923971287E-01    0.1687786401E-01    0.5838365245E+00
    0.1700000000E+07    0.6631453609E+00    0.1530249352E-02    0.9916201546E-01    0.1688184329E-01    0.5840599924E+00
    0.1900000000E+07    0.6631500247E+00    0.1450106819E-02    0.9909193180E-01    0.1688535641E-01    0.5842523124E+00
    0.2100000000E+07    0.6631535351E+00    0.1381571069E-02    0.9902808326E-01    0.1688850105E-01    0.5844206000E+00
    0.2300000000E+07    0.6631562149E+00    0.1322077562E-02    0.9896943645E-01    0.1689134712E-01    0.5845698393E+00
    0.2500000000E+07    0.6631582804E+00    0.1269791855E-02    0.9891519662E-01    0.1689394639E-01    0.5847036464E+00
    0.2700000000E+07    0.6631598811E+00    0.1223362230E-02    0.9886473922E-01    0.1689633822E-01    0.5848247223E+00
    0.2900000000E+07    0.6631611238E+00    0.1181767645E-02    0.9881756441E-01    0.1689855327E-01    0.5849351333E+00
    0.3100000000E+07    0.6631620862E+00    0.1144220432E-02    0.9877326586E-01    0.1690061587E-01    0.5850364929E+00
    0.3300000000E+07    0.6631628263E+00    0.1110101854E-02    0.9873150872E-01    0.1690254566E-01    0.5851300833E+00
    0.3500000000E+07    0.6631633879E+00    0.1078918174E-02    0.9869201372E-01    0.1690435870E-01    0.5852169394E+00
    0.3700000000E+07    0.6631638049E+00    0.1050269930E-02    0.9865454547E-01    0.1690606831E-01    0.5852979072E+00
    0.3900000000E+07    0.6631641037E+00    0.1023829966E-02    0.9861890373E-01    0.1690768565E-01    0.5853736868E+00
    0.4100000000E+07    0.6631643051E+00    0.9993274181E-03    0.9858491668E-01    0.1690922019E-01    0.5854448636E+00
    0.4300000000E+07    0.6631644258E+00    0.9765358342E-03    0.9855243580E-01    0.1691067998E-01    0.5855119317E+00
    0.4500000000E+07    0.6631644791E+00    0.9552642206E-03    0.9852133181E-01    0.1691207197E-01    0.5855753118E+00
    0.4700000000E+07    0.6631644761E+00    0.9353502041E-03    0.9849149149E-01    0.1691340219E-01    0.5856353646E+00
    0.4900000000E+07    0.6631644255E+00    0.9166547389E-03    0.9846281508E-01    0.1691467588E-01    0.5856924017E+00
    0.1000000000E+07    0.6631088996E+00    0.1977551147E-02    0.9948185697E-01    0.1686473762E-01    0.5830555363E+00
    0.3000000000E+07    0.6631616360E+00    0.1162530154E-02    0.9879507800E-01    0.1689960231E-01    0.5849868577E+00
    0.5000000000E+07    0.6631643848E+00    0.9077258515E-03    0.9844888535E-01    0.1691529299E-01    0.5857198755E+00
    0.7000000000E+07    0.6631623336E+00    0.7711474030E-03    0.9821443158E-01    0.1692554004E-01    0.5861614491E+00
    0.9000000000E+07    0.6631594036E+00    0.6826923769E-03    0.9803661848E-01    0.1693316315E-01    0.5864733927E+00
    0.1100000000E+08    0.6631563973E+00    0.6193919097E-03    0.9789321616E-01    0.1693923615E-01    0.5867128105E+00
    0.1300000000E+08    0.6631535233E+00    0.5711883580E-03    0.9777298463E-01    0.1694428439E-01    0.5869061925E+00
    0.1500000000E+08    0.6631508330E+00    0.5328860670E-03    0.9766943671E-01    0.1694860444E-01    0.5870678978E+00
    0.1700000000E+08    0.6631483289E+00    0.5014934071E-03    0.9757848351E-01    0.1695238023E-01    0.5872065457E+00
    0.1900000000E+08    0.6631459985E+00    0.4751495602E-03    0.9749737952E-01    0.1695573377E-01    0.5873276987E+00
    0.2100000000E+08    0.6631438253E+00    0.4526280513E-03    0.9742419113E-01    0.1695875011E-01    0.5874351470E+00
    0.2300000000E+08    0.6631417928E+00    0.4330831630E-03    0.9735750464E-01    0.1696149097E-01    0.5875315843E+00
    0.2500000000E+08    0.6631398859E+00    0.4159102131E-03    0.9729625494E-01    0.1696400250E-01    0.5876189909E+00
    0.2700000000E+08    0.6631380913E+00    0.4006638091E-03    0.9723961937E-01    0.1696632017E-01    0.5876988636E+00
