  Pressure (Pa) 22mC5-400 (mol/kg) 2mC6-400 (mol/kg) 3mC6-400 (mol/kg) 23mC5-400 (mol/kg) C7-400 (mol/kg)
    0.1000000000E+01    0.3704218480E-02    0.7899159127E-03    0.1573217546E-02    0.3716693023E-03    0.8509778267E-02
    0.3000000000E+01    0.1096453052E-01    0.2290572801E-02    0.4575863311E-02    0.1100158203E-02    0.2475518863E-01
    0.5000000000E+01    0.1803427134E-01    0.3693161147E-02    0.7401056131E-02    0.1809541939E-02    0.4004509209E-01
    0.7000000000E+01    0.2492134691E-01    0.5005806744E-02    0.1006418055E-01    0.2500612910E-02    0.5446219586E-01
    0.9000000000E+01    0.3163322540E-01    0.6235762009E-02    0.1257888959E-01    0.3174119639E-02    0.6807990596E-01
    0.1100000000E+02    0.3817696690E-01    0.7389522329E-02    0.1495734180E-01    0.3830769755E-02    0.8096359988E-01
    0.1300000000E+02    0.4455925081E-01    0.8472924048E-02    0.1721040037E-01    0.4471232734E-02    0.9317169583E-01
    0.1500000000E+02    0.5078640111E-01    0.9491227402E-02    0.1934780126E-01    0.5096142435E-02    0.1047565555E+00
    0.1700000000E+02    0.5686440960E-01    0.1044918706E-01    0.2137829579E-01    0.5706099423E-02    0.1157652499E+00
    0.1900000000E+02    0.6279895736E-01    0.1135111240E-01    0.2330977216E-01    0.6301673128E-02    0.1262402114E+00
    0.2100000000E+02    0.6859543461E-01    0.1220091924E-01    0.2514935929E-01    0.6883403825E-02    0.1362197925E+00
    0.2300000000E+02    0.7425895905E-01    0.1300217437E-01    0.2690351618E-01    0.7451804480E-02    0.1457387448E+00
    0.2500000000E+02    0.7979439285E-01    0.1375813415E-01    0.2857810880E-01    0.8007362451E-02    0.1548286324E+00
    0.2700000000E+02    0.8520635839E-01    0.1447177799E-01    0.3017847670E-01    0.8550541061E-02    0.1635181896E+00
    0.2900000000E+02    0.9049925286E-01    0.1514583745E-01    0.3170949080E-01    0.9081781067E-02    0.1718336318E+00
    0.3100000000E+02    0.9567726182E-01    0.1578282182E-01    0.3317560377E-01    0.9601502012E-02    0.1797989255E+00
    0.3300000000E+02    0.1007443718E+00    0.1638504044E-01    0.3458089398E-01    0.1011010349E-01    0.1874360248E+00
    0.3500000000E+02    0.1057043819E+00    0.1695462242E-01    0.3592910413E-01    0.1060796633E-01    0.1947650788E+00
    0.3700000000E+02    0.1105609149E+00    0.1749353396E-01    0.3722367504E-01    0.1109545366E-01    0.2018046135E+00
    0.3900000000E+02    0.1153174273E+00    0.1800359372E-01    0.3846777557E-01    0.1157291195E-01    0.2085716922E+00
    0.4100000000E+02    0.1199772185E+00    0.1848648651E-01    0.3966432898E-01    0.1204067196E-01    0.2150820572E+00
    0.4300000000E+02    0.1245434403E+00    0.1894377535E-01    0.4081603634E-01    0.1249904960E-01    0.2213502559E+00
    0.4500000000E+02    0.1290191045E+00    0.1937691232E-01    0.4192539718E-01    0.1294834677E-01    0.2273897515E+00
    0.4700000000E+02    0.1334070908E+00    0.1978724823E-01    0.4299472808E-01    0.1338885216E-01    0.2332130231E+00
    0.4900000000E+02    0.1377101542E+00    0.2017604124E-01    0.4402617904E-01    0.1382084192E-01    0.2388316536E+00
    0.1000000000E+02    0.3492568719E-01    0.6821787357E-02    0.1378444060E-01    0.3504509068E-02    0.7460970201E-01
    0.3000000000E+02    0.9310236435E-01    0.1546881524E-01    0.3245039673E-01    0.9343055994E-02    0.1758586305E+00
    0.5000000000E+02    0.1398306681E+00    0.2036272896E-01    0.4452832955E-01    0.1403372648E-01    0.2415676227E+00
    0.7000000000E+02    0.1783671453E+00    0.2321207910E-01    0.5299991212E-01    0.1790295534E-01    0.2877920389E+00
    0.9000000000E+02    0.2108136898E+00    0.2485707766E-01    0.5928038039E-01    0.2116144906E-01    0.3221603706E+00
    0.1100000000E+03    0.2385901921E+00    0.2575643410E-01    0.6412846009E-01    0.2395155470E-01    0.3487665197E+00
    0.1300000000E+03    0.2626928295E+00    0.2617884536E-01    0.6798784987E-01    0.2637314721E-01    0.3700069935E+00
    0.1500000000E+03    0.2838431539E+00    0.2628981113E-01    0.7113554806E-01    0.2849857233E-01    0.3873794127E+00
    0.1700000000E+03    0.3025781869E+00    0.2619513229E-01    0.7375353606E-01    0.3038167726E-01    0.4018686562E+00
    0.1900000000E+03    0.3193070434E+00    0.2596437966E-01    0.7596637314E-01    0.3206348646E-01    0.4141495011E+00
    0.2100000000E+03    0.3343477466E+00    0.2564429726E-01    0.7786223402E-01    0.3357589199E-01    0.4247000865E+00
    0.2300000000E+03    0.3479518869E+00    0.2526680945E-01    0.7950531903E-01    0.3494412547E-01    0.4338688872E+00
    0.2500000000E+03    0.3603215788E+00    0.2485398223E-01    0.8094350312E-01    0.3618845792E-01    0.4419160175E+00
    0.2700000000E+03    0.3716213969E+00    0.2442119126E-01    0.8221322818E-01    0.3732539639E-01    0.4490396652E+00
    0.2900000000E+03    0.3819869563E+00    0.2397919642E-01    0.8334273291E-01    0.3836854412E-01    0.4553935531E+00
    0.3100000000E+03    0.3915311977E+00    0.2353552957E-01    0.8435424461E-01    0.3932923069E-01    0.4610987961E+00
    0.3300000000E+03    0.4003490708E+00    0.2309544005E-01    0.8526550276E-01    0.4021698156E-01    0.4662521474E+00
    0.3500000000E+03    0.4085210783E+00    0.2266254888E-01    0.8609084072E-01    0.4103987337E-01    0.4709318571E+00
    0.3700000000E+03    0.4161159954E+00    0.2223930768E-01    0.8684196837E-01    0.4180480668E-01    0.4752019137E+00
    0.3900000000E+03    0.4231929838E+00    0.2182732427E-01    0.8752854804E-01    0.4251771786E-01    0.4791151667E+00
    0.4100000000E+03    0.4298032543E+00    0.2142759602E-01    0.8815862482E-01    0.4318374584E-01    0.4827156610E+00
    0.4300000000E+03    0.4359913884E+00    0.2104067852E-01    0.8873895245E-01    0.4380736460E-01    0.4860404065E+00
    0.4500000000E+03    0.4417963989E+00    0.2066680837E-01    0.8927524333E-01    0.4439248955E-01    0.4891207357E+00
    0.4700000000E+03    0.4472525891E+00    0.2030599308E-01    0.8977236248E-01    0.4494256369E-01    0.4919833581E+00
    0.4900000000E+03    0.4523902546E+00    0.1995807722E-01    0.9023447961E-01    0.4546062799E-01    0.4946511872E+00
    0.1000000000E+03    0.2252156257E+00    0.2538003017E-01    0.6185062822E-01    0.2260802538E-01    0.3362563934E+00
    0.3000000000E+03    0.3868554319E+00    0.2375719923E-01    0.8386203840E-01    0.3885856206E-01    0.4583207152E+00
    0.5000000000E+03    0.4548481564E+00    0.1978887573E-01    0.9045355547E-01    0.4570851128E-01    0.4959183406E+00
    0.7000000000E+03    0.4924361630E+00    0.1698938765E-01    0.9365498246E-01    0.4950295665E-01    0.5146575203E+00
    0.9000000000E+03    0.5161907403E+00    0.1502208865E-01    0.9555109901E-01    0.5190576670E-01    0.5260345307E+00
    0.1100000000E+04    0.5325060236E+00    0.1357801587E-01    0.9680507243E-01    0.5355942182E-01    0.5337419880E+00
    0.1300000000E+04    0.5443756441E+00    0.1247277023E-01    0.9769504730E-01    0.5476493249E-01    0.5393428492E+00
    0.1500000000E+04    0.5533843700E+00    0.1159704150E-01    0.9835852066E-01    0.5568175764E-01    0.5436165620E+00
    0.1700000000E+04    0.5604474383E+00    0.1088344723E-01    0.9887139035E-01    0.5640205131E-01    0.5469970748E+00
    0.1900000000E+04    0.5661292355E+00    0.1028859802E-01    0.9927902424E-01    0.5698267964E-01    0.5497459617E+00
    0.2100000000E+04    0.5707961519E+00    0.9783410903E-02    0.9961022823E-01    0.5746058437E-01    0.5520306798E+00
    0.2300000000E+04    0.5746961134E+00    0.9347694282E-02    0.9988418037E-01    0.5786078000E-01    0.5539636257E+00
    0.2500000000E+04    0.5780027215E+00    0.8966995686E-02    0.1001141468E+00    0.5820079403E-01    0.5556231741E+00
    0.2700000000E+04    0.5808410741E+00    0.8630693795E-02    0.1003095985E+00    0.5849326551E-01    0.5570657233E+00
    0.2900000000E+04    0.5833035471E+00    0.8330801677E-02    0.1004774782E+00    0.5874753390E-01    0.5583329434E+00
    0.3100000000E+04    0.5854598061E+00    0.8061191763E-02    0.1006229916E+00    0.5897064741E-01    0.5594563224E+00
    0.3300000000E+04    0.5873633614E+00    0.7817079425E-02    0.1007501182E+00    0.5916802352E-01    0.5604601192E+00
    0.3500000000E+04    0.5890559820E+00    0.7594670016E-02    0.1008619524E+00    0.5934389393E-01    0.5613633418E+00
    0.3700000000E+04    0.5905707407E+00    0.7390912091E-02    0.1009609364E+00    0.5950161164E-01    0.5621811059E+00
    0.3900000000E+04    0.5919341598E+00    0.7203321305E-02    0.1010490227E+00    0.5964386736E-01    0.5629255910E+00
    0.4100000000E+04    0.5931677525E+00    0.7029852428E-02    0.1011277915E+00    0.5977284518E-01    0.5636067261E+00
    0.4300000000E+04    0.5942891497E+00    0.6868804774E-02    0.1011985348E+00    0.5989033629E-01    0.5642326915E+00
    0.4500000000E+04    0.5953129361E+00    0.6718751259E-02    0.1012623190E+00    0.5999782341E-01    0.5648102907E+00
    0.4700000000E+04    0.5962512796E+00    0.6578484448E-02    0.1013200323E+00    0.6009654444E-01    0.5653452312E+00
    0.4900000000E+04    0.5971144110E+00    0.6446975015E-02    0.1013724200E+00    0.6018754093E-01    0.5658423387E+00
    0.1000000000E+04    0.5250444946E+00    0.1424846460E-01    0.9623614399E-01    0.5280273463E-01    0.5302224513E+00
    0.3000000000E+04    0.5844162903E+00    0.8192537194E-02    0.1005527579E+00    0.5886261424E-01    0.5589109543E+00
    0.5000000000E+04    0.5975205325E+00    0.6384223238E-02    0.1013968175E+00    0.6023042366E-01    0.5660780136E+00
    0.7000000000E+04    0.6032340879E+00    0.5428054634E-02    0.1017167955E+00    0.6083960686E-01    0.5695432650E+00
    0.9000000000E+04    0.6064273902E+00    0.4811188168E-02    0.1018654223E+00    0.6118720575E-01    0.5716497070E+00
    0.1100000000E+05    0.6084643786E+00    0.4370103243E-02    0.1019394046E+00    0.6141348644E-01    0.5730929390E+00
    0.1300000000E+05    0.6098757520E+00    0.4034112996E-02    0.1019754335E+00    0.6157342959E-01    0.5741576334E+00
    0.1500000000E+05    0.6109107405E+00    0.3766941028E-02    0.1019902258E+00    0.6169304288E-01    0.5749835330E+00
    0.1700000000E+05    0.6117017997E+00    0.3547772191E-02    0.1019923593E+00    0.6178624719E-01    0.5756479052E+00
    0.1900000000E+05    0.6123258067E+00    0.3363682808E-02    0.1019866182E+00    0.6186117945E-01    0.5761972381E+00
    0.2100000000E+05    0.6128304326E+00    0.3206162217E-02    0.1019758407E+00    0.6192292069E-01    0.5766613277E+00
    0.2300000000E+05    0.6132468030E+00    0.3069343679E-02    0.1019617913E+00    0.6197481159E-01    0.5770602347E+00
    0.2500000000E+05    0.6135961000E+00    0.2949032365E-02    0.1019456078E+00    0.6201914131E-01    0.5774080087E+00
    0.2700000000E+05    0.6138932373E+00    0.2842137712E-02    0.1019280455E+00    0.6205753266E-01    0.5777148122E+00
    0.2900000000E+05    0.6141490182E+00    0.2746325121E-02    0.1019096170E+00    0.6209116921E-01    0.5779881969E+00
    0.3100000000E+05    0.6143714596E+00    0.2659793308E-02    0.1018906769E+00    0.6212093521E-01    0.5782339046E+00
    0.3300000000E+05    0.6145666351E+00    0.2581126984E-02    0.1018714731E+00    0.6214750511E-01    0.5784563867E+00
    0.3500000000E+05    0.6147392302E+00    0.2509196458E-02    0.1018521812E+00    0.6217140268E-01    0.5786591543E+00
    0.3700000000E+05    0.6148929169E+00    0.2443087452E-02    0.1018329260E+00    0.6219304113E-01    0.5788450176E+00
    0.3900000000E+05    0.6150306134E+00    0.2382050927E-02    0.1018137963E+00    0.6221275107E-01    0.5790162563E+00
    0.4100000000E+05    0.6151546683E+00    0.2325466513E-02    0.1017948552E+00    0.6223080026E-01    0.5791747412E+00
    0.4300000000E+05    0.6152669926E+00    0.2272815372E-02    0.1017761473E+00    0.6224740805E-01    0.5793220237E+00
    0.4500000000E+05    0.6153691572E+00    0.2223659756E-02    0.1017577030E+00    0.6226275592E-01    0.5794594028E+00
    0.4700000000E+05    0.6154624652E+00    0.2177627382E-02    0.1017395432E+00    0.6227699536E-01    0.5795879750E+00
    0.4900000000E+05    0.6155480066E+00    0.2134399341E-02    0.1017216810E+00    0.6229025394E-01    0.5797086739E+00
    0.1000000000E+05    0.6075473903E+00    0.4574262267E-02    0.1019087469E+00    0.6131106107E-01    0.5724314219E+00
    0.3000000000E+05    0.6142639888E+00    0.2701995264E-02    0.1019001934E+00    0.6210648977E-01    0.5781142067E+00
    0.5000000000E+05    0.6155881576E+00    0.2113749510E-02    0.1017128641E+00    0.6229654987E-01    0.5797663253E+00
    0.7000000000E+05    0.6161455423E+00    0.1797533184E-02    0.1015523431E+00    0.6239028776E-01    0.5806513054E+00
    0.9000000000E+05    0.6164493995E+00    0.1592376814E-02    0.1014179902E+00    0.6244907095E-01    0.5812323612E+00
    0.1100000000E+06    0.6166390162E+00    0.1445387197E-02    0.1013034424E+00    0.6249071672E-01    0.5816557818E+00
    0.1300000000E+06    0.6167676704E+00    0.1333356484E-02    0.1012038651E+00    0.6252247226E-01    0.5819845565E+00
    0.1500000000E+06    0.6168600829E+00    0.1244277833E-02    0.1011158786E+00    0.6254789939E-01    0.5822509758E+00
    0.1700000000E+06    0.6169292643E+00    0.1171229753E-02    0.1010370935E+00    0.6256897777E-01    0.5824735828E+00
    0.1900000000E+06    0.6169827022E+00    0.1109903025E-02    0.1009657761E+00    0.6258690750E-01    0.5826639156E+00
    0.2100000000E+06    0.6170250035E+00    0.1057455250E-02    0.1009006351E+00    0.6260246478E-01    0.5828295970E+00
    0.2300000000E+06    0.6170591541E+00    0.1011925191E-02    0.1008406847E+00    0.6261617741E-01    0.5829759020E+00
    0.2500000000E+06    0.6170871719E+00    0.9719098093E-03    0.1007851566E+00    0.6262841896E-01    0.5831066196E+00
    0.2700000000E+06    0.6171104678E+00    0.9363751756E-03    0.1007334410E+00    0.6263946260E-01    0.5832245548E+00
    0.2900000000E+06    0.6171300572E+00    0.9045402348E-03    0.1006850458E+00    0.6264951361E-01    0.5833318377E+00
    0.3100000000E+06    0.6171466884E+00    0.8758024108E-03    0.1006395683E+00    0.6265872977E-01    0.5834301206E+00
    0.3300000000E+06    0.6171609247E+00    0.8496883362E-03    0.1005966748E+00    0.6266723481E-01    0.5835207088E+00
    0.3500000000E+06    0.6171731977E+00    0.8258202551E-03    0.1005560861E+00    0.6267512739E-01    0.5836046505E+00
    0.3700000000E+06    0.6171838435E+00    0.8038925266E-03    0.1005175656E+00    0.6268248736E-01    0.5836827985E+00
    0.3900000000E+06    0.6171931276E+00    0.7836548236E-03    0.1004809116E+00    0.6268938019E-01    0.5837558558E+00
    0.4100000000E+06    0.6172012620E+00    0.7648998839E-03    0.1004459506E+00    0.6269586018E-01    0.5838244080E+00
    0.4300000000E+06    0.6172084183E+00    0.7474544226E-03    0.1004125322E+00    0.6270197285E-01    0.5838889474E+00
    0.4500000000E+06    0.6172147364E+00    0.7311722847E-03    0.1003805253E+00    0.6270775669E-01    0.5839498923E+00
    0.4700000000E+06    0.6172203318E+00    0.7159292127E-03    0.1003498146E+00    0.6271324454E-01    0.5840075999E+00
    0.4900000000E+06    0.6172253004E+00    0.7016187985E-03    0.1003202988E+00    0.6271846464E-01    0.5840623785E+00
    0.1000000000E+06    0.6165541527E+00    0.1513441215E-02    0.1013585828E+00    0.6247145537E-01    0.5814587925E+00
    0.3000000000E+06    0.6171387038E+00    0.8898163433E-03    0.1006619646E+00    0.6265421763E-01    0.5833820156E+00
    0.5000000000E+06    0.6172275753E+00    0.6947841716E-03    0.1003059605E+00    0.6272098204E-01    0.5840887542E+00
    0.7000000000E+06    0.6172541532E+00    0.5902385769E-03    0.1000645940E+00    0.6276178906E-01    0.5845120189E+00
    0.9000000000E+06    0.6172625660E+00    0.5225288701E-03    0.9988157323E-01    0.6279113805E-01    0.5848106666E+00
    0.1100000000E+07    0.6172638801E+00    0.4740743121E-03    0.9973403720E-01    0.6281404083E-01    0.5850399362E+00
    0.1300000000E+07    0.6172619913E+00    0.4371762002E-03    0.9961040008E-01    0.6283281434E-01    0.5852252690E+00
    0.1500000000E+07    0.6172585517E+00    0.4078573742E-03    0.9950396882E-01    0.6284871796E-01    0.5853804000E+00
    0.1700000000E+07    0.6172543485E+00    0.3838277764E-03    0.9941052328E-01    0.6286251172E-01    0.5855135546E+00
    0.1900000000E+07    0.6172497872E+00    0.3636629637E-03    0.9932722963E-01    0.6287468932E-01    0.5856300336E+00
    0.2100000000E+07    0.6172450872E+00    0.3464240762E-03    0.9925209223E-01    0.6288558944E-01    0.5857334460E+00
    0.2300000000E+07    0.6172403716E+00    0.3314637221E-03    0.9918365228E-01    0.6289545450E-01    0.5858263556E+00
    0.2500000000E+07    0.6172357102E+00    0.3183190216E-03    0.9912081088E-01    0.6290446392E-01    0.5859106467E+00
    0.2700000000E+07    0.6172311423E+00    0.3066490309E-03    0.9906271948E-01    0.6291275421E-01    0.5859877437E+00
    0.2900000000E+07    0.6172266894E+00    0.2961963008E-03    0.9900870917E-01    0.6292043166E-01    0.5860587487E+00
    0.3100000000E+07    0.6172223621E+00    0.2867622854E-03    0.9895824320E-01    0.6292758062E-01    0.5861245308E+00
    0.3300000000E+07    0.6172181645E+00    0.2781910641E-03    0.9891088434E-01    0.6293426915E-01    0.5861857877E+00
    0.3500000000E+07    0.6172140968E+00    0.2703582466E-03    0.9886627165E-01    0.6294055296E-01    0.5862430874E+00
    0.3700000000E+07    0.6172101565E+00    0.2631632161E-03    0.9882410371E-01    0.6294647824E-01    0.5862968985E+00
    0.3900000000E+07    0.6172063401E+00    0.2565235858E-03    0.9878412619E-01    0.6295208368E-01    0.5863476116E+00
    0.4100000000E+07    0.6172026429E+00    0.2503711571E-03    0.9874612253E-01    0.6295740206E-01    0.5863955560E+00
    0.4300000000E+07    0.6171990599E+00    0.2446489237E-03    0.9870990681E-01    0.6296246135E-01    0.5864410117E+00
    0.4500000000E+07    0.6171955860E+00    0.2393088134E-03    0.9867531821E-01    0.6296728561E-01    0.5864842186E+00
    0.4700000000E+07    0.6171922162E+00    0.2343099636E-03    0.9864221670E-01    0.6297189573E-01    0.5865253839E+00
    0.4900000000E+07    0.6171889454E+00    0.2296173873E-03    0.9861047959E-01    0.6297630990E-01    0.5865646877E+00
    0.1000000000E+07    0.6172637863E+00    0.4965020502E-03    0.9980425255E-01    0.6280321507E-01    0.5849319922E+00
    0.3000000000E+07    0.6172245097E+00    0.2913625480E-03    0.9898306249E-01    0.6292406762E-01    0.5860922455E+00
    0.5000000000E+07    0.6171873457E+00    0.2273763632E-03    0.9859508841E-01    0.6297844858E-01    0.5865836915E+00
    0.7000000000E+07    0.6171595060E+00    0.1931078639E-03    0.9833830774E-01    0.6301395997E-01    0.5868956596E+00
    0.9000000000E+07    0.6171374937E+00    0.1709246421E-03    0.9814606559E-01    0.6304037647E-01    0.5871236136E+00
    0.1100000000E+08    0.6171193351E+00    0.1550550104E-03    0.9799235459E-01    0.6306142047E-01    0.5873028995E+00
    0.1300000000E+08    0.6171038938E+00    0.1429731310E-03    0.9786428355E-01    0.6307891288E-01    0.5874504746E+00
    0.1500000000E+08    0.6170904665E+00    0.1333747241E-03    0.9775451351E-01    0.6309388163E-01    0.5875757712E+00
    0.1700000000E+08    0.6170785899E+00    0.1255090270E-03    0.9765846567E-01    0.6310696425E-01    0.5876845707E+00
    0.1900000000E+08    0.6170679434E+00    0.1189091750E-03    0.9757309013E-01    0.6311858354E-01    0.5877806703E+00
    0.2100000000E+08    0.6170582964E+00    0.1132675178E-03    0.9749625279E-01    0.6312903436E-01    0.5878666960E+00
    0.2300000000E+08    0.6170494773E+00    0.1083719509E-03    0.9742640187E-01    0.6313853050E-01    0.5879445387E+00
    0.2500000000E+08    0.6170413553E+00    0.1040708434E-03    0.9736237353E-01    0.6314723200E-01    0.5880156047E+00
    0.2700000000E+08    0.6170338281E+00    0.1002525225E-03    0.9730327251E-01    0.6315526172E-01    0.5880809676E+00
