  Pressure (Pa) 22mC5-400 (mol/kg) 2mC6-400 (mol/kg) 3mC6-400 (mol/kg) 23mC5-400 (mol/kg) C7-400 (mol/kg)
    0.1000000000E+01    0.3704723935E-02    0.7894886467E-03    0.2096007366E-02    0.2787899790E-03    0.8503254419E-02
    0.3000000000E+01    0.1096895606E-01    0.2287002759E-02    0.6087502619E-02    0.8254513852E-03    0.2470008499E-01
    0.5000000000E+01    0.1804623553E-01    0.3683935079E-02    0.9832427010E-02    0.1358055984E-02    0.3990115568E-01
    0.7000000000E+01    0.2494417828E-01    0.4988949733E-02    0.1335308874E-01    0.1877176275E-02    0.5419641302E-01
    0.9000000000E+01    0.3166998592E-01    0.6209736889E-02    0.1666917927E-01    0.2383353613E-02    0.6766526124E-01
    0.1100000000E+02    0.3823047339E-01    0.7353148515E-02    0.1979814617E-01    0.2877100292E-02    0.8037806389E-01
    0.1300000000E+02    0.4463209449E-01    0.8425311751E-02    0.2275550412E-01    0.3358901462E-02    0.9239739584E-01
    0.1500000000E+02    0.5088096539E-01    0.9431724124E-02    0.2555509539E-01    0.3829216894E-02    0.1037790929E+00
    0.1700000000E+02    0.5698288637E-01    0.1037733394E-01    0.2820930948E-01    0.4288482616E-02    0.1145731358E+00
    0.1900000000E+02    0.6294336189E-01    0.1126660846E-01    0.3072926890E-01    0.4737112423E-02    0.1248243991E+00
    0.2100000000E+02    0.6876761917E-01    0.1210359207E-01    0.3312498723E-01    0.5175499270E-02    0.1345732874E+00
    0.2300000000E+02    0.7446062541E-01    0.1289195601E-01    0.3540550402E-01    0.5604016567E-02    0.1438562791E+00
    0.2500000000E+02    0.8002710373E-01    0.1363504119E-01    0.3757900052E-01    0.6023019378E-02    0.1527063925E+00
    0.2700000000E+02    0.8547154797E-01    0.1433589514E-01    0.3965289927E-01    0.6432845534E-02    0.1611535867E+00
    0.2900000000E+02    0.9079823642E-01    0.1499730402E-01    0.4163395010E-01    0.6833816662E-02    0.1692251090E+00
    0.3100000000E+02    0.9601124462E-01    0.1562182042E-01    0.4352830477E-01    0.7226239151E-02    0.1769457947E+00
    0.3300000000E+02    0.1011144572E+00    0.1621178775E-01    0.4534158179E-01    0.7610405040E-02    0.1843383287E+00
    0.3500000000E+02    0.1061115790E+00    0.1676936142E-01    0.4707892304E-01    0.7986592851E-02    0.1914234739E+00
    0.3700000000E+02    0.1110061453E+00    0.1729652759E-01    0.4874504334E-01    0.8355068361E-02    0.1982202706E+00
    0.3900000000E+02    0.1158015315E+00    0.1779511960E-01    0.5034427390E-01    0.8716085330E-02    0.2047462118E+00
    0.4100000000E+02    0.1205009620E+00    0.1826683257E-01    0.5188060061E-01    0.9069886168E-02    0.2110173974E+00
    0.4300000000E+02    0.1251075186E+00    0.1871323623E-01    0.5335769784E-01    0.9416702570E-02    0.2170486708E+00
    0.4500000000E+02    0.1296241485E+00    0.1913578639E-01    0.5477895830E-01    0.9756756099E-02    0.2228537388E+00
    0.4700000000E+02    0.1340536713E+00    0.1953583517E-01    0.5614751956E-01    0.1009025874E-01    0.2284452790E+00
    0.4900000000E+02    0.1383987860E+00    0.1991464007E-01    0.5746628765E-01    0.1041741341E-01    0.2338350343E+00
    0.1000000000E+02    0.3497048313E-01    0.6790715905E-02    0.1825604148E-01    0.2631749848E-02    0.7411208797E-01
    0.3000000000E+02    0.9341870342E-01    0.1531402268E-01    0.4259160151E-01    0.7031077908E-02    0.1731278411E+00
    0.5000000000E+02    0.1405405024E+00    0.2009644518E-01    0.5810784928E-01    0.1057867132E-01    0.2364576779E+00
    0.7000000000E+02    0.1795172999E+00    0.2286271685E-01    0.6888564170E-01    0.1351370803E-01    0.2805833583E+00
    0.9000000000E+02    0.2124151685E+00    0.2444764610E-01    0.7682055955E-01    0.1599152437E-01    0.3131690972E+00
    0.1100000000E+03    0.2406366275E+00    0.2530321983E-01    0.8291388449E-01    0.1811757418E-01    0.3382676241E+00
    0.1300000000E+03    0.2651695439E+00    0.2569304666E-01    0.8774483354E-01    0.1996613837E-01    0.3582258333E+00
    0.1500000000E+03    0.2867317533E+00    0.2577913693E-01    0.9167201166E-01    0.2159119645E-01    0.3744982642E+00
    0.1700000000E+03    0.3058589384E+00    0.2566495895E-01    0.9492946643E-01    0.2303303279E-01    0.3880352305E+00
    0.1900000000E+03    0.3229601129E+00    0.2541852786E-01    0.9767653875E-01    0.2432240783E-01    0.3994843836E+00
    0.2100000000E+03    0.3383538355E+00    0.2508554302E-01    0.1000255249E+00    0.2548328058E-01    0.4093026300E+00
    0.2300000000E+03    0.3522925452E+00    0.2469721955E-01    0.1020578819E+00    0.2653463833E-01    0.4178217402E+00
    0.2500000000E+03    0.3649793418E+00    0.2427513551E-01    0.1038341588E+00    0.2749175823E-01    0.4252885783E+00
    0.2700000000E+03    0.3765798262E+00    0.2383432585E-01    0.1054003164E+00    0.2836709754E-01    0.4318907228E+00
    0.2900000000E+03    0.3872306284E+00    0.2338530859E-01    0.1067918829E+00    0.2917093485E-01    0.4377733206E+00
    0.3100000000E+03    0.3970456659E+00    0.2293544082E-01    0.1080367632E+00    0.2991184063E-01    0.4430504889E+00
    0.3300000000E+03    0.4061208131E+00    0.2248984306E-01    0.1091571852E+00    0.3059702839E-01    0.4478132206E+00
    0.3500000000E+03    0.4145374404E+00    0.2205203945E-01    0.1101710779E+00    0.3123262076E-01    0.4521349839E+00
    0.3700000000E+03    0.4223651323E+00    0.2162440702E-01    0.1110930661E+00    0.3182385391E-01    0.4560757662E+00
    0.3900000000E+03    0.4296638034E+00    0.2120849487E-01    0.1119352001E+00    0.3237523664E-01    0.4596850448E+00
    0.4100000000E+03    0.4364853629E+00    0.2080525306E-01    0.1127075003E+00    0.3289067560E-01    0.4630040030E+00
    0.4300000000E+03    0.4428750401E+00    0.2041519818E-01    0.1134183688E+00    0.3337357491E-01    0.4660672067E+00
    0.4500000000E+03    0.4488724481E+00    0.2003853400E-01    0.1140749045E+00    0.3382691623E-01    0.4689038889E+00
    0.4700000000E+03    0.4545124470E+00    0.1967523986E-01    0.1146831470E+00    0.3425332362E-01    0.4715389453E+00
    0.4900000000E+03    0.4598258486E+00    0.1932513573E-01    0.1152482679E+00    0.3465511656E-01    0.4739937142E+00
    0.1000000000E+03    0.2270410429E+00    0.2494703167E-01    0.8005442955E-01    0.1709330131E-01    0.3264801230E+00
    0.3000000000E+03    0.3922362488E+00    0.2316011718E-01    0.1074311549E+00    0.2954877500E-01    0.4404814291E+00
    0.5000000000E+03    0.4623687421E+00    0.1915494218E-01    0.1155160744E+00    0.3484743508E-01    0.4751593408E+00
    0.7000000000E+03    0.5013320876E+00    0.1634657372E-01    0.1194219633E+00    0.3779698147E-01    0.4923732502E+00
    0.9000000000E+03    0.5260303671E+00    0.1438365467E-01    0.1217280616E+00    0.3967032102E-01    0.5028040709E+00
    0.1100000000E+04    0.5430272751E+00    0.1295045774E-01    0.1232498329E+00    0.4096206190E-01    0.5098633341E+00
    0.1300000000E+04    0.5554095388E+00    0.1185907581E-01    0.1243280591E+00    0.4190496451E-01    0.5149904486E+00
    0.1500000000E+04    0.5648164722E+00    0.1099836154E-01    0.1251307779E+00    0.4262272772E-01    0.5189017542E+00
    0.1700000000E+04    0.5721970664E+00    0.1029996944E-01    0.1257505693E+00    0.4318700810E-01    0.5219954746E+00
    0.1900000000E+04    0.5781375758E+00    0.9720010870E-02    0.1262426893E+00    0.4364210210E-01    0.5245113852E+00
    0.2100000000E+04    0.5830191164E+00    0.9229153839E-02    0.1266421785E+00    0.4401682538E-01    0.5266028583E+00
    0.2300000000E+04    0.5870998609E+00    0.8807094378E-02    0.1269723411E+00    0.4433071105E-01    0.5283727684E+00
    0.2500000000E+04    0.5905607445E+00    0.8439342674E-02    0.1272492825E+00    0.4459745762E-01    0.5298928126E+00
    0.2700000000E+04    0.5935322432E+00    0.8115280948E-02    0.1274844915E+00    0.4482694994E-01    0.5312145629E+00
    0.2900000000E+04    0.5961107611E+00    0.7826947477E-02    0.1276863840E+00    0.4502649648E-01    0.5323761100E+00
    0.3100000000E+04    0.5983690372E+00    0.7568250646E-02    0.1278612660E+00    0.4520161535E-01    0.5334062297E+00
    0.3300000000E+04    0.6003629656E+00    0.7334446290E-02    0.1280139554E+00    0.4535654960E-01    0.5343270868E+00
    0.3500000000E+04    0.6021361919E+00    0.7121781208E-02    0.1281481965E+00    0.4549461472E-01    0.5351560452E+00
    0.3700000000E+04    0.6037232849E+00    0.6927244420E-02    0.1282669427E+00    0.4561843845E-01    0.5359069115E+00
    0.3900000000E+04    0.6051519740E+00    0.6748390036E-02    0.1283725545E+00    0.4573013007E-01    0.5365908093E+00
    0.4100000000E+04    0.6064447568E+00    0.6583208774E-02    0.1284669410E+00    0.4583140203E-01    0.5372168064E+00
    0.4300000000E+04    0.6076200745E+00    0.6430033219E-02    0.1285516627E+00    0.4592365900E-01    0.5377923728E+00
    0.4500000000E+04    0.6086931850E+00    0.6287466882E-02    0.1286280072E+00    0.4600806394E-01    0.5383237215E+00
    0.4700000000E+04    0.6096768197E+00    0.6154330359E-02    0.1286970464E+00    0.4608558792E-01    0.5388160645E+00
    0.4900000000E+04    0.6105816848E+00    0.6029619948E-02    0.1287596795E+00    0.4615704807E-01    0.5392738084E+00
    0.1000000000E+04    0.5352506681E+00    0.1361492823E-01    0.1225597562E+00    0.4037073493E-01    0.5066404124E+00
    0.3000000000E+04    0.5972761035E+00    0.7694217757E-02    0.1277768710E+00    0.4511681901E-01    0.5329060827E+00
    0.5000000000E+04    0.6110074676E+00    0.5970150854E-02    0.1287888358E+00    0.4619072484E-01    0.5394909007E+00
    0.7000000000E+04    0.6169995386E+00    0.5066929646E-02    0.1291701850E+00    0.4666916904E-01    0.5426902981E+00
    0.9000000000E+04    0.6203505001E+00    0.4486891744E-02    0.1293460606E+00    0.4694219174E-01    0.5446444410E+00
    0.1100000000E+05    0.6224891987E+00    0.4073252058E-02    0.1294326855E+00    0.4711992920E-01    0.5459893429E+00
    0.1300000000E+05    0.6239718050E+00    0.3758713760E-02    0.1294740583E+00    0.4724556111E-01    0.5469856614E+00
    0.1500000000E+05    0.6250595810E+00    0.3508899945E-02    0.1294901864E+00    0.4733951476E-01    0.5477615513E+00
    0.1700000000E+05    0.6258914065E+00    0.3304149342E-02    0.1294913168E+00    0.4741272454E-01    0.5483879871E+00
    0.1900000000E+05    0.6265479026E+00    0.3132283806E-02    0.1294831544E+00    0.4747158187E-01    0.5489077402E+00
    0.2100000000E+05    0.6270790711E+00    0.2985298229E-02    0.1294690767E+00    0.4752007786E-01    0.5493482685E+00
    0.2300000000E+05    0.6275175647E+00    0.2857682248E-02    0.1294511797E+00    0.4756083658E-01    0.5497280879E+00
    0.2500000000E+05    0.6278856089E+00    0.2745500372E-02    0.1294308118E+00    0.4759565616E-01    0.5500601862E+00
    0.2700000000E+05    0.6281988545E+00    0.2645855829E-02    0.1294088659E+00    0.4762581130E-01    0.5503539721E+00
    0.2900000000E+05    0.6284686404E+00    0.2556562115E-02    0.1293859464E+00    0.4765223167E-01    0.5506164477E+00
    0.3100000000E+05    0.6287033824E+00    0.2475933325E-02    0.1293624700E+00    0.4767561184E-01    0.5508529445E+00
    0.3300000000E+05    0.6289094577E+00    0.2402645565E-02    0.1293387272E+00    0.4769648158E-01    0.5510676018E+00
    0.3500000000E+05    0.6290917863E+00    0.2335642607E-02    0.1293149227E+00    0.4771525229E-01    0.5512636889E+00
    0.3700000000E+05    0.6292542250E+00    0.2274069987E-02    0.1292912013E+00    0.4773224857E-01    0.5514438263E+00
    0.3900000000E+05    0.6293998394E+00    0.2217227929E-02    0.1292676654E+00    0.4774773006E-01    0.5516101423E+00
    0.4100000000E+05    0.6295310968E+00    0.2164537049E-02    0.1292443872E+00    0.4776190712E-01    0.5517643858E+00
    0.4300000000E+05    0.6296500053E+00    0.2115512930E-02    0.1292214168E+00    0.4777495202E-01    0.5519080090E+00
    0.4500000000E+05    0.6297582159E+00    0.2069746968E-02    0.1291987886E+00    0.4778700729E-01    0.5520422294E+00
    0.4700000000E+05    0.6298570984E+00    0.2026891746E-02    0.1291765249E+00    0.4779819196E-01    0.5521680759E+00
    0.4900000000E+05    0.6299477987E+00    0.1986649720E-02    0.1291546397E+00    0.4780860620E-01    0.5522864255E+00
    0.1000000000E+05    0.6215262869E+00    0.4264601115E-02    0.1293969335E+00    0.4703947653E-01    0.5453721769E+00
    0.3000000000E+05    0.6285899535E+00    0.2515254558E-02    0.1293742573E+00    0.4766426544E-01    0.5507376612E+00
    0.5000000000E+05    0.6299903884E+00    0.1967427089E-02    0.1291438414E+00    0.4781355148E-01    0.5523430282E+00
    0.7000000000E+05    0.6305831305E+00    0.1673121856E-02    0.1289476404E+00    0.4788718073E-01    0.5532184398E+00
    0.9000000000E+05    0.6309080864E+00    0.1482225420E-02    0.1287838081E+00    0.4793335474E-01    0.5538007903E+00
    0.1100000000E+06    0.6311120484E+00    0.1345467040E-02    0.1286443015E+00    0.4796606805E-01    0.5542295544E+00
    0.1300000000E+06    0.6312512673E+00    0.1241239441E-02    0.1285231233E+00    0.4799101293E-01    0.5545653100E+00
    0.1500000000E+06    0.6313518904E+00    0.1158367107E-02    0.1284161088E+00    0.4801098701E-01    0.5548393395E+00
    0.1700000000E+06    0.6314277041E+00    0.1090408943E-02    0.1283203242E+00    0.4802754523E-01    0.5550697217E+00
    0.1900000000E+06    0.6314866566E+00    0.1033355301E-02    0.1282336454E+00    0.4804163022E-01    0.5552677697E+00
    0.2100000000E+06    0.6315336475E+00    0.9845616028E-03    0.1281544927E+00    0.4805385164E-01    0.5554409954E+00
    0.2300000000E+06    0.6315718581E+00    0.9422032153E-03    0.1280816615E+00    0.4806462408E-01    0.5555946214E+00
    0.2500000000E+06    0.6316034424E+00    0.9049748799E-03    0.1280142140E+00    0.4807424096E-01    0.5557324143E+00
    0.2700000000E+06    0.6316299094E+00    0.8719147530E-03    0.1279514059E+00    0.4808291686E-01    0.5558571739E+00
    0.2900000000E+06    0.6316523469E+00    0.8422962515E-03    0.1278926373E+00    0.4809081301E-01    0.5559710335E+00
    0.3100000000E+06    0.6316715585E+00    0.8155588334E-03    0.1278374174E+00    0.4809805336E-01    0.5560756538E+00
    0.3300000000E+06    0.6316881499E+00    0.7912621571E-03    0.1277853397E+00    0.4810473510E-01    0.5561723508E+00
    0.3500000000E+06    0.6317025864E+00    0.7690548249E-03    0.1277360640E+00    0.4811093572E-01    0.5562621841E+00
    0.3700000000E+06    0.6317152310E+00    0.7486525233E-03    0.1276893024E+00    0.4811671794E-01    0.5563460185E+00
    0.3900000000E+06    0.6317263708E+00    0.7298223939E-03    0.1276448093E+00    0.4812213320E-01    0.5564245685E+00
    0.4100000000E+06    0.6317362359E+00    0.7123716380E-03    0.1276023735E+00    0.4812722414E-01    0.5564984307E+00
    0.4300000000E+06    0.6317450126E+00    0.6961390631E-03    0.1275618121E+00    0.4813202653E-01    0.5565681084E+00
    0.4500000000E+06    0.6317528533E+00    0.6809887132E-03    0.1275229655E+00    0.4813657060E-01    0.5566340293E+00
    0.4700000000E+06    0.6317598840E+00    0.6668050015E-03    0.1274856937E+00    0.4814088215E-01    0.5566965602E+00
    0.4900000000E+06    0.6317662095E+00    0.6534889444E-03    0.1274498733E+00    0.4814498335E-01    0.5567560178E+00
    0.1000000000E+06    0.6310206166E+00    0.1408782978E-02    0.1287114397E+00    0.4795093792E-01    0.5540295882E+00
    0.3000000000E+06    0.6316623142E+00    0.8285973235E-03    0.1278646109E+00    0.4809450856E-01    0.5560244095E+00
    0.5000000000E+06    0.6317691359E+00    0.6471291551E-03    0.1274324727E+00    0.4814696117E-01    0.5567846815E+00
    0.7000000000E+06    0.6318060324E+00    0.5498409200E-03    0.1271395930E+00    0.4817902216E-01    0.5572477870E+00
    0.9000000000E+06    0.6318216142E+00    0.4868244014E-03    0.1269175445E+00    0.4820208155E-01    0.5575780851E+00
    0.1100000000E+07    0.6318283984E+00    0.4417241945E-03    0.1267385605E+00    0.4822007653E-01    0.5578336194E+00
    0.1300000000E+07    0.6318309233E+00    0.4073777020E-03    0.1265885751E+00    0.4823482733E-01    0.5580414117E+00
    0.1500000000E+07    0.6318311791E+00    0.3800844887E-03    0.1264594644E+00    0.4824732334E-01    0.5582161707E+00
    0.1700000000E+07    0.6318301520E+00    0.3577137169E-03    0.1263461072E+00    0.4825816168E-01    0.5583667633E+00
    0.1900000000E+07    0.6318283742E+00    0.3389399128E-03    0.1262450650E+00    0.4826773021E-01    0.5584989354E+00
    0.2100000000E+07    0.6318261512E+00    0.3228894070E-03    0.1261539163E+00    0.4827629504E-01    0.5586166171E+00
    0.2300000000E+07    0.6318236662E+00    0.3089597342E-03    0.1260708916E+00    0.4828404660E-01    0.5587226120E+00
    0.2500000000E+07    0.6318210335E+00    0.2967201196E-03    0.1259946576E+00    0.4829112588E-01    0.5588189881E+00
    0.2700000000E+07    0.6318183256E+00    0.2858532553E-03    0.1259241851E+00    0.4829764013E-01    0.5589073136E+00
    0.2900000000E+07    0.6318155898E+00    0.2761195317E-03    0.1258586626E+00    0.4830367286E-01    0.5589888050E+00
    0.3100000000E+07    0.6318128571E+00    0.2673341545E-03    0.1257974391E+00    0.4830929034E-01    0.5590644247E+00
    0.3300000000E+07    0.6318101478E+00    0.2593519985E-03    0.1257399841E+00    0.4831454605E-01    0.5591349468E+00
    0.3500000000E+07    0.6318074753E+00    0.2520572819E-03    0.1256858600E+00    0.4831948375E-01    0.5592010029E+00
    0.3700000000E+07    0.6318048482E+00    0.2453563491E-03    0.1256347012E+00    0.4832413974E-01    0.5592631150E+00
    0.3900000000E+07    0.6318022719E+00    0.2391725108E-03    0.1255861991E+00    0.4832854443E-01    0.5593217195E+00
    0.4100000000E+07    0.6317997493E+00    0.2334422836E-03    0.1255400910E+00    0.4833272356E-01    0.5593771844E+00
    0.4300000000E+07    0.6317972822E+00    0.2281126010E-03    0.1254961516E+00    0.4833669910E-01    0.5594298235E+00
    0.4500000000E+07    0.6317948710E+00    0.2231387121E-03    0.1254541857E+00    0.4834048998E-01    0.5594799057E+00
    0.4700000000E+07    0.6317925154E+00    0.2184825770E-03    0.1254140236E+00    0.4834411259E-01    0.5595276639E+00
    0.4900000000E+07    0.6317902147E+00    0.2141116245E-03    0.1253755163E+00    0.4834758124E-01    0.5595733007E+00
    0.1000000000E+07    0.6318257315E+00    0.4625998083E-03    0.1268237414E+00    0.4821157057E-01    0.5577130985E+00
    0.3000000000E+07    0.6318142216E+00    0.2716181604E-03    0.1258275491E+00    0.4830652991E-01    0.5590272966E+00
    0.5000000000E+07    0.6317890845E+00    0.2120241652E-03    0.1253568417E+00    0.4834926181E-01    0.5595953799E+00
    0.7000000000E+07    0.6317690111E+00    0.1801010969E-03    0.1250452615E+00    0.4837716690E-01    0.5599590257E+00
    0.9000000000E+07    0.6317527435E+00    0.1594330461E-03    0.1248119659E+00    0.4839792549E-01    0.5602260825E+00
    0.1100000000E+08    0.6317391456E+00    0.1446456283E-03    0.1246254113E+00    0.4841446245E-01    0.5604368583E+00
    0.1300000000E+08    0.6317274862E+00    0.1333865883E-03    0.1244699619E+00    0.4842820859E-01    0.5606108090E+00
    0.1500000000E+08    0.6317172896E+00    0.1244411620E-03    0.1243367156E+00    0.4843997163E-01    0.5607588047E+00
    0.1700000000E+08    0.6317082329E+00    0.1171100564E-03    0.1242201183E+00    0.4845025254E-01    0.5608875317E+00
    0.1900000000E+08    0.6317000883E+00    0.1109583829E-03    0.1241164703E+00    0.4845938355E-01    0.5610013934E+00
    0.2100000000E+08    0.6316926895E+00    0.1056995447E-03    0.1240231827E+00    0.4846759634E-01    0.5611034422E+00
    0.2300000000E+08    0.6316859119E+00    0.1011359417E-03    0.1239383728E+00    0.4847505894E-01    0.5611958807E+00
    0.2500000000E+08    0.6316796593E+00    0.9712630477E-04    0.1238606288E+00    0.4848189708E-01    0.5612803495E+00
    0.2700000000E+08    0.6316738563E+00    0.9356658760E-04    0.1237888643E+00    0.4848820732E-01    0.5613581035E+00
