  Pressure (Pa) 22mC5-400 (mol/kg) 2mC6-400 (mol/kg) 3mC6-400 (mol/kg) 23mC5-400 (mol/kg) C7-400 (mol/kg)
    0.1000000000E+01    0.3691068685E-02    0.4729104529E-02    0.5240253847E-03    0.1851752305E-03    0.6802872571E-02
    0.3000000000E+01    0.1085140752E-01    0.1365617713E-01    0.1522176532E-02    0.5444062675E-03    0.1976365407E-01
    0.5000000000E+01    0.1773365610E-01    0.2193246970E-01    0.2459153459E-02    0.8896956801E-03    0.3193365060E-01
    0.7000000000E+01    0.2435720719E-01    0.2961944142E-01    0.3340676568E-02    0.1222015553E-02    0.4338670510E-01
    0.9000000000E+01    0.3073963757E-01    0.3677120473E-01    0.4171766926E-02    0.1542246952E-02    0.5418763963E-01
    0.1100000000E+02    0.3689691635E-01    0.4343558726E-01    0.4956850333E-02    0.1851190363E-02    0.6439359703E-01
    0.1300000000E+02    0.4284358524E-01    0.4965501446E-01    0.5699843310E-02    0.2149574726E-02    0.7405514978E-01
    0.1500000000E+02    0.4859291513E-01    0.5546724747E-01    0.6404224589E-02    0.2438065286E-02    0.8321722182E-01
    0.1700000000E+02    0.5415704251E-01    0.6090600317E-01    0.7073094868E-02    0.2717270427E-02    0.9191985913E-01
    0.1900000000E+02    0.5954708872E-01    0.6600147799E-01    0.7709227021E-02    0.2987747649E-02    0.1001988773E+00
    0.2100000000E+02    0.6477326449E-01    0.7078079229E-01    0.8315108505E-02    0.3250008811E-02    0.1080864086E+00
    0.2300000000E+02    0.6984496177E-01    0.7526836928E-01    0.8892977334E-02    0.3504524726E-02    0.1156113656E+00
    0.2500000000E+02    0.7477083468E-01    0.7948625923E-01    0.9444852735E-02    0.3751729230E-02    0.1227998371E+00
    0.2700000000E+02    0.7955887112E-01    0.8345441824E-01    0.9972561385E-02    0.3992022759E-02    0.1296754263E+00
    0.2900000000E+02    0.8421645609E-01    0.8719094856E-01    0.1047775996E-01    0.4225775530E-02    0.1362595419E+00
    0.3100000000E+02    0.8875042796E-01    0.9071230677E-01    0.1096195455E-01    0.4453330359E-02    0.1425716483E+00
    0.3300000000E+02    0.9316712858E-01    0.9403348452E-01    0.1142651751E-01    0.4675005175E-02    0.1486294835E+00
    0.3500000000E+02    0.9747244792E-01    0.9716816611E-01    0.1187270209E-01    0.4891095253E-02    0.1544492470E+00
    0.3700000000E+02    0.1016718640E+00    0.1001288662E+00    0.1230165509E-01    0.5101875220E-02    0.1600457644E+00
    0.3900000000E+02    0.1057704786E+00    0.1029270505E+00    0.1271442810E-01    0.5307600844E-02    0.1654326310E+00
    0.4100000000E+02    0.1097730496E+00    0.1055732421E+00    0.1311198716E-01    0.5508510646E-02    0.1706223379E+00
    0.4300000000E+02    0.1136840194E+00    0.1080771148E+00    0.1349522140E-01    0.5704827343E-02    0.1756263824E+00
    0.4500000000E+02    0.1175075412E+00    0.1104475760E+00    0.1386495058E-01    0.5896759152E-02    0.1804553658E+00
    0.4700000000E+02    0.1212475026E+00    0.1126928400E+00    0.1422193178E-01    0.6084500968E-02    0.1851190797E+00
    0.4900000000E+02    0.1249075464E+00    0.1148204930E+00    0.1456686531E-01    0.6268235424E-02    0.1896265826E+00
    0.1000000000E+02    0.3384548054E-01    0.4016154966E-01    0.4569803681E-02    0.1698082518E-02    0.5936168732E-01
    0.3000000000E+02    0.8649848621E-01    0.8897755482E-01    0.1072239402E-01    0.4340307261E-02    0.1394484495E+00
    0.5000000000E+02    0.1267086755E+00    0.1158424287E+00    0.1473501884E-01    0.6358653851E-02    0.1918244020E+00
    0.7000000000E+02    0.1592628615E+00    0.1315567080E+00    0.1760028736E-01    0.7993098238E-02    0.2293224950E+00
    0.9000000000E+02    0.1866716367E+00    0.1409889311E+00    0.1977312097E-01    0.9369510958E-02    0.2578297475E+00
    0.1100000000E+03    0.2103894738E+00    0.1466255689E+00    0.2149272677E-01    0.1056081670E-01    0.2804444784E+00
    0.1300000000E+03    0.2313244741E+00    0.1498526816E+00    0.2289757344E-01    0.1161254778E-01    0.2989617708E+00
    0.1500000000E+03    0.2500778920E+00    0.1514946449E+00    0.2407373488E-01    0.1255485214E-01    0.3144984267E+00
    0.1700000000E+03    0.2670671922E+00    0.1520667719E+00    0.2507774212E-01    0.1340866270E-01    0.3277885476E+00
    0.1900000000E+03    0.2825938718E+00    0.1519040396E+00    0.2594838578E-01    0.1418909776E-01    0.3393362769E+00
    0.2100000000E+03    0.2968830279E+00    0.1512311216E+00    0.2671325105E-01    0.1490744485E-01    0.3495004172E+00
    0.2300000000E+03    0.3101075535E+00    0.1502025698E+00    0.2739254540E-01    0.1557237390E-01    0.3585440185E+00
    0.2500000000E+03    0.3224035319E+00    0.1489269022E+00    0.2800144712E-01    0.1619070911E-01    0.3666648200E+00
    0.2700000000E+03    0.3338803689E+00    0.1474815882E+00    0.2855160379E-01    0.1676793701E-01    0.3740146811E+00
    0.2900000000E+03    0.3446276621E+00    0.1459226690E+00    0.2905212056E-01    0.1730855091E-01    0.3807124045E+00
    0.3100000000E+03    0.3547199793E+00    0.1442911042E+00    0.2951023112E-01    0.1781629045E-01    0.3868524457E+00
    0.3300000000E+03    0.3642202606E+00    0.1426170584E+00    0.2993176470E-01    0.1829431228E-01    0.3925109780E+00
    0.3500000000E+03    0.3731822907E+00    0.1409228569E+00    0.3032147842E-01    0.1874531393E-01    0.3977502104E+00
    0.3700000000E+03    0.3816525301E+00    0.1392250607E+00    0.3068329843E-01    0.1917162571E-01    0.4026215227E+00
    0.3900000000E+03    0.3896714947E+00    0.1375359478E+00    0.3102049801E-01    0.1957527985E-01    0.4071677816E+00
    0.4100000000E+03    0.3972748114E+00    0.1358645845E+00    0.3133583117E-01    0.1995806342E-01    0.4114250786E+00
    0.4300000000E+03    0.4044940381E+00    0.1342176109E+00    0.3163163426E-01    0.2032155948E-01    0.4154240534E+00
    0.4500000000E+03    0.4113573092E+00    0.1325998233E+00    0.3190990437E-01    0.2066717939E-01    0.4191909138E+00
    0.4700000000E+03    0.4178898498E+00    0.1310146096E+00    0.3217236032E-01    0.2099618866E-01    0.4227482321E+00
    0.4900000000E+03    0.4241143906E+00    0.1294642790E+00    0.3242049092E-01    0.2130972771E-01    0.4261155720E+00
    0.1000000000E+03    0.1989259622E+00    0.1441776105E+00    0.2067930851E-01    0.9984994976E-02    0.2697405897E+00
    0.3000000000E+03    0.3497515191E+00    0.1451138688E+00    0.2928608380E-01    0.1756632066E-01    0.3838470036E+00
    0.5000000000E+03    0.4271176670E+00    0.1287026842E+00    0.3253959614E-01    0.2146102233E-01    0.4277334164E+00
    0.7000000000E+03    0.4751262921E+00    0.1153999726E+00    0.3441159913E-01    0.2388111970E-01    0.4533022595E+00
    0.9000000000E+03    0.5074252245E+00    0.1052744071E+00    0.3567708941E-01    0.2551152254E-01    0.4707633654E+00
    0.1100000000E+04    0.5303606539E+00    0.9743291441E-01    0.3660999362E-01    0.2667089574E-01    0.4837482371E+00
    0.1300000000E+04    0.5473304003E+00    0.9119333990E-01    0.3733617495E-01    0.2752994991E-01    0.4939343862E+00
    0.1500000000E+04    0.5603049447E+00    0.8609917686E-01    0.3792302271E-01    0.2818773633E-01    0.5022241959E+00
    0.1700000000E+04    0.5704947042E+00    0.8184666686E-01    0.3841046221E-01    0.2870513062E-01    0.5091545448E+00
    0.1900000000E+04    0.5786780339E+00    0.7822951008E-01    0.3882392059E-01    0.2912129829E-01    0.5150686718E+00
    0.2100000000E+04    0.5853748374E+00    0.7510387013E-01    0.3918049572E-01    0.2946241299E-01    0.5201982034E+00
    0.2300000000E+04    0.5909437638E+00    0.7236679581E-01    0.3949218257E-01    0.2974653928E-01    0.5247061784E+00
    0.2500000000E+04    0.5956391805E+00    0.6994277794E-01    0.3976768755E-01    0.2998649562E-01    0.5287113078E+00
    0.2700000000E+04    0.5996458953E+00    0.6777519487E-01    0.4001350922E-01    0.3019159980E-01    0.5323024627E+00
    0.2900000000E+04    0.6031010451E+00    0.6582073637E-01    0.4023461293E-01    0.3036876960E-01    0.5355477387E+00
    0.3100000000E+04    0.6061083078E+00    0.6404568062E-01    0.4043486863E-01    0.3052323768E-01    0.5385003525E+00
    0.3300000000E+04    0.6087473752E+00    0.6242335129E-01    0.4061734442E-01    0.3065902818E-01    0.5412026043E+00
    0.3500000000E+04    0.6110804161E+00    0.6093234327E-01    0.4078450914E-01    0.3077928201E-01    0.5436886164E+00
    0.3700000000E+04    0.6131565787E+00    0.5955526036E-01    0.4093837539E-01    0.3088648359E-01    0.5459862731E+00
    0.3900000000E+04    0.6150151872E+00    0.5827780093E-01    0.4108060294E-01    0.3098262176E-01    0.5481186234E+00
    0.4100000000E+04    0.6166880497E+00    0.5708808453E-01    0.4121257467E-01    0.3106930614E-01    0.5501049148E+00
    0.4300000000E+04    0.6182011519E+00    0.5597614860E-01    0.4133545347E-01    0.3114785237E-01    0.5519613681E+00
    0.4500000000E+04    0.6195759154E+00    0.5493356694E-01    0.4145022539E-01    0.3121934564E-01    0.5537017667E+00
    0.4700000000E+04    0.6208301473E+00    0.5395315679E-01    0.4155773286E-01    0.3128468851E-01    0.5553379111E+00
    0.4900000000E+04    0.6219787636E+00    0.5302875133E-01    0.4165870058E-01    0.3134463743E-01    0.5568799728E+00
    0.1000000000E+04    0.5198059901E+00    0.1011169260E+00    0.3617529333E-01    0.2613715844E-01    0.4776846092E+00
    0.3000000000E+04    0.6046552068E+00    0.6491259176E-01    0.4033713896E-01    0.3044856592E-01    0.5370577656E+00
    0.5000000000E+04    0.6225174766E+00    0.5258585629E-01    0.4170693142E-01    0.3137279266E-01    0.5576185261E+00
    0.7000000000E+04    0.6299674806E+00    0.4568647176E-01    0.4244400901E-01    0.3176550663E-01    0.5690845947E+00
    0.9000000000E+04    0.6340134075E+00    0.4107532151E-01    0.4291813372E-01    0.3198280771E-01    0.5766828228E+00
    0.1100000000E+05    0.6365440497E+00    0.3769556535E-01    0.4325379206E-01    0.3212128227E-01    0.5822051533E+00
    0.1300000000E+05    0.6382727892E+00    0.3507284430E-01    0.4350621893E-01    0.3221764264E-01    0.5864586430E+00
    0.1500000000E+05    0.6395271093E+00    0.3295667304E-01    0.4370414143E-01    0.3228884948E-01    0.5898685630E+00
    0.1700000000E+05    0.6404779748E+00    0.3120002887E-01    0.4386415309E-01    0.3234381382E-01    0.5926834834E+00
    0.1900000000E+05    0.6412232002E+00    0.2970991604E-01    0.4399658519E-01    0.3238766659E-01    0.5950598636E+00
    0.2100000000E+05    0.6418227303E+00    0.2842413141E-01    0.4410824394E-01    0.3242357235E-01    0.5971018321E+00
    0.2300000000E+05    0.6423153217E+00    0.2729922091E-01    0.4420381565E-01    0.3245359018E-01    0.5988817772E+00
    0.2500000000E+05    0.6427271315E+00    0.2630375324E-01    0.4428664374E-01    0.3247911863E-01    0.6004518161E+00
    0.2700000000E+05    0.6430764450E+00    0.2541433541E-01    0.4435918428E-01    0.3250114158E-01    0.6018505688E+00
    0.2900000000E+05    0.6433764265E+00    0.2461313704E-01    0.4442328619E-01    0.3252037187E-01    0.6031073523E+00
    0.3100000000E+05    0.6436367920E+00    0.2388628998E-01    0.4448037060E-01    0.3253733892E-01    0.6042448821E+00
    0.3300000000E+05    0.6438648681E+00    0.2322281871E-01    0.4453154959E-01    0.3255244447E-01    0.6052810725E+00
    0.3500000000E+05    0.6440662825E+00    0.2261390481E-01    0.4457770702E-01    0.3256599906E-01    0.6062302692E+00
    0.3700000000E+05    0.6442454294E+00    0.2205236851E-01    0.4461955511E-01    0.3257824666E-01    0.6071041167E+00
    0.3900000000E+05    0.6444057894E+00    0.2153229525E-01    0.4465767471E-01    0.3258938171E-01    0.6079121795E+00
    0.4100000000E+05    0.6445501549E+00    0.2104876162E-01    0.4469254472E-01    0.3259956118E-01    0.6086623984E+00
    0.4300000000E+05    0.6446807918E+00    0.2059763063E-01    0.4472456380E-01    0.3260891325E-01    0.6093614286E+00
    0.4500000000E+05    0.6447995584E+00    0.2017539667E-01    0.4475406677E-01    0.3261754366E-01    0.6100148964E+00
    0.4700000000E+05    0.6449079925E+00    0.1977906628E-01    0.4478133703E-01    0.3262554044E-01    0.6106275955E+00
    0.4900000000E+05    0.6450073779E+00    0.1940606545E-01    0.4480661622E-01    0.3263297755E-01    0.6112036390E+00
    0.1000000000E+05    0.6354099146E+00    0.3926870401E-01    0.4309892401E-01    0.3205890685E-01    0.5796401969E+00
    0.3000000000E+05    0.6435110568E+00    0.2424116346E-01    0.4445262993E-01    0.3252911070E-01    0.6036898084E+00
    0.5000000000E+05    0.6450540216E+00    0.1922760565E-01    0.4481857515E-01    0.3263650617E-01    0.6114790443E+00
    0.7000000000E+05    0.6457018602E+00    0.1647217495E-01    0.4499093784E-01    0.3268882850E-01    0.6157160969E+00
    0.9000000000E+05    0.6460565020E+00    0.1466165118E-01    0.4508956252E-01    0.3272145272E-01    0.6184867017E+00
    0.1100000000E+06    0.6462793628E+00    0.1335333980E-01    0.4515194392E-01    0.3274449105E-01    0.6204838742E+00
    0.1300000000E+06    0.6464318782E+00    0.1234993830E-01    0.4519381110E-01    0.3276202239E-01    0.6220137750E+00
    0.1500000000E+06    0.6465424961E+00    0.1154824264E-01    0.4522296609E-01    0.3277604077E-01    0.6232355941E+00
    0.1700000000E+06    0.6466261823E+00    0.1088826346E-01    0.4524372947E-01    0.3278765037E-01    0.6242414647E+00
    0.1900000000E+06    0.6466915542E+00    0.1033240561E-01    0.4525868898E-01    0.3279751877E-01    0.6250889397E+00
    0.2100000000E+06    0.6467439202E+00    0.9855736998E-02    0.4526948844E-01    0.3280607684E-01    0.6258160915E+00
    0.2300000000E+06    0.6467867267E+00    0.9440976641E-02    0.4527722102E-01    0.3281361708E-01    0.6264492572E+00
    0.2500000000E+06    0.6468223074E+00    0.9075714091E-02    0.4528264088E-01    0.3282034626E-01    0.6270073219E+00
    0.2700000000E+06    0.6468522980E+00    0.8750773046E-02    0.4528628420E-01    0.3282641542E-01    0.6275042319E+00
    0.2900000000E+06    0.6468778783E+00    0.8459201015E-02    0.4528854186E-01    0.3283193793E-01    0.6279505433E+00
    0.3100000000E+06    0.6468999204E+00    0.8195620137E-02    0.4528970494E-01    0.3283700090E-01    0.6283544149E+00
    0.3300000000E+06    0.6469190824E+00    0.7955795774E-02    0.4528999417E-01    0.3284167257E-01    0.6287222671E+00
    0.3500000000E+06    0.6469358704E+00    0.7736341431E-02    0.4528957955E-01    0.3284600735E-01    0.6290592318E+00
    0.3700000000E+06    0.6469506794E+00    0.7534511819E-02    0.4528859387E-01    0.3285004923E-01    0.6293694675E+00
    0.3900000000E+06    0.6469638226E+00    0.7348054518E-02    0.4528714207E-01    0.3285383428E-01    0.6296563851E+00
    0.4100000000E+06    0.6469755509E+00    0.7175101581E-02    0.4528530799E-01    0.3285739239E-01    0.6299228128E+00
    0.4300000000E+06    0.6469860679E+00    0.7014088946E-02    0.4528315921E-01    0.3286074863E-01    0.6301711183E+00
    0.4500000000E+06    0.6469955406E+00    0.6863695596E-02    0.4528075072E-01    0.3286392418E-01    0.6304033010E+00
    0.4700000000E+06    0.6470041070E+00    0.6722796990E-02    0.4527812755E-01    0.3286693710E-01    0.6306210631E+00
    0.4900000000E+06    0.6470118820E+00    0.6590428963E-02    0.4527532686E-01    0.3286980292E-01    0.6308258639E+00
    0.1000000000E+06    0.6461794024E+00    0.1396022431E-01    0.4512402873E-01    0.3273384278E-01    0.6195578614E+00
    0.3000000000E+06    0.6468892963E+00    0.8324199161E-02    0.4528924505E-01    0.3283452222E-01    0.6281573481E+00
    0.5000000000E+06    0.6470155037E+00    0.6527179378E-02    0.4527386979E-01    0.3287118494E-01    0.6309238042E+00
    0.7000000000E+06    0.6470633629E+00    0.5557205425E-02    0.4524066723E-01    0.3289358573E-01    0.6324335305E+00
    0.9000000000E+06    0.6470865290E+00    0.4926525403E-02    0.4520591193E-01    0.3290969603E-01    0.6334252343E+00
    0.1100000000E+07    0.6470990964E+00    0.4474015879E-02    0.4517280188E-01    0.3292226822E-01    0.6341434783E+00
    0.1300000000E+07    0.6471062897E+00    0.4128775009E-02    0.4514196699E-01    0.3293257419E-01    0.6346962219E+00
    0.1500000000E+07    0.6471104578E+00    0.3854049838E-02    0.4511338435E-01    0.3294130515E-01    0.6351396187E+00
    0.1700000000E+07    0.6471127970E+00    0.3628623602E-02    0.4508685982E-01    0.3294887820E-01    0.6355061977E+00
    0.1900000000E+07    0.6471139730E+00    0.3439272474E-02    0.4506216922E-01    0.3295556426E-01    0.6358163025E+00
    0.2100000000E+07    0.6471143811E+00    0.3277266125E-02    0.4503910137E-01    0.3296154919E-01    0.6360834091E+00
    0.2300000000E+07    0.6471142684E+00    0.3136576215E-02    0.4501746957E-01    0.3296696602E-01    0.6363168530E+00
    0.2500000000E+07    0.6471137951E+00    0.3012887446E-02    0.4499711252E-01    0.3297191321E-01    0.6365233383E+00
    0.2700000000E+07    0.6471130692E+00    0.2903018047E-02    0.4497789198E-01    0.3297646568E-01    0.6367078233E+00
    0.2900000000E+07    0.6471121648E+00    0.2804563288E-02    0.4495968950E-01    0.3298068176E-01    0.6368740666E+00
    0.3100000000E+07    0.6471111341E+00    0.2715667156E-02    0.4494240337E-01    0.3298460773E-01    0.6370249776E+00
    0.3300000000E+07    0.6471100147E+00    0.2634871069E-02    0.4492594583E-01    0.3298828096E-01    0.6371628494E+00
    0.3500000000E+07    0.6471088337E+00    0.2561010657E-02    0.4491024087E-01    0.3299173201E-01    0.6372895174E+00
    0.3700000000E+07    0.6471076113E+00    0.2493143537E-02    0.4489522226E-01    0.3299498624E-01    0.6374064712E+00
    0.3900000000E+07    0.6471063624E+00    0.2430497661E-02    0.4488083202E-01    0.3299806489E-01    0.6375149343E+00
    0.4100000000E+07    0.6471050981E+00    0.2372433633E-02    0.4486701916E-01    0.3300098594E-01    0.6376159227E+00
    0.4300000000E+07    0.6471038270E+00    0.2318416748E-02    0.4485373859E-01    0.3300376474E-01    0.6377102881E+00
    0.4500000000E+07    0.6471025553E+00    0.2267995916E-02    0.4484095030E-01    0.3300641452E-01    0.6377987508E+00
    0.4700000000E+07    0.6471012879E+00    0.2220787553E-02    0.4482861861E-01    0.3300894672E-01    0.6378819248E+00
    0.4900000000E+07    0.6471000285E+00    0.2176463113E-02    0.4481671155E-01    0.3301137133E-01    0.6379603371E+00
    0.1000000000E+07    0.6470937090E+00    0.4683586897E-02    0.4518908628E-01    0.3291632549E-01    0.6338100387E+00
    0.3000000000E+07    0.6471116626E+00    0.2759019476E-02    0.4495093768E-01    0.3298267849E-01    0.6369512830E+00
    0.5000000000E+07    0.6470994026E+00    0.2155292296E-02    0.4481090818E-01    0.3301254608E-01    0.6379979024E+00
    0.7000000000E+07    0.6470876859E+00    0.1831331314E-02    0.4471148555E-01    0.3303205350E-01    0.6385831131E+00
    0.9000000000E+07    0.6470776198E+00    0.1621397166E-02    0.4463416053E-01    0.3304656657E-01    0.6389750193E+00
    0.1100000000E+08    0.6470689562E+00    0.1471109673E-02    0.4457078275E-01    0.3305812906E-01    0.6392635091E+00
    0.1300000000E+08    0.6470613959E+00    0.1356637318E-02    0.4451703158E-01    0.3306774083E-01    0.6394886842E+00
    0.1500000000E+08    0.6470547059E+00    0.1265662254E-02    0.4447033530E-01    0.3307596637E-01    0.6396715967E+00
    0.1700000000E+08    0.6470487133E+00    0.1191089080E-02    0.4442903673E-01    0.3308315581E-01    0.6398245432E+00
    0.1900000000E+08    0.6470432899E+00    0.1128503039E-02    0.4439200424E-01    0.3308954137E-01    0.6399552726E+00
    0.2100000000E+08    0.6470383386E+00    0.1074993630E-02    0.4435843012E-01    0.3309528498E-01    0.6400689536E+00
    0.2300000000E+08    0.6470337849E+00    0.1028553515E-02    0.4432771734E-01    0.3310050410E-01    0.6401691903E+00
    0.2500000000E+08    0.6470295701E+00    0.9877472224E-03    0.4429941195E-01    0.3310528663E-01    0.6402585865E+00
    0.2700000000E+08    0.6470256477E+00    0.9515172749E-03    0.4427316059E-01    0.3310970005E-01    0.6403390791E+00
