  Pressure (Pa) 22mC5-400 (mol/kg) 2mC6-400 (mol/kg) 3mC6-400 (mol/kg) 23mC5-400 (mol/kg) C7-400 (mol/kg)
    0.1000000000E+01    0.3701385610E-02    0.1588010738E-02    0.3167641144E-02    0.3713851934E-03    0.1713368298E-02
    0.3000000000E+01    0.1093997244E-01    0.4650979065E-02    0.9333511808E-02    0.1097695241E-02    0.5048877550E-02
    0.5000000000E+01    0.1796853101E-01    0.7570605366E-02    0.1528369166E-01    0.1802948681E-02    0.8268230550E-02
    0.7000000000E+01    0.2479711414E-01    0.1035519766E-01    0.2102964613E-01    0.2488153162E-02    0.1137759291E-01
    0.9000000000E+01    0.3143512938E-01    0.1301246743E-01    0.2658203635E-01    0.3154251661E-02    0.1438269805E-01
    0.1100000000E+02    0.3789138978E-01    0.1554958101E-01    0.3195078859E-01    0.3802127572E-02    0.1728888449E-01
    0.1300000000E+02    0.4417415994E-01    0.1797320579E-01    0.3714515670E-01    0.4432609322E-02    0.2010112938E-01
    0.1500000000E+02    0.5029119793E-01    0.2028955186E-01    0.4217377816E-01    0.5046474566E-02    0.2282407864E-01
    0.1700000000E+02    0.5624979336E-01    0.2250440964E-01    0.4704472473E-01    0.5644454011E-02    0.2546207410E-01
    0.1900000000E+02    0.6205680218E-01    0.2462318381E-01    0.5176554811E-01    0.6227234897E-02    0.2801917809E-01
    0.2100000000E+02    0.6771867842E-01    0.2665092416E-01    0.5634332127E-01    0.6795464179E-02    0.3049919564E-01
    0.2300000000E+02    0.7324150314E-01    0.2859235349E-01    0.6078467590E-01    0.7349751434E-02    0.3290569456E-01
    0.2500000000E+02    0.7863101103E-01    0.3045189296E-01    0.6509583638E-01    0.7890671519E-02    0.3524202371E-01
    0.2700000000E+02    0.8389261472E-01    0.3223368516E-01    0.6928265066E-01    0.8418767010E-02    0.3751132960E-01
    0.2900000000E+02    0.8903142707E-01    0.3394161516E-01    0.7335061839E-01    0.8934550439E-02    0.3971657151E-01
    0.3100000000E+02    0.9405228168E-01    0.3557932961E-01    0.7730491655E-01    0.9438506347E-02    0.4186053523E-01
    0.3300000000E+02    0.9895975177E-01    0.3715025432E-01    0.8115042283E-01    0.9931093175E-02    0.4394584563E-01
    0.3500000000E+02    0.1037581675E+00    0.3865761019E-01    0.8489173703E-01    0.1041274500E-01    0.4597497820E-01
    0.3700000000E+02    0.1084516319E+00    0.4010442795E-01    0.8853320062E-01    0.1088387314E-01    0.4795026950E-01
    0.3900000000E+02    0.1130440357E+00    0.4149356149E-01    0.9207891472E-01    0.1134486763E-01    0.4987392688E-01
    0.4100000000E+02    0.1175390711E+00    0.4282770029E-01    0.9553275651E-01    0.1179609859E-01    0.5174803725E-01
    0.4300000000E+02    0.1219402439E+00    0.4410938068E-01    0.9889839442E-01    0.1223791749E-01    0.5357457527E-01
    0.4500000000E+02    0.1262508856E+00    0.4534099628E-01    0.1021793020E+00    0.1267065829E-01    0.5535541080E-01
    0.4700000000E+02    0.1304741642E+00    0.4652480758E-01    0.1053787708E+00    0.1309463859E-01    0.5709231581E-01
    0.4900000000E+02    0.1346130936E+00    0.4766295082E-01    0.1084999220E+00    0.1351016053E-01    0.5878697070E-01
    0.1000000000E+02    0.3468545005E-01    0.1429561584E-01    0.2928877378E-01    0.3480414426E-02    0.1584783693E-01
    0.3000000000E+02    0.9155630737E-01    0.3476903023E-01    0.7534166456E-01    0.9187977590E-02    0.4079604546E-01
    0.5000000000E+02    0.1366518296E+00    0.4821553253E-01    0.1100320601E+00    0.1371484007E-01    0.5961895590E-01
    0.7000000000E+02    0.1736275650E+00    0.5730601045E-01    0.1372081958E+00    0.1742746023E-01    0.7438786086E-01
    0.9000000000E+02    0.2047200001E+00    0.6356471428E-01    0.1591453219E+00    0.2055005310E-01    0.8632806268E-01
    0.1100000000E+03    0.2313787502E+00    0.6791408295E-01    0.1772767649E+00    0.2322795534E-01    0.9621186639E-01
    0.1300000000E+03    0.2545886712E+00    0.7093868825E-01    0.1925515510E+00    0.2555991247E-01    0.1045508928E+00
    0.1500000000E+03    0.2750455372E+00    0.7302297870E-01    0.2056237794E+00    0.2761568902E-01    0.1116979488E+00
    0.1700000000E+03    0.2932573528E+00    0.7442758339E-01    0.2169594357E+00    0.2944622455E-01    0.1179045054E+00
    0.1900000000E+03    0.3096055732E+00    0.7533370264E-01    0.2268998274E+00    0.3108977095E-01    0.1233548436E+00
    0.2100000000E+03    0.3243836027E+00    0.7587001163E-01    0.2357009102E+00    0.3257575198E-01    0.1281872301E+00
    0.2300000000E+03    0.3378218540E+00    0.7612954140E-01    0.2435585716E+00    0.3392727552E-01    0.1325075359E+00
    0.2500000000E+03    0.3501045593E+00    0.7618059083E-01    0.2506254024E+00    0.3516281910E-01    0.1363982724E+00
    0.2700000000E+03    0.3613813545E+00    0.7607396435E-01    0.2570221258E+00    0.3629739122E-01    0.1399247511E+00
    0.2900000000E+03    0.3717754534E+00    0.7584788179E-01    0.2628455741E+00    0.3734335096E-01    0.1431393846E+00
    0.3100000000E+03    0.3813895416E+00    0.7553137567E-01    0.2681743741E+00    0.3831099893E-01    0.1460847516E+00
    0.3300000000E+03    0.3903101082E+00    0.7514668339E-01    0.2730730746E+00    0.3920901155E-01    0.1487958246E+00
    0.3500000000E+03    0.3986106869E+00    0.7471095818E-01    0.2775951944E+00    0.4004476604E-01    0.1513016139E+00
    0.3700000000E+03    0.4063543192E+00    0.7423750998E-01    0.2817855076E+00    0.4082458738E-01    0.1536264012E+00
    0.3900000000E+03    0.4135954538E+00    0.7373671676E-01    0.2856817793E+00    0.4155393881E-01    0.1557906772E+00
    0.4100000000E+03    0.4203814317E+00    0.7321670135E-01    0.2893161020E+00    0.4223757069E-01    0.1578118629E+00
    0.4300000000E+03    0.4267536606E+00    0.7268383937E-01    0.2927159353E+00    0.4287963829E-01    0.1597048712E+00
    0.4500000000E+03    0.4327485546E+00    0.7214314387E-01    0.2959049231E+00    0.4348379600E-01    0.1614825491E+00
    0.4700000000E+03    0.4383982935E+00    0.7159855915E-01    0.2989035434E+00    0.4405327349E-01    0.1631560285E+00
    0.4900000000E+03    0.4437314421E+00    0.7105318689E-01    0.3017296279E+00    0.4459093782E-01    0.1647350072E+00
    0.1000000000E+03    0.2185336801E+00    0.6593562918E-01    0.1686188489E+00    0.2193758165E-01    0.9149041277E-01
    0.3000000000E+03    0.3766742561E+00    0.7569940535E-01    0.2655674810E+00    0.3783638783E-01    0.1446433840E+00
    0.5000000000E+03    0.4462873605E+00    0.7078098826E-01    0.3030829232E+00    0.4484864962E-01    0.1654917542E+00
    0.7000000000E+03    0.4857154347E+00    0.6565995847E-01    0.3240191575E+00    0.4882768726E-01    0.1772602163E+00
    0.9000000000E+03    0.5109125816E+00    0.6138129341E-01    0.3377355980E+00    0.5137529316E-01    0.1850484881E+00
    0.1100000000E+04    0.5282990957E+00    0.5785936633E-01    0.3475757509E+00    0.5313651073E-01    0.1906869802E+00
    0.1300000000E+04    0.5409649331E+00    0.5492129374E-01    0.3550603051E+00    0.5442199220E-01    0.1950118143E+00
    0.1500000000E+04    0.5505743437E+00    0.5242791773E-01    0.3609906098E+00    0.5539916337E-01    0.1984653875E+00
    0.1700000000E+04    0.5580988247E+00    0.5027799672E-01    0.3658333546E+00    0.5616582092E-01    0.2013063315E+00
    0.1900000000E+04    0.5641414113E+00    0.4839850340E-01    0.3698807960E+00    0.5678270880E-01    0.2036972010E+00
    0.2100000000E+04    0.5690951216E+00    0.4673603492E-01    0.3733263431E+00    0.5728944118E-01    0.2057459462E+00
    0.2300000000E+04    0.5732264796E+00    0.4525077873E-01    0.3763036727E+00    0.5771289956E-01    0.2075274272E+00
    0.2500000000E+04    0.5767222994E+00    0.4391246177E-01    0.3789084768E+00    0.5807193806E-01    0.2090954046E+00
    0.2700000000E+04    0.5797172317E+00    0.4269763330E-01    0.3812112687E+00    0.5838015503E-01    0.2104896160E+00
    0.2900000000E+04    0.5823106774E+00    0.4158781791E-01    0.3832652861E+00    0.5864759549E-01    0.2117401537E+00
    0.3100000000E+04    0.5845775501E+00    0.4056823718E-01    0.3851115644E+00    0.5888183483E-01    0.2128702796E+00
    0.3300000000E+04    0.5865753397E+00    0.3962690805E-01    0.3867823023E+00    0.5908869032E-01    0.2138982978E+00
    0.3500000000E+04    0.5883488740E+00    0.3875399501E-01    0.3883031604E+00    0.5927270099E-01    0.2148388358E+00
    0.3700000000E+04    0.5899336060E+00    0.3794133657E-01    0.3896948698E+00    0.5943745900E-01    0.2157037426E+00
    0.3900000000E+04    0.5913579318E+00    0.3718209338E-01    0.3909743832E+00    0.5958584340E-01    0.2165027323E+00
    0.4100000000E+04    0.5926448555E+00    0.3647048291E-01    0.3921557131E+00    0.5972018810E-01    0.2172438553E+00
    0.4300000000E+04    0.5938132053E+00    0.3580157660E-01    0.3932505554E+00    0.5984240463E-01    0.2179338470E+00
    0.4500000000E+04    0.5948785369E+00    0.3517114285E-01    0.3942687572E+00    0.5995407331E-01    0.2185783925E+00
    0.4700000000E+04    0.5958538112E+00    0.3457552407E-01    0.3952186757E+00    0.6005651179E-01    0.2191823278E+00
    0.4900000000E+04    0.5967499126E+00    0.3401153935E-01    0.3961074547E+00    0.6015082730E-01    0.2197497963E+00
    0.1000000000E+04    0.5203422454E+00    0.5953700947E-01    0.3430210562E+00    0.5233008408E-01    0.1880710176E+00
    0.3000000000E+04    0.5834809984E+00    0.4106755407E-01    0.3842122041E+00    0.5876846702E-01    0.2123190252E+00
    0.5000000000E+04    0.5971712068E+00    0.3374052660E-01    0.3965308719E+00    0.6019523753E-01    0.2200209917E+00
    0.7000000000E+04    0.6030731249E+00    0.2945857959E-01    0.4029126120E+00    0.6082339044E-01    0.2241860568E+00
    0.9000000000E+04    0.6063487778E+00    0.2654451942E-01    0.4069347638E+00    0.6117928862E-01    0.2269059069E+00
    0.1100000000E+05    0.6084283641E+00    0.2438892366E-01    0.4097479941E+00    0.6140986520E-01    0.2288680000E+00
    0.1300000000E+05    0.6098642192E+00    0.2270739701E-01    0.4118480778E+00    0.6157227896E-01    0.2303739195E+00
    0.1500000000E+05    0.6109143161E+00    0.2134629978E-01    0.4134874975E+00    0.6169341803E-01    0.2315797138E+00
    0.1700000000E+05    0.6117151808E+00    0.2021412996E-01    0.4148097866E+00    0.6178761341E-01    0.2325753829E+00
    0.1900000000E+05    0.6123457881E+00    0.1925243632E-01    0.4159031971E+00    0.6186321339E-01    0.2334170041E+00
    0.2100000000E+05    0.6128549758E+00    0.1842184823E-01    0.4168252832E+00    0.6192541663E-01    0.2341416052E+00
    0.2300000000E+05    0.6132745585E+00    0.1769472147E-01    0.4176153457E+00    0.6197763327E-01    0.2347747670E+00
    0.2500000000E+05    0.6136261450E+00    0.1705098383E-01    0.4183012298E+00    0.6202219553E-01    0.2353348157E+00
    0.2700000000E+05    0.6139249239E+00    0.1647565271E-01    0.4189032720E+00    0.6206075394E-01    0.2358352770E+00
    0.2900000000E+05    0.6141818813E+00    0.1595728219E-01    0.4194367063E+00    0.6209451054E-01    0.2362863853E+00
    0.3100000000E+05    0.6144051592E+00    0.1548695389E-01    0.4199131927E+00    0.6212436220E-01    0.2366960501E+00
    0.3300000000E+05    0.6146009191E+00    0.1505759956E-01    0.4203418229E+00    0.6215099222E-01    0.2370704960E+00
    0.3500000000E+05    0.6147739089E+00    0.1466353358E-01    0.4207298006E+00    0.6217493072E-01    0.2374146996E+00
    0.3700000000E+05    0.6149278464E+00    0.1430012255E-01    0.4210829151E+00    0.6219659552E-01    0.2377326950E+00
    0.3900000000E+05    0.6150656835E+00    0.1396354665E-01    0.4214058773E+00    0.6221632060E-01    0.2380277926E+00
    0.4100000000E+05    0.6151897939E+00    0.1365062420E-01    0.4217025637E+00    0.6223437632E-01    0.2383027386E+00
    0.4300000000E+05    0.6153021077E+00    0.1335868041E-01    0.4219761960E+00    0.6225098393E-01    0.2385598337E+00
    0.4500000000E+05    0.6154042106E+00    0.1308544771E-01    0.4222294759E+00    0.6226632640E-01    0.2388010220E+00
    0.4700000000E+05    0.6154974169E+00    0.1282898917E-01    0.4224646878E+00    0.6228055638E-01    0.2390279598E+00
    0.4900000000E+05    0.6155828255E+00    0.1258763880E-01    0.4226837776E+00    0.6229380232E-01    0.2392420682E+00
    0.1000000000E+05    0.6074932202E+00    0.2539403752E-01    0.4084532218E+00    0.6130560852E-01    0.2279578916E+00
    0.3000000000E+05    0.6142973064E+00    0.1571659160E-01    0.4196814487E+00    0.6210987760E-01    0.2364959755E+00
    0.5000000000E+05    0.6156229007E+00    0.1247217085E-01    0.4227878075E+00    0.6230009096E-01    0.2393447017E+00
    0.7000000000E+05    0.6161782173E+00    0.1068981479E-01    0.4243251782E+00    0.6239362620E-01    0.2409497483E+00
    0.9000000000E+05    0.6164799473E+00    0.9519259772E-02    0.4252579041E+00    0.6245219922E-01    0.2420332269E+00
    0.1100000000E+06    0.6166677274E+00    0.8673706640E-02    0.4258879334E+00    0.6249366327E-01    0.2428368300E+00
    0.1300000000E+06    0.6167948295E+00    0.8025373793E-02    0.4263428906E+00    0.6252526525E-01    0.2434684573E+00
    0.1500000000E+06    0.6168859232E+00    0.7507452266E-02    0.4266867595E+00    0.6255056197E-01    0.2439848478E+00
    0.1700000000E+06    0.6169539715E+00    0.7081125141E-02    0.4269554183E+00    0.6257152839E-01    0.2444192149E+00
    0.1900000000E+06    0.6170064243E+00    0.6722075480E-02    0.4271706529E+00    0.6258936088E-01    0.2447925383E+00
    0.2100000000E+06    0.6170478598E+00    0.6414182379E-02    0.4273465070E+00    0.6260483279E-01    0.2451188474E+00
    0.2300000000E+06    0.6170812421E+00    0.6146275322E-02    0.4274924645E+00    0.6261846974E-01    0.2454079494E+00
    0.2500000000E+06    0.6171085722E+00    0.5910334102E-02    0.4276151743E+00    0.6263064362E-01    0.2456669479E+00
    0.2700000000E+06    0.6171312479E+00    0.5700429814E-02    0.4277194425E+00    0.6264162631E-01    0.2459011402E+00
    0.2900000000E+06    0.6171502741E+00    0.5512071189E-02    0.4278088338E+00    0.6265162203E-01    0.2461145737E+00
    0.3100000000E+06    0.6171663909E+00    0.5341784690E-02    0.4278860498E+00    0.6266078775E-01    0.2463104050E+00
    0.3300000000E+06    0.6171801549E+00    0.5186835542E-02    0.4279531771E+00    0.6266924654E-01    0.2464911402E+00
    0.3500000000E+06    0.6171919923E+00    0.5045036953E-02    0.4280118531E+00    0.6267709650E-01    0.2466587995E+00
    0.3700000000E+06    0.6172022346E+00    0.4914616350E-02    0.4280633819E+00    0.6268441703E-01    0.2468150332E+00
    0.3900000000E+06    0.6172111433E+00    0.4794119513E-02    0.4281088145E+00    0.6269127322E-01    0.2469612061E+00
    0.4100000000E+06    0.6172189274E+00    0.4682340532E-02    0.4281490081E+00    0.6269771906E-01    0.2470984582E+00
    0.4300000000E+06    0.6172257557E+00    0.4578269732E-02    0.4281846685E+00    0.6270379979E-01    0.2472277514E+00
    0.4500000000E+06    0.6172317660E+00    0.4481054381E-02    0.4282163824E+00    0.6270955368E-01    0.2473499037E+00
    0.4700000000E+06    0.6172370716E+00    0.4389968599E-02    0.4282446413E+00    0.6271501337E-01    0.2474656165E+00
    0.4900000000E+06    0.6172417667E+00    0.4304390050E-02    0.4282698601E+00    0.6272020692E-01    0.2475754953E+00
    0.1000000000E+06    0.6165837440E+00    0.9065901154E-02    0.4256006003E+00    0.6247448901E-01    0.2424615435E+00
    0.3000000000E+06    0.6171586578E+00    0.5424854588E-02    0.4278488211E+00    0.6265630027E-01    0.2462145199E+00
    0.5000000000E+06    0.6172439104E+00    0.4263495240E-02    0.4282814419E+00    0.6272271160E-01    0.2476284141E+00
    0.7000000000E+06    0.6172684431E+00    0.3636081961E-02    0.4284165032E+00    0.6276332132E-01    0.2484783361E+00
    0.9000000000E+06    0.6172754901E+00    0.3227791499E-02    0.4284531273E+00    0.6279253996E-01    0.2490781942E+00
    0.1100000000E+07    0.6172758054E+00    0.2934620311E-02    0.4284478729E+00    0.6281534838E-01    0.2495383812E+00
    0.1300000000E+07    0.6172731432E+00    0.2710790766E-02    0.4284224522E+00    0.6283404955E-01    0.2499100048E+00
    0.1500000000E+07    0.6172690806E+00    0.2532566084E-02    0.4283867199E+00    0.6284989546E-01    0.2502207314E+00
    0.1700000000E+07    0.6172643610E+00    0.2386238993E-02    0.4283456494E+00    0.6286364182E-01    0.2504871526E+00
    0.1900000000E+07    0.6172593618E+00    0.2263263307E-02    0.4283019358E+00    0.6287577961E-01    0.2507199688E+00
    0.2100000000E+07    0.6172542842E+00    0.2157995029E-02    0.4282571122E+00    0.6288664571E-01    0.2509264668E+00
    0.2300000000E+07    0.6172492384E+00    0.2066535719E-02    0.4282120787E+00    0.6289648126E-01    0.2511118233E+00
    0.2500000000E+07    0.6172442847E+00    0.1986093885E-02    0.4281673729E+00    0.6290546480E-01    0.2512798430E+00
    0.2700000000E+07    0.6172394556E+00    0.1914610686E-02    0.4281233166E+00    0.6291373217E-01    0.2514334005E+00
    0.2900000000E+07    0.6172347673E+00    0.1850529643E-02    0.4280800997E+00    0.6292138915E-01    0.2515747191E+00
    0.3100000000E+07    0.6172302263E+00    0.1792649113E-02    0.4280378288E+00    0.6292851968E-01    0.2517055522E+00
    0.3300000000E+07    0.6172258336E+00    0.1740024510E-02    0.4279965582E+00    0.6293519152E-01    0.2518273059E+00
    0.3500000000E+07    0.6172215867E+00    0.1691901591E-02    0.4279563081E+00    0.6294146013E-01    0.2519411249E+00
    0.3700000000E+07    0.6172174812E+00    0.1647669761E-02    0.4279170771E+00    0.6294737150E-01    0.2520479528E+00
    0.3900000000E+07    0.6172135115E+00    0.1606828670E-02    0.4278788497E+00    0.6295296417E-01    0.2521485762E+00
    0.4100000000E+07    0.6172096717E+00    0.1568963843E-02    0.4278416018E+00    0.6295827075E-01    0.2522436577E+00
    0.4300000000E+07    0.6172059556E+00    0.1533728591E-02    0.4278053039E+00    0.6296331911E-01    0.2523337602E+00
    0.4500000000E+07    0.6172023571E+00    0.1500830377E-02    0.4277699236E+00    0.6296813323E-01    0.2524193662E+00
    0.4700000000E+07    0.6171988702E+00    0.1470020391E-02    0.4277354271E+00    0.6297273389E-01    0.2525008920E+00
    0.4900000000E+07    0.6171954891E+00    0.1441085479E-02    0.4277017799E+00    0.6297713924E-01    0.2525786993E+00
    0.1000000000E+07    0.6172761762E+00    0.3070423306E-02    0.4284539621E+00    0.6280456640E-01    0.2493217699E+00
    0.3000000000E+07    0.6172324782E+00    0.1820878475E-02    0.4280588416E+00    0.6292501566E-01    0.2516413515E+00
    0.5000000000E+07    0.6171938365E+00    0.1427262732E-02    0.4276852643E+00    0.6297927371E-01    0.2526163089E+00
    0.7000000000E+07    0.6171651781E+00    0.1215526465E-02    0.4273918546E+00    0.6301472247E-01    0.2532327016E+00
    0.9000000000E+07    0.6171426235E+00    0.1078069610E-02    0.4271522259E+00    0.6304110076E-01    0.2536819567E+00
    0.1100000000E+08    0.6171240701E+00    0.9795267533E-03    0.4269498254E+00    0.6306211916E-01    0.2540346792E+00
    0.1300000000E+08    0.6171083239E+00    0.9043787682E-03    0.4267745532E+00    0.6307959344E-01    0.2543246441E+00
    0.1500000000E+08    0.6170946515E+00    0.8445954624E-03    0.4266199022E+00    0.6309454886E-01    0.2545705956E+00
    0.1700000000E+08    0.6170825719E+00    0.7955469034E-03    0.4264814546E+00    0.6310762145E-01    0.2547840018E+00
    0.1900000000E+08    0.6170717537E+00    0.7543499831E-03    0.4263560789E+00    0.6311923307E-01    0.2549723828E+00
    0.2100000000E+08    0.6170619586E+00    0.7191025740E-03    0.4262414755E+00    0.6312967795E-01    0.2551409328E+00
    0.2300000000E+08    0.6170530102E+00    0.6884919326E-03    0.4261359058E+00    0.6313916951E-01    0.2552933878E+00
    0.2500000000E+08    0.6170447737E+00    0.6615787350E-03    0.4260380234E+00    0.6314786745E-01    0.2554325233E+00
    0.2700000000E+08    0.6170371443E+00    0.6376706196E-03    0.4259467640E+00    0.6315589443E-01    0.2555604569E+00
