  Pressure (Pa) 22mC5-400 (mol/kg) 2mC6-400 (mol/kg) 3mC6-400 (mol/kg) 23mC5-400 (mol/kg) C7-400 (mol/kg)
    0.1000000000E+01    0.3705231844E-02    0.7901750323E-03    0.3146992443E-02    0.1858854439E-03    0.6809022767E-02
    0.3000000000E+01    0.1097340545E-01    0.2292795061E-02    0.9156448594E-02    0.5505239412E-03    0.1981431980E-01
    0.5000000000E+01    0.1805827035E-01    0.3699050912E-02    0.1481448241E-01    0.9059738850E-03    0.3206271579E-01
    0.7000000000E+01    0.2496715589E-01    0.5016834219E-02    0.2015126663E-01    0.1252602578E-02    0.4361909416E-01
    0.9000000000E+01    0.3170699983E-01    0.6253194933E-02    0.2519360955E-01    0.1590757703E-02    0.5454110917E-01
    0.1100000000E+02    0.3828437412E-01    0.7414452708E-02    0.2996541141E-01    0.1920768612E-02    0.6488016621E-01
    0.1300000000E+02    0.4470550856E-01    0.8506290827E-02    0.3448804857E-01    0.2242947512E-02    0.7468224675E-01
    0.1500000000E+02    0.5097631270E-01    0.9533835791E-02    0.3878069824E-01    0.2557590563E-02    0.8398860596E-01
    0.1700000000E+02    0.5710239611E-01    0.1050172510E-01    0.4286061437E-01    0.2864978895E-02    0.9283636531E-01
    0.1900000000E+02    0.6308908711E-01    0.1141416519E-01    0.4674336306E-01    0.3165379542E-02    0.1012590182E+00
    0.2100000000E+02    0.6894145016E-01    0.1227498127E-01    0.5044302410E-01    0.3459046318E-02    0.1092868629E+00
    0.2300000000E+02    0.7466430194E-01    0.1308766021E-01    0.5397236443E-01    0.3746220619E-02    0.1169473755E+00
    0.2500000000E+02    0.8026222632E-01    0.1385538773E-01    0.5734298776E-01    0.4027132176E-02    0.1242655309E+00
    0.2700000000E+02    0.8573958822E-01    0.1458108071E-01    0.6056546423E-01    0.4301999748E-02    0.1312640820E+00
    0.2900000000E+02    0.9110054654E-01    0.1526741533E-01    0.6364944307E-01    0.4571031770E-02    0.1379638012E+00
    0.3100000000E+02    0.9634906619E-01    0.1591685175E-01    0.6660375087E-01    0.4834426957E-02    0.1443836919E+00
    0.3300000000E+02    0.1014889292E+00    0.1653165570E-01    0.6943647750E-01    0.5092374860E-02    0.1505411732E+00
    0.3500000000E+02    0.1065237453E+00    0.1711391753E-01    0.7215505148E-01    0.5345056392E-02    0.1564522417E+00
    0.3700000000E+02    0.1114569615E+00    0.1766556900E-01    0.7476630627E-01    0.5592644314E-02    0.1621316139E+00
    0.3900000000E+02    0.1162918713E+00    0.1818839822E-01    0.7727653879E-01    0.5835303691E-02    0.1675928525E+00
    0.4100000000E+02    0.1210316228E+00    0.1868406277E-01    0.7969156108E-01    0.6073192316E-02    0.1728484768E+00
    0.4300000000E+02    0.1256792273E+00    0.1915410154E-01    0.8201674619E-01    0.6306461109E-02    0.1779100617E+00
    0.4500000000E+02    0.1302375662E+00    0.1959994518E-01    0.8425706889E-01    0.6535254484E-02    0.1827883253E+00
    0.4700000000E+02    0.1347093980E+00    0.2002292545E-01    0.8641714194E-01    0.6759710704E-02    0.1874932066E+00
    0.4900000000E+02    0.1390973650E+00    0.2042428372E-01    0.8850124853E-01    0.6979962201E-02    0.1920339353E+00
    0.1000000000E+02    0.3501559857E-01    0.6842842564E-02    0.2761193700E-01    0.1756761283E-02    0.5978051521E-01
    0.3000000000E+02    0.9373862066E-01    0.1559659989E-01    0.6514228389E-01    0.4703421913E-02    0.1412076013E+00
    0.5000000000E+02    0.1412606946E+00    0.2061721965E-01    0.8951606994E-01    0.7088551045E-02    0.1942454483E+00
    0.7000000000E+02    0.1806872800E+00    0.2358461747E-01    0.1066566387E+00    0.9067793457E-02    0.2316519511E+00
    0.9000000000E+02    0.2140477480E+00    0.2533094121E-01    0.1193892769E+00    0.1074286691E-01    0.2595185314E+00
    0.1100000000E+03    0.2427265685E+00    0.2631383830E-01    0.1292338618E+00    0.1218316899E-01    0.2811254018E+00
    0.1300000000E+03    0.2677028194E+00    0.2680339584E-01    0.1370814891E+00    0.1343777947E-01    0.2983976494E+00
    0.1500000000E+03    0.2896902939E+00    0.2696724407E-01    0.1434895785E+00    0.1454248180E-01    0.3125406908E+00
    0.1700000000E+03    0.3092231161E+00    0.2691338505E-01    0.1488249341E+00    0.1552405389E-01    0.3243485163E+00
    0.1900000000E+03    0.3267100511E+00    0.2671340868E-01    0.1533389570E+00    0.1640298999E-01    0.3343658426E+00
    0.2100000000E+03    0.3424700940E+00    0.2641581722E-01    0.1572098150E+00    0.1719528450E-01    0.3429790849E+00
    0.2300000000E+03    0.3567564659E+00    0.2605402655E-01    0.1605673610E+00    0.1791363464E-01    0.3504701428E+00
    0.2500000000E+03    0.3697732078E+00    0.2565134997E-01    0.1635085112E+00    0.1856827222E-01    0.3570496156E+00
    0.2700000000E+03    0.3816869178E+00    0.2522419798E-01    0.1661070943E+00    0.1916755194E-01    0.3628780860E+00
    0.2900000000E+03    0.3926352223E+00    0.2478418518E-01    0.1684203592E+00    0.1971837602E-01    0.3680801934E+00
    0.3100000000E+03    0.4027330041E+00    0.2433954768E-01    0.1704933964E+00    0.2022650642E-01    0.3727541991E+00
    0.3300000000E+03    0.4120770566E+00    0.2389611439E-01    0.1723622129E+00    0.2069679812E-01    0.3769786437E+00
    0.3500000000E+03    0.4207496156E+00    0.2345798302E-01    0.1740559176E+00    0.2113337618E-01    0.3808170809E+00
    0.3700000000E+03    0.4288210762E+00    0.2302799720E-01    0.1755983034E+00    0.2153977194E-01    0.3843215065E+00
    0.3900000000E+03    0.4363521080E+00    0.2260808708E-01    0.1770090119E+00    0.2191902908E-01    0.3875348839E+00
    0.4100000000E+03    0.4433953236E+00    0.2219951508E-01    0.1783044042E+00    0.2227378721E-01    0.3904930345E+00
    0.4300000000E+03    0.4499966052E+00    0.2180305465E-01    0.1794982210E+00    0.2260634845E-01    0.3932260700E+00
    0.4500000000E+03    0.4561961730E+00    0.2141912141E-01    0.1806020889E+00    0.2291873097E-01    0.3957594926E+00
    0.4700000000E+03    0.4620294504E+00    0.2104786985E-01    0.1816259135E+00    0.2321271234E-01    0.3981150496E+00
    0.4900000000E+03    0.4675277729E+00    0.2068926503E-01    0.1825781876E+00    0.2348986510E-01    0.4003114038E+00
    0.1000000000E+03    0.2289036562E+00    0.2589783014E-01    0.1246066654E+00    0.1148892020E-01    0.2709620827E+00
    0.3000000000E+03    0.3977840010E+00    0.2456203287E-01    0.1694844721E+00    0.1997745554E-01    0.3704779010E+00
    0.5000000000E+03    0.4701601463E+00    0.2051465589E-01    0.1830298221E+00    0.2362257342E-01    0.4013550015E+00
    0.7000000000E+03    0.5105755760E+00    0.1760966110E-01    0.1896466070E+00    0.2566193262E-01    0.4168221865E+00
    0.9000000000E+03    0.5362745511E+00    0.1555574083E-01    0.1935859234E+00    0.2696117721E-01    0.4262532340E+00
    0.1100000000E+04    0.5539962568E+00    0.1404506985E-01    0.1962040532E+00    0.2785884140E-01    0.4326674418E+00
    0.1300000000E+04    0.5669246126E+00    0.1288866054E-01    0.1980711887E+00    0.2851497234E-01    0.4373455598E+00
    0.1500000000E+04    0.5767562311E+00    0.1197302687E-01    0.1994697845E+00    0.2901491034E-01    0.4409275038E+00
    0.1700000000E+04    0.5844757192E+00    0.1122772218E-01    0.2005560549E+00    0.2940821378E-01    0.4437701493E+00
    0.1900000000E+04    0.5906924814E+00    0.1060720488E-01    0.2014235476E+00    0.2972557583E-01    0.4460889555E+00
    0.2100000000E+04    0.5958032607E+00    0.1008088319E-01    0.2021317641E+00    0.2998699174E-01    0.4480220656E+00
    0.2300000000E+04    0.6000771249E+00    0.9627495164E-02    0.2027203864E+00    0.3020603090E-01    0.4496623339E+00
    0.2500000000E+04    0.6037028183E+00    0.9231816678E-02    0.2032169096E+00    0.3039221811E-01    0.4510745983E+00
    0.2700000000E+04    0.6068165496E+00    0.8882660407E-02    0.2036409953E+00    0.3055243145E-01    0.4523055785E+00
    0.2900000000E+04    0.6095190208E+00    0.8571617195E-02    0.2040070797E+00    0.3069175938E-01    0.4533898386E+00
    0.3100000000E+04    0.6118862521E+00    0.8292239441E-02    0.2043260043E+00    0.3081404568E-01    0.4543535297E+00
    0.3300000000E+04    0.6139766848E+00    0.8039496312E-02    0.2046060705E+00    0.3092224723E-01    0.4552168243E+00
    0.3500000000E+04    0.6158359695E+00    0.7809401138E-02    0.2048537430E+00    0.3101867529E-01    0.4559955475E+00
    0.3700000000E+04    0.6175002747E+00    0.7598750801E-02    0.2050741316E+00    0.3110516223E-01    0.4567022988E+00
    0.3900000000E+04    0.6189986206E+00    0.7404939757E-02    0.2052713289E+00    0.3118317925E-01    0.4573472420E+00
    0.4100000000E+04    0.6203545577E+00    0.7225824885E-02    0.2054486511E+00    0.3125392105E-01    0.4579386723E+00
    0.4300000000E+04    0.6215873942E+00    0.7059625651E-02    0.2056088143E+00    0.3131836777E-01    0.4584834316E+00
    0.4500000000E+04    0.6227131081E+00    0.6904849239E-02    0.2057540639E+00    0.3137733101E-01    0.4589872167E+00
    0.4700000000E+04    0.6237450339E+00    0.6760233652E-02    0.2058862726E+00    0.3143148858E-01    0.4594548116E+00
    0.4900000000E+04    0.6246943865E+00    0.6624703916E-02    0.2060070145E+00    0.3148141089E-01    0.4598902657E+00
    0.1000000000E+04    0.5458844191E+00    0.1474658787E-01    0.1950146337E+00    0.2744773565E-01    0.4297354750E+00
    0.3000000000E+04    0.6107405418E+00    0.8428312739E-02    0.2041718682E+00    0.3075483041E-01    0.4538853765E+00
    0.5000000000E+04    0.6251411243E+00    0.6560052902E-02    0.2060635099E+00    0.3150493786E-01    0.4600970390E+00
    0.7000000000E+04    0.6314297063E+00    0.5576361914E-02    0.2068281591E+00    0.3183919306E-01    0.4631661900E+00
    0.9000000000E+04    0.6349481352E+00    0.4942950592E-02    0.2072146662E+00    0.3202993022E-01    0.4650659054E+00
    0.1100000000E+05    0.6371946542E+00    0.4490472425E-02    0.2074318597E+00    0.3215409136E-01    0.4663880975E+00
    0.1300000000E+05    0.6387526376E+00    0.4145982001E-02    0.2075603236E+00    0.3224184675E-01    0.4673771889E+00
    0.1500000000E+05    0.6398961822E+00    0.3872128074E-02    0.2076374224E+00    0.3230746972E-01    0.4681541372E+00
    0.1700000000E+05    0.6407710133E+00    0.3647510966E-02    0.2076826860E+00    0.3235860047E-01    0.4687863206E+00
    0.1900000000E+05    0.6414617374E+00    0.3458857943E-02    0.2077072243E+00    0.3239970475E-01    0.4693145585E+00
    0.2100000000E+05    0.6420208346E+00    0.3297435005E-02    0.2077177699E+00    0.3243357109E-01    0.4697651832E+00
    0.2300000000E+05    0.6424825806E+00    0.3157224742E-02    0.2077186061E+00    0.3246203281E-01    0.4701560325E+00
    0.2500000000E+05    0.6428703080E+00    0.3033926341E-02    0.2077125659E+00    0.3248634612E-01    0.4704996712E+00
    0.2700000000E+05    0.6432004493E+00    0.2924372118E-02    0.2077015828E+00    0.3250740154E-01    0.4708052383E+00
    0.2900000000E+05    0.6434849114E+00    0.2826169772E-02    0.2076870107E+00    0.3252584851E-01    0.4710795610E+00
    0.3100000000E+05    0.6437325325E+00    0.2737473819E-02    0.2076698185E+00    0.3254217222E-01    0.4713278560E+00
    0.3300000000E+05    0.6439500107E+00    0.2656834436E-02    0.2076507120E+00    0.3255674272E-01    0.4715541877E+00
    0.3500000000E+05    0.6441425145E+00    0.2583094481E-02    0.2076302131E+00    0.3256984738E-01    0.4717617764E+00
    0.3700000000E+05    0.6443140958E+00    0.2515317526E-02    0.2076087130E+00    0.3258171290E-01    0.4719532116E+00
    0.3900000000E+05    0.6444679756E+00    0.2452736432E-02    0.2075865076E+00    0.3259252065E-01    0.4721306028E+00
    0.4100000000E+05    0.6446067467E+00    0.2394715858E-02    0.2075638230E+00    0.3260241754E-01    0.4722956883E+00
    0.4300000000E+05    0.6447325198E+00    0.2340724458E-02    0.2075408334E+00    0.3261152389E-01    0.4724499156E+00
    0.4500000000E+05    0.6448470302E+00    0.2290313938E-02    0.2075176731E+00    0.3261993925E-01    0.4725945013E+00
    0.4700000000E+05    0.6449517180E+00    0.2243103049E-02    0.2074944468E+00    0.3262774672E-01    0.4727304765E+00
    0.4900000000E+05    0.6450477879E+00    0.2198765198E-02    0.2074712360E+00    0.3263501628E-01    0.4728587221E+00
    0.1000000000E+05    0.6361830852E+00    0.4699866870E-02    0.2073378739E+00    0.3209789110E-01    0.4657796573E+00
    0.3000000000E+05    0.6436128666E+00    0.2780731993E-02    0.2076786929E+00    0.3253425039E-01    0.4712066851E+00
    0.5000000000E+05    0.6450929150E+00    0.2177584120E-02    0.2074596568E+00    0.3263846824E-01    0.4729201872E+00
    0.7000000000E+05    0.6457223699E+00    0.1853132506E-02    0.2072383807E+00    0.3268986092E-01    0.4738821653E+00
    0.9000000000E+05    0.6460691617E+00    0.1642514654E-02    0.2070429686E+00    0.3272208768E-01    0.4745350076E+00
    0.1100000000E+06    0.6462879391E+00    0.1491542655E-02    0.2068717160E+00    0.3274491897E-01    0.4750229468E+00
    0.1300000000E+06    0.6464380541E+00    0.1376432372E-02    0.2067202849E+00    0.3276232842E-01    0.4754096222E+00
    0.1500000000E+06    0.6465471382E+00    0.1284874821E-02    0.2065848989E+00    0.3277626876E-01    0.4757283171E+00
    0.1700000000E+06    0.6466297829E+00    0.1209772252E-02    0.2064626156E+00    0.3278782527E-01    0.4759984734E+00
    0.1900000000E+06    0.6466944139E+00    0.1146704532E-02    0.2063511783E+00    0.3279765582E-01    0.4762323690E+00
    0.2100000000E+06    0.6467462334E+00    0.1092755406E-02    0.2062488435E+00    0.3280618589E-01    0.4764382221E+00
    0.2300000000E+06    0.6467886248E+00    0.1045912235E-02    0.2061542459E+00    0.3281370481E-01    0.4766217877E+00
    0.2500000000E+06    0.6468238823E+00    0.1004734919E-02    0.2060663003E+00    0.3282041734E-01    0.4767872429E+00
    0.2700000000E+06    0.6468536162E+00    0.9681620197E-03    0.2059841325E+00    0.3282647322E-01    0.4769377107E+00
    0.2900000000E+06    0.6468789888E+00    0.9353915650E-03    0.2059070282E+00    0.3283198495E-01    0.4770755836E+00
    0.3100000000E+06    0.6469008605E+00    0.9058047417E-03    0.2058343971E+00    0.3283703904E-01    0.4772027328E+00
    0.3300000000E+06    0.6469198808E+00    0.8789153547E-03    0.2057657463E+00    0.3284170331E-01    0.4773206480E+00
    0.3500000000E+06    0.6469365496E+00    0.8543353567E-03    0.2057006596E+00    0.3284603182E-01    0.4774305336E+00
    0.3700000000E+06    0.6469512573E+00    0.8317507383E-03    0.2056387829E+00    0.3285006835E-01    0.4775333767E+00
    0.3900000000E+06    0.6469643136E+00    0.8109042865E-03    0.2055798124E+00    0.3285384878E-01    0.4776299955E+00
    0.4100000000E+06    0.6469759667E+00    0.7915830125E-03    0.2055234853E+00    0.3285740289E-01    0.4777210756E+00
    0.4300000000E+06    0.6469864183E+00    0.7736088235E-03    0.2054695730E+00    0.3286075561E-01    0.4778071973E+00
    0.4500000000E+06    0.6469958336E+00    0.7568314929E-03    0.2054178755E+00    0.3286392806E-01    0.4778888552E+00
    0.4700000000E+06    0.6470043492E+00    0.7411232890E-03    0.2053682165E+00    0.3286693823E-01    0.4779664748E+00
    0.4900000000E+06    0.6470120793E+00    0.7263748174E-03    0.2053204401E+00    0.3286980160E-01    0.4780404242E+00
    0.1000000000E+06    0.6461897270E+00    0.1561448247E-02    0.2069545961E+00    0.3273435938E-01    0.4747945849E+00
    0.3000000000E+06    0.6468903176E+00    0.9202332294E-03    0.2058701863E+00    0.3283456459E-01    0.4771403979E+00
    0.5000000000E+06    0.6470156803E+00    0.7193304939E-03    0.2052972139E+00    0.3287118248E-01    0.4780761245E+00
    0.7000000000E+06    0.6470632849E+00    0.6115360046E-03    0.2049047095E+00    0.3289356884E-01    0.4786573909E+00
    0.9000000000E+06    0.6470863363E+00    0.5416766446E-03    0.2046054086E+00    0.3290967206E-01    0.4790769842E+00
    0.1100000000E+07    0.6470988397E+00    0.4916588242E-03    0.2043632460E+00    0.3292223994E-01    0.4794043542E+00
    0.1300000000E+07    0.6471059923E+00    0.4535548916E-03    0.2041597676E+00    0.3293254290E-01    0.4796722649E+00
    0.1500000000E+07    0.6471101319E+00    0.4232676359E-03    0.2039842452E+00    0.3294127156E-01    0.4798987272E+00
    0.1700000000E+07    0.6471124498E+00    0.3984370285E-03    0.2038298831E+00    0.3294884276E-01    0.4800946839E+00
    0.1900000000E+07    0.6471136091E+00    0.3775946540E-03    0.2036921022E+00    0.3295552725E-01    0.4802672711E+00
    0.2100000000E+07    0.6471140037E+00    0.3597724110E-03    0.2035676686E+00    0.3296151083E-01    0.4804213964E+00
    0.2300000000E+07    0.6471138795E+00    0.3443025852E-03    0.2034542127E+00    0.3296692645E-01    0.4805605766E+00
    0.2500000000E+07    0.6471133965E+00    0.3307076648E-03    0.2033499462E+00    0.3297187256E-01    0.4806874164E+00
    0.2700000000E+07    0.6471126619E+00    0.3186358597E-03    0.2032534858E+00    0.3297642404E-01    0.4808038979E+00
    0.2900000000E+07    0.6471117499E+00    0.3078214832E-03    0.2031637394E+00    0.3298063920E-01    0.4809115637E+00
    0.3100000000E+07    0.6471107123E+00    0.2980596031E-03    0.2030798295E+00    0.3298456432E-01    0.4810116376E+00
    0.3300000000E+07    0.6471095866E+00    0.2891892586E-03    0.2030010407E+00    0.3298823674E-01    0.4811051066E+00
    0.3500000000E+07    0.6471083998E+00    0.2810820204E-03    0.2029267815E+00    0.3299168704E-01    0.4811927777E+00
    0.3700000000E+07    0.6471071721E+00    0.2736339907E-03    0.2028565577E+00    0.3299494055E-01    0.4812753195E+00
    0.3900000000E+07    0.6471059181E+00    0.2667600850E-03    0.2027899519E+00    0.3299801851E-01    0.4813532920E+00
    0.4100000000E+07    0.6471046492E+00    0.2603898639E-03    0.2027266082E+00    0.3300093891E-01    0.4814271684E+00
    0.4300000000E+07    0.6471033736E+00    0.2544644409E-03    0.2026662212E+00    0.3300371709E-01    0.4814973526E+00
    0.4500000000E+07    0.6471020978E+00    0.2489341530E-03    0.2026085263E+00    0.3300636626E-01    0.4815641919E+00
    0.4700000000E+07    0.6471008264E+00    0.2437567812E-03    0.2025532930E+00    0.3300889788E-01    0.4816279869E+00
    0.4900000000E+07    0.6470995632E+00    0.2388961736E-03    0.2025003193E+00    0.3301132194E-01    0.4816889997E+00
    0.1000000000E+07    0.6470934803E+00    0.5148128759E-03    0.2044785884E+00    0.3291629914E-01    0.4792496596E+00
    0.3000000000E+07    0.6471112441E+00    0.3028199172E-03    0.2031211029E+00    0.3298263550E-01    0.4809624832E+00
    0.5000000000E+07    0.6470989356E+00    0.2365747477E-03    0.2024746232E+00    0.3301249642E-01    0.4817185358E+00
    0.7000000000E+07    0.6470871889E+00    0.2010634789E-03    0.2020453732E+00    0.3303199915E-01    0.4822066112E+00
    0.9000000000E+07    0.6470771003E+00    0.1780611166E-03    0.2017233774E+00    0.3304650851E-01    0.4825668683E+00
    0.1100000000E+08    0.6470684185E+00    0.1615974573E-03    0.2014655604E+00    0.3305806785E-01    0.4828522038E+00
    0.1300000000E+08    0.6470608429E+00    0.1490583758E-03    0.2012505195E+00    0.3306767688E-01    0.4830883098E+00
    0.1500000000E+08    0.6470541394E+00    0.1390934313E-03    0.2010660488E+00    0.3307589998E-01    0.4832896060E+00
    0.1700000000E+08    0.6470481349E+00    0.1309250176E-03    0.2009045229E+00    0.3308308720E-01    0.4834649927E+00
    0.1900000000E+08    0.6470427006E+00    0.1240694328E-03    0.2007608570E+00    0.3308947073E-01    0.4836203481E+00
    0.2100000000E+08    0.6470377395E+00    0.1182078479E-03    0.2006314899E+00    0.3309521246E-01    0.4837597569E+00
    0.2300000000E+08    0.6470331767E+00    0.1131204006E-03    0.2005138301E+00    0.3310042983E-01    0.4838861720E+00
    0.2500000000E+08    0.6470289535E+00    0.1086498812E-03    0.2004059328E+00    0.3310521071E-01    0.4840017970E+00
    0.2700000000E+08    0.6470250232E+00    0.1046804860E-03    0.2003063009E+00    0.3310962258E-01    0.4841083199E+00
