  Pressure (Pa) 22mC5-400 (mol/kg) 2mC6-400 (mol/kg) 3mC6-400 (mol/kg) 23mC5-400 (mol/kg) C7-400 (mol/kg)
    0.1000000000E+01    0.4222488453E-02    0.2383741092E-02    0.1058150047E-02    0.5560688960E-03    0.1717031171E-02
    0.3000000000E+01    0.1243648201E-01    0.6991806130E-02    0.3130963891E-02    0.1637812150E-02    0.5080822051E-02
    0.5000000000E+01    0.2035813370E-01    0.1139797583E-01    0.5147868813E-02    0.2681086457E-02    0.8354263241E-02
    0.7000000000E+01    0.2800486968E-01    0.1561417338E-01    0.7111227798E-02    0.3688184465E-02    0.1154116890E-01
    0.9000000000E+01    0.3539272490E-01    0.1965141333E-01    0.9023270798E-02    0.4661215812E-02    0.1464513857E-01
    0.1100000000E+02    0.4253647877E-01    0.2351988656E-01    0.1088610401E-01    0.5602124971E-02    0.1766957209E-01
    0.1300000000E+02    0.4944977546E-01    0.2722903606E-01    0.1270171836E-01    0.6512707065E-02    0.2061768339E-01
    0.1500000000E+02    0.5614523059E-01    0.3078762429E-01    0.1447199736E-01    0.7394621918E-02    0.2349251302E-01
    0.1700000000E+02    0.6263452630E-01    0.3420379343E-01    0.1619872423E-01    0.8249406541E-02    0.2629693977E-01
    0.1900000000E+02    0.6892849593E-01    0.3748511939E-01    0.1788358856E-01    0.9078486290E-02    0.2903369135E-01
    0.2100000000E+02    0.7503719978E-01    0.4063866011E-01    0.1952819240E-01    0.9883184817E-02    0.3170535419E-01
    0.2300000000E+02    0.8096999291E-01    0.4367099911E-01    0.2113405587E-01    0.1066473299E-01    0.3431438255E-01
    0.2500000000E+02    0.8673558592E-01    0.4658828461E-01    0.2270262234E-01    0.1142427691E-01    0.3686310688E-01
    0.2700000000E+02    0.9234209968E-01    0.4939626495E-01    0.2423526330E-01    0.1216288508E-01    0.3935374158E-01
    0.2900000000E+02    0.9779711452E-01    0.5210032044E-01    0.2573328272E-01    0.1288155488E-01    0.4178839216E-01
    0.3100000000E+02    0.1031077146E+00    0.5470549234E-01    0.2719792125E-01    0.1358121844E-01    0.4416906192E-01
    0.3300000000E+02    0.1082805282E+00    0.5721650905E-01    0.2863036000E-01    0.1426274788E-01    0.4649765807E-01
    0.3500000000E+02    0.1133217637E+00    0.5963780998E-01    0.3003172408E-01    0.1492696010E-01    0.4877599751E-01
    0.3700000000E+02    0.1182372427E+00    0.6197356717E-01    0.3140308592E-01    0.1557462111E-01    0.5100581209E-01
    0.3900000000E+02    0.1230324300E+00    0.6422770507E-01    0.3274546835E-01    0.1620644997E-01    0.5318875358E-01
    0.4100000000E+02    0.1277124604E+00    0.6640391855E-01    0.3405984741E-01    0.1682312234E-01    0.5532639829E-01
    0.4300000000E+02    0.1322821637E+00    0.6850568938E-01    0.3534715502E-01    0.1742527373E-01    0.5742025134E-01
    0.4500000000E+02    0.1367460872E+00    0.7053630127E-01    0.3660828150E-01    0.1801350249E-01    0.5947175066E-01
    0.4700000000E+02    0.1411085162E+00    0.7249885369E-01    0.3784407783E-01    0.1858837250E-01    0.6148227073E-01
    0.4900000000E+02    0.1453734928E+00    0.7439627452E-01    0.3905535784E-01    0.1915041564E-01    0.6345312605E-01
    0.1000000000E+02    0.3899423645E-01    0.2160613889E-01    0.9960711585E-02    0.5135570142E-02    0.1616709227E-01
    0.3000000000E+02    0.1004700419E+00    0.5341496427E-01    0.2646969943E-01    0.1323370659E-01    0.4298535326E-01
    0.5000000000E+02    0.1474706374E+00    0.7532143152E-01    0.3965204889E-01    0.1942678516E-01    0.6442407462E-01
    0.7000000000E+02    0.1851198070E+00    0.9100311100E-01    0.5047131135E-01    0.2438900019E-01    0.8203937962E-01
    0.9000000000E+02    0.2162909853E+00    0.1025508232E+00    0.5954734411E-01    0.2849846750E-01    0.9683267387E-01
    0.1100000000E+03    0.2427307833E+00    0.1112370564E+00    0.6729762410E-01    0.3198503754E-01    0.1094786446E+00
    0.1300000000E+03    0.2655701983E+00    0.1178774632E+00    0.7401401571E-01    0.3499755544E-01    0.1204491412E+00
    0.1500000000E+03    0.2855799230E+00    0.1230166400E+00    0.7990698398E-01    0.3763745364E-01    0.1300845360E+00
    0.1700000000E+03    0.3033075975E+00    0.1270303902E+00    0.8513231333E-01    0.3997681210E-01    0.1386368577E+00
    0.1900000000E+03    0.3191561632E+00    0.1301851940E+00    0.8980791865E-01    0.4206866845E-01    0.1462969354E+00
    0.2100000000E+03    0.3334308891E+00    0.1326743811E+00    0.9402479205E-01    0.4395320642E-01    0.1532120782E+00
    0.2300000000E+03    0.3463688271E+00    0.1346409738E+00    0.9785434505E-01    0.4566163194E-01    0.1594979352E+00
    0.2500000000E+03    0.3581579537E+00    0.1361925757E+00    0.1013534618E+00    0.4721869210E-01    0.1652466599E+00
    0.2700000000E+03    0.3689500174E+00    0.1374113437E+00    0.1045680563E+00    0.4864436588E-01    0.1705326594E+00
    0.2900000000E+03    0.3788694108E+00    0.1383608256E+00    0.1075356282E+00    0.4995503176E-01    0.1754167246E+00
    0.3100000000E+03    0.3880194552E+00    0.1390907465E+00    0.1102871311E+00    0.5116429475E-01    0.1799490511E+00
    0.3300000000E+03    0.3964869549E+00    0.1396404198E+00    0.1128483613E+00    0.5228358577E-01    0.1841714855E+00
    0.3500000000E+03    0.4043455647E+00    0.1400412193E+00    0.1152410054E+00    0.5332260489E-01    0.1881192187E+00
    0.3700000000E+03    0.4116583276E+00    0.1403183948E+00    0.1174834401E+00    0.5428965520E-01    0.1918220802E+00
    0.3900000000E+03    0.4184796174E+00    0.1404924251E+00    0.1195913510E+00    0.5519189859E-01    0.1953055399E+00
    0.4100000000E+03    0.4248566497E+00    0.1405800368E+00    0.1215782166E+00    0.5603555457E-01    0.1985914904E+00
    0.4300000000E+03    0.4308306721E+00    0.1405949808E+00    0.1234556904E+00    0.5682605690E-01    0.2016988664E+00
    0.4500000000E+03    0.4364379137E+00    0.1405486290E+00    0.1252339057E+00    0.5756817864E-01    0.2046441372E+00
    0.4700000000E+03    0.4417103513E+00    0.1404504380E+00    0.1269217204E+00    0.5826613291E-01    0.2074417042E+00
    0.4900000000E+03    0.4466763333E+00    0.1403083116E+00    0.1285269160E+00    0.5892365506E-01    0.2101042224E+00
    0.1000000000E+03    0.2300209723E+00    0.1071926691E+00    0.6356764687E-01    0.3030891080E-01    0.1033908456E+00
    0.3000000000E+03    0.3835348335E+00    0.1387505628E+00    0.1089366688E+00    0.5057157905E-01    0.1777240662E+00
    0.5000000000E+03    0.4490523983E+00    0.1402228899E+00    0.1293007094E+00    0.5923830761E-01    0.2113883811E+00
    0.7000000000E+03    0.4853572162E+00    0.1373597151E+00    0.1417466878E+00    0.6405083989E-01    0.2321099940E+00
    0.9000000000E+03    0.5081722871E+00    0.1337118207E+00    0.1504802237E+00    0.6708163309E-01    0.2467373463E+00
    0.1100000000E+04    0.5237151080E+00    0.1300642451E+00    0.1571054459E+00    0.6915086237E-01    0.2578906287E+00
    0.1300000000E+04    0.5349264438E+00    0.1266189495E+00    0.1623880274E+00    0.7064674735E-01    0.2668239744E+00
    0.1500000000E+04    0.5433662198E+00    0.1234196731E+00    0.1667478840E+00    0.7177537037E-01    0.2742269453E+00
    0.1700000000E+04    0.5499334146E+00    0.1204618926E+00    0.1704382413E+00    0.7265558272E-01    0.2805163629E+00
    0.1900000000E+04    0.5551800909E+00    0.1177265528E+00    0.1736227244E+00    0.7336042439E-01    0.2859621611E+00
    0.2100000000E+04    0.5594628192E+00    0.1151914515E+00    0.1764127625E+00    0.7393710573E-01    0.2907485489E+00
    0.2300000000E+04    0.5630215703E+00    0.1128351818E+00    0.1788874358E+00    0.7441742259E-01    0.2950065147E+00
    0.2500000000E+04    0.5660234542E+00    0.1106383907E+00    0.1811047640E+00    0.7482353337E-01    0.2988323418E+00
    0.2700000000E+04    0.5685882447E+00    0.1085840316E+00    0.1831084969E+00    0.7517133167E-01    0.3022987603E+00
    0.2900000000E+04    0.5708039296E+00    0.1066572448E+00    0.1849323879E+00    0.7547250198E-01    0.3054619775E+00
    0.3100000000E+04    0.5727365375E+00    0.1048451190E+00    0.1866029903E+00    0.7573581935E-01    0.3083662810E+00
    0.3300000000E+04    0.5744365480E+00    0.1031364309E+00    0.1881415447E+00    0.7596799751E-01    0.3110471529E+00
    0.3500000000E+04    0.5759431904E+00    0.1015214026E+00    0.1895652913E+00    0.7617425789E-01    0.3135334344E+00
    0.3700000000E+04    0.5772873965E+00    0.9999148780E-01    0.1908884020E+00    0.7635872073E-01    0.3158488678E+00
    0.3900000000E+04    0.5784938739E+00    0.9853918887E-01    0.1921226586E+00    0.7652467968E-01    0.3180132183E+00
    0.4100000000E+04    0.5795825893E+00    0.9715790274E-01    0.1932779546E+00    0.7667479852E-01    0.3200431048E+00
    0.4300000000E+04    0.5805698487E+00    0.9584179133E-01    0.1943626724E+00    0.7681125431E-01    0.3219526263E+00
    0.4500000000E+04    0.5814690962E+00    0.9458567304E-01    0.1953839722E+00    0.7693584341E-01    0.3237538405E+00
    0.4700000000E+04    0.5822915125E+00    0.9338493177E-01    0.1963480148E+00    0.7705006096E-01    0.3254571347E+00
    0.4900000000E+04    0.5830464707E+00    0.9223544041E-01    0.1972601365E+00    0.7715516134E-01    0.3270715168E+00
    0.1000000000E+04    0.5166233414E+00    0.1318693379E+00    0.1539970901E+00    0.6820616735E-01    0.2526512147E+00
    0.3000000000E+04    0.5718021572E+00    0.1057375874E+00    0.1857854157E+00    0.7560843209E-01    0.3069440985E+00
    0.5000000000E+04    0.5834011755E+00    0.9167874135E-01    0.1976982040E+00    0.7720463041E-01    0.3278478614E+00
    0.7000000000E+04    0.5883539677E+00    0.8251005814E-01    0.2046024821E+00    0.7790317255E-01    0.3401780063E+00
    0.9000000000E+04    0.5910886524E+00    0.7586888796E-01    0.2092863339E+00    0.7829827889E-01    0.3486602872E+00
    0.1100000000E+05    0.5928187265E+00    0.7074626573E-01    0.2127442759E+00    0.7855422816E-01    0.3549973455E+00
    0.1300000000E+05    0.5940100591E+00    0.6662561646E-01    0.2154372224E+00    0.7873462700E-01    0.3599845871E+00
    0.1500000000E+05    0.5948793962E+00    0.6320978708E-01    0.2176134330E+00    0.7886931727E-01    0.3640533547E+00
    0.1700000000E+05    0.5955411242E+00    0.6031339793E-01    0.2194205685E+00    0.7897417884E-01    0.3674617483E+00
    0.1900000000E+05    0.5960612684E+00    0.5781366037E-01    0.2209529054E+00    0.7905845334E-01    0.3703754532E+00
    0.2100000000E+05    0.5964805873E+00    0.5562540436E-01    0.2222739366E+00    0.7912789250E-01    0.3729066123E+00
    0.2300000000E+05    0.5968255936E+00    0.5368734726E-01    0.2234282464E+00    0.7918626814E-01    0.3751343373E+00
    0.2500000000E+05    0.5971142725E+00    0.5195405725E-01    0.2244482112E+00    0.7923615959E-01    0.3771163280E+00
    0.2700000000E+05    0.5973592516E+00    0.5039100710E-01    0.2253580018E+00    0.7927939238E-01    0.3788958371E+00
    0.2900000000E+05    0.5975696558E+00    0.4897140097E-01    0.2261760858E+00    0.7931729615E-01    0.3805060408E+00
    0.3100000000E+05    0.5977522414E+00    0.4767406662E-01    0.2269168545E+00    0.7935086325E-01    0.3819728880E+00
    0.3300000000E+05    0.5979121171E+00    0.4648201313E-01    0.2275917145E+00    0.7938084995E-01    0.3833170192E+00
    0.3500000000E+05    0.5980532167E+00    0.4538141851E-01    0.2282098412E+00    0.7940784315E-01    0.3845550945E+00
    0.3700000000E+05    0.5981786182E+00    0.4436090296E-01    0.2287787123E+00    0.7943230565E-01    0.3857007353E+00
    0.3900000000E+05    0.5982907638E+00    0.4341099697E-01    0.2293044918E+00    0.7945460752E-01    0.3867652062E+00
    0.4100000000E+05    0.5983916163E+00    0.4252374507E-01    0.2297923137E+00    0.7947504844E-01    0.3877579177E+00
    0.4300000000E+05    0.5984827706E+00    0.4169240613E-01    0.2302464934E+00    0.7949387383E-01    0.3886868039E+00
    0.4500000000E+05    0.5985655360E+00    0.4091122337E-01    0.2306706887E+00    0.7951128668E-01    0.3895586088E+00
    0.4700000000E+05    0.5986409976E+00    0.4017524577E-01    0.2310680234E+00    0.7952745648E-01    0.3903791084E+00
    0.4900000000E+05    0.5987100616E+00    0.3948018769E-01    0.2314411838E+00    0.7954252588E-01    0.3911532830E+00
    0.1000000000E+05    0.5920413855E+00    0.7315712967E-01    0.2111326475E+00    0.7843848755E-01    0.3520351474E+00
    0.3000000000E+05    0.5976640745E+00    0.4830859622E-01    0.2265553619E+00    0.7933456989E-01    0.3812559873E+00
    0.5000000000E+05    0.5987424379E+00    0.3914681824E-01    0.2316194374E+00    0.7954968648E-01    0.3915243714E+00
    0.7000000000E+05    0.5991885216E+00    0.3393206815E-01    0.2343441698E+00    0.7965673519E-01    0.3973150532E+00
    0.9000000000E+05    0.5994278724E+00    0.3043666758E-01    0.2360985590E+00    0.7972439331E-01    0.4011904966E+00
    0.1100000000E+06    0.5995749076E+00    0.2787680732E-01    0.2373422893E+00    0.7977264260E-01    0.4040323264E+00
    0.1300000000E+06    0.5996730851E+00    0.2589414271E-01    0.2382790424E+00    0.7980963703E-01    0.4062390278E+00
    0.1500000000E+06    0.5997424461E+00    0.2429789507E-01    0.2390146833E+00    0.7983939794E-01    0.4080213351E+00
    0.1700000000E+06    0.5997934785E+00    0.2297569190E-01    0.2396103506E+00    0.7986416801E-01    0.4095028615E+00
    0.1900000000E+06    0.5998321855E+00    0.2185636969E-01    0.2401041130E+00    0.7988531123E-01    0.4107616853E+00
    0.2100000000E+06    0.5998622414E+00    0.2089232988E-01    0.2405210564E+00    0.7990371249E-01    0.4118499462E+00
    0.2300000000E+06    0.5998860153E+00    0.2005034382E-01    0.2408784602E+00    0.7991997527E-01    0.4128040102E+00
    0.2500000000E+06    0.5999050999E+00    0.1930640158E-01    0.2411886578E+00    0.7993452787E-01    0.4136501427E+00
    0.2700000000E+06    0.5999206033E+00    0.1864265557E-01    0.2414607140E+00    0.7994768428E-01    0.4144078670E+00
    0.2900000000E+06    0.5999333188E+00    0.1804552001E-01    0.2417014565E+00    0.7995968098E-01    0.4150920475E+00
    0.3100000000E+06    0.5999438280E+00    0.1750444232E-01    0.2419161364E+00    0.7997070022E-01    0.4157142349E+00
    0.3300000000E+06    0.5999525664E+00    0.1701108210E-01    0.2421088649E+00    0.7998088515E-01    0.4162835637E+00
    0.3500000000E+06    0.5999598660E+00    0.1655874690E-01    0.2422829121E+00    0.7999035018E-01    0.4168073688E+00
    0.3700000000E+06    0.5999659840E+00    0.1614199472E-01    0.2424409140E+00    0.7999918806E-01    0.4172916194E+00
    0.3900000000E+06    0.5999711224E+00    0.1575634804E-01    0.2425850220E+00    0.8000747498E-01    0.4177412311E+00
    0.4100000000E+06    0.5999754416E+00    0.1539808399E-01    0.2427170111E+00    0.8001527426E-01    0.4181602951E+00
    0.4300000000E+06    0.5999790708E+00    0.1506407787E-01    0.2428383595E+00    0.8002263902E-01    0.4185522485E+00
    0.4500000000E+06    0.5999821148E+00    0.1475168470E-01    0.2429503095E+00    0.8002961429E-01    0.4189200039E+00
    0.4700000000E+06    0.5999846595E+00    0.1445864821E-01    0.2430539134E+00    0.8003623852E-01    0.4192660484E+00
    0.4900000000E+06    0.5999867758E+00    0.1418303016E-01    0.2431500688E+00    0.8004254480E-01    0.4195925210E+00
    0.1000000000E+06    0.5995093875E+00    0.2906780052E-01    0.2367682222E+00    0.7975029137E-01    0.4027094006E+00
    0.3000000000E+06    0.5999388191E+00    0.1776853946E-01    0.2418117746E+00    0.7996530306E-01    0.4154102711E+00
    0.5000000000E+06    0.5999876921E+00    0.1405122039E-01    0.2431955985E+00    0.8004558782E-01    0.4197490063E+00
    0.7000000000E+06    0.5999937072E+00    0.1202076286E-01    0.2438554833E+00    0.8009507052E-01    0.4221930256E+00
    0.9000000000E+06    0.5999888662E+00    0.1069126589E-01    0.2442375558E+00    0.8013082361E-01    0.4238353635E+00
    0.1100000000E+07    0.5999806045E+00    0.9732737159E-02    0.2444821932E+00    0.8015880675E-01    0.4250465053E+00
    0.1300000000E+07    0.5999713062E+00    0.8998777384E-02    0.2446485753E+00    0.8018179253E-01    0.4259927703E+00
    0.1500000000E+07    0.5999618663E+00    0.8413057379E-02    0.2447661881E+00    0.8020129481E-01    0.4267618316E+00
    0.1700000000E+07    0.5999526442E+00    0.7931317747E-02    0.2448514280E+00    0.8021823032E-01    0.4274050491E+00
    0.1900000000E+07    0.5999437827E+00    0.7525874397E-02    0.2449141540E+00    0.8023319609E-01    0.4279548578E+00
    0.2100000000E+07    0.5999353296E+00    0.7178396370E-02    0.2449606525E+00    0.8024660265E-01    0.4284329292E+00
    0.2300000000E+07    0.5999272896E+00    0.6876194318E-02    0.2449951195E+00    0.8025874429E-01    0.4288543939E+00
    0.2500000000E+07    0.5999196483E+00    0.6610165090E-02    0.2450204604E+00    0.8026983920E-01    0.4292301947E+00
    0.2700000000E+07    0.5999123827E+00    0.6373583978E-02    0.2450387479E+00    0.8028005361E-01    0.4295684780E+00
    0.2900000000E+07    0.5999054673E+00    0.6161359994E-02    0.2450514990E+00    0.8028951706E-01    0.4298754570E+00
    0.3100000000E+07    0.5998988763E+00    0.5969557903E-02    0.2450598469E+00    0.8029833247E-01    0.4301559686E+00
    0.3300000000E+07    0.5998925852E+00    0.5795080907E-02    0.2450646544E+00    0.8030658295E-01    0.4304138449E+00
    0.3500000000E+07    0.5998865710E+00    0.5635453792E-02    0.2450665883E+00    0.8031433660E-01    0.4306521694E+00
    0.3700000000E+07    0.5998808127E+00    0.5488670977E-02    0.2450661715E+00    0.8032164989E-01    0.4308734562E+00
    0.3900000000E+07    0.5998752911E+00    0.5353087657E-02    0.2450638188E+00    0.8032857019E-01    0.4310797798E+00
    0.4100000000E+07    0.5998699888E+00    0.5227340322E-02    0.2450598627E+00    0.8033513762E-01    0.4312728703E+00
    0.4300000000E+07    0.5998648901E+00    0.5110287685E-02    0.2450545727E+00    0.8034138644E-01    0.4314541841E+00
    0.4500000000E+07    0.5998599806E+00    0.5000966122E-02    0.2450481687E+00    0.8034734616E-01    0.4316249577E+00
    0.4700000000E+07    0.5998552475E+00    0.4898555569E-02    0.2450408316E+00    0.8035304237E-01    0.4317862492E+00
    0.4900000000E+07    0.5998506789E+00    0.4802353109E-02    0.2450327114E+00    0.8035849740E-01    0.4319389705E+00
    0.1000000000E+07    0.5999849593E+00    0.1017714718E-01    0.2443723382E+00    0.8014557116E-01    0.4244817910E+00
    0.3000000000E+07    0.5999021328E+00    0.6063116486E-02    0.2450561641E+00    0.8029400017E-01    0.4300187616E+00
    0.5000000000E+07    0.5998484530E+00    0.4756387095E-02    0.2450283976E+00    0.8036114070E-01    0.4320123684E+00
    0.7000000000E+07    0.5998104401E+00    0.4051638193E-02    0.2449225282E+00    0.8040505919E-01    0.4331769162E+00
    0.9000000000E+07    0.5997810956E+00    0.3593522070E-02    0.2448053998E+00    0.8043776032E-01    0.4339817913E+00
    0.1100000000E+08    0.5997572137E+00    0.3264840513E-02    0.2446912862E+00    0.8046382702E-01    0.4345891889E+00
    0.1300000000E+08    0.5997370830E+00    0.3014062130E-02    0.2445836659E+00    0.8048550434E-01    0.4350731270E+00
    0.1500000000E+08    0.5997196861E+00    0.2814487312E-02    0.2444830770E+00    0.8050406084E-01    0.4354731876E+00
    0.1700000000E+08    0.5997043695E+00    0.2650707317E-02    0.2443891735E+00    0.8052028385E-01    0.4358128577E+00
    0.1900000000E+08    0.5996906889E+00    0.2513120043E-02    0.2443013643E+00    0.8053469580E-01    0.4361071430E+00
    0.2100000000E+08    0.5996783285E+00    0.2395386940E-02    0.2442190286E+00    0.8054766114E-01    0.4363661763E+00
    0.2300000000E+08    0.5996670559E+00    0.2293131507E-02    0.2441415885E+00    0.8055944430E-01    0.4365971018E+00
    0.2500000000E+08    0.5996566951E+00    0.2203221011E-02    0.2440685295E+00    0.8057024320E-01    0.4368051335E+00
    0.2700000000E+08    0.5996471094E+00    0.2123345649E-02    0.2439994011E+00    0.8058020987E-01    0.4369941861E+00
