  Pressure (Pa) 22mC5-400 (mol/kg) 2mC6-400 (mol/kg) 3mC6-400 (mol/kg) 23mC5-400 (mol/kg) C7-400 (mol/kg)
    0.1000000000E+01    0.4218900922E-02    0.3952410603E-02    0.2103704426E-02    0.9259941615E-04    0.3413716328E-02
    0.3000000000E+01    0.1240600869E-01    0.1147693954E-01    0.6153137880E-02    0.2722998968E-03    0.9985904320E-02
    0.5000000000E+01    0.2027816392E-01    0.1852919964E-01    0.1000545738E-01    0.4450926092E-03    0.1623958141E-01
    0.7000000000E+01    0.2785665324E-01    0.2514716602E-01    0.1367544905E-01    0.6114443537E-03    0.2219860763E-01
    0.9000000000E+01    0.3516083308E-01    0.3136498576E-01    0.1717643906E-01    0.7717796065E-03    0.2788448885E-01
    0.1100000000E+02    0.4220834369E-01    0.3721344131E-01    0.2052047021E-01    0.9264852128E-03    0.3331666125E-01
    0.1300000000E+02    0.4901529540E-01    0.4272034860E-01    0.2371845335E-01    0.1075914470E-02    0.3851273550E-01
    0.1500000000E+02    0.5559643119E-01    0.4791090056E-01    0.2678029784E-01    0.1220390694E-02    0.4348870706E-01
    0.1700000000E+02    0.6196526911E-01    0.5280796429E-01    0.2971502442E-01    0.1360210339E-02    0.4825913806E-01
    0.1900000000E+02    0.6813422718E-01    0.5743233908E-01    0.3253086303E-01    0.1495645738E-02    0.5283731507E-01
    0.2100000000E+02    0.7411473343E-01    0.6180298116E-01    0.3523533803E-01    0.1626947515E-02    0.5723538646E-01
    0.2300000000E+02    0.7991732301E-01    0.6593720001E-01    0.3783534258E-01    0.1754346716E-02    0.6146448231E-01
    0.2500000000E+02    0.8555172410E-01    0.6985083033E-01    0.4033720380E-01    0.1878056689E-02    0.6553481952E-01
    0.2700000000E+02    0.9102693407E-01    0.7355838313E-01    0.4274673999E-01    0.1998274758E-02    0.6945579406E-01
    0.2900000000E+02    0.9635128730E-01    0.7707317873E-01    0.4506931107E-01    0.2115183707E-02    0.7323606227E-01
    0.3100000000E+02    0.1015325154E+00    0.8040746428E-01    0.4730986308E-01    0.2228953102E-02    0.7688361264E-01
    0.3300000000E+02    0.1065778013E+00    0.8357251769E-01    0.4947296759E-01    0.2339740476E-02    0.8040582943E-01
    0.3500000000E+02    0.1114938272E+00    0.8657873988E-01    0.5156285671E-01    0.2447692383E-02    0.8380954904E-01
    0.3700000000E+02    0.1162868179E+00    0.8943573678E-01    0.5358345420E-01    0.2552945346E-02    0.8710111024E-01
    0.3900000000E+02    0.1209625798E+00    0.9215239240E-01    0.5553840325E-01    0.2655626711E-02    0.9028639895E-01
    0.4100000000E+02    0.1255265356E+00    0.9473693405E-01    0.5743109124E-01    0.2755855410E-02    0.9337088823E-01
    0.4300000000E+02    0.1299837557E+00    0.9719699075E-01    0.5926467199E-01    0.2853742651E-02    0.9635967411E-01
    0.4500000000E+02    0.1343389871E+00    0.9953964548E-01    0.6104208568E-01    0.2949392547E-02    0.9925750774E-01
    0.4700000000E+02    0.1385966786E+00    0.1017714822E+00    0.6276607673E-01    0.3042902672E-02    0.1020688243E+00
    0.4900000000E+02    0.1427610045E+00    0.1038986281E+00    0.6443920999E-01    0.3134364579E-02    0.1047977690E+00
    0.1000000000E+02    0.3871563130E-01    0.3433358031E-01    0.1886736766E-01    0.8498132922E-03    0.3063114782E-01
    0.3000000000E+02    0.9895933080E-01    0.7876215882E-01    0.4619954539E-01    0.2172450734E-02    0.7507595220E-01
    0.5000000000E+02    0.1448093898E+00    0.1049247413E+00    0.6525746098E-01    0.3179354529E-02    0.1061325738E+00
    0.7000000000E+02    0.1817117850E+00    0.1211475913E+00    0.7946036636E-01    0.3989966764E-02    0.1293252152E+00
    0.9000000000E+02    0.2125601697E+00    0.1314964841E+00    0.9055201657E-01    0.4667755516E-02    0.1474731589E+00
    0.1100000000E+03    0.2390465874E+00    0.1381645445E+00    0.9951881254E-01    0.5249835164E-02    0.1621723203E+00
    0.1300000000E+03    0.2622353727E+00    0.1424244290E+00    0.1069628128E+00    0.5759552493E-02    0.1743974426E+00
    0.1500000000E+03    0.2828358576E+00    0.1450569936E+00    0.1132735413E+00    0.6212467661E-02    0.1847795912E+00
    0.1700000000E+03    0.3013435564E+00    0.1465627619E+00    0.1187149178E+00    0.6619450808E-02    0.1937466212E+00
    0.1900000000E+03    0.3181184066E+00    0.1472739969E+00    0.1234725883E+00    0.6988398160E-02    0.2015996868E+00
    0.2100000000E+03    0.3334306004E+00    0.1474176274E+00    0.1276812563E+00    0.7325237333E-02    0.2085574428E+00
    0.2300000000E+03    0.3474887041E+00    0.1471523006E+00    0.1314412507E+00    0.7634544115E-02    0.2147828477E+00
    0.2500000000E+03    0.3604576008E+00    0.1465910854E+00    0.1348289830E+00    0.7919936048E-02    0.2204000899E+00
    0.2700000000E+03    0.3724703348E+00    0.1458158629E+00    0.1379037813E+00    0.8184332255E-02    0.2255056511E+00
    0.2900000000E+03    0.3836361675E+00    0.1448867145E+00    0.1407124893E+00    0.8430130142E-02    0.2301757571E+00
    0.3100000000E+03    0.3940462018E+00    0.1438482039E+00    0.1432926446E+00    0.8659328773E-02    0.2344715262E+00
    0.3300000000E+03    0.4037774031E+00    0.1427336722E+00    0.1456747230E+00    0.8873617086E-02    0.2384426089E+00
    0.3500000000E+03    0.4128955367E+00    0.1415682331E+00    0.1478837582E+00    0.9074438311E-02    0.2421298130E+00
    0.3700000000E+03    0.4214573542E+00    0.1403708958E+00    0.1499405303E+00    0.9263037949E-02    0.2455670315E+00
    0.3900000000E+03    0.4295122517E+00    0.1391560934E+00    0.1518624520E+00    0.9440500134E-02    0.2487826821E+00
    0.4100000000E+03    0.4371035470E+00    0.1379347981E+00    0.1536642404E+00    0.9607775646E-02    0.2518007961E+00
    0.4300000000E+03    0.4442694779E+00    0.1367153439E+00    0.1553584314E+00    0.9765703821E-02    0.2546418550E+00
    0.4500000000E+03    0.4510439940E+00    0.1355040407E+00    0.1569557799E+00    0.9915029918E-02    0.2573234394E+00
    0.4700000000E+03    0.4574573930E+00    0.1343056367E+00    0.1584655728E+00    0.1005641906E-01    0.2598607393E+00
    0.4900000000E+03    0.4635368362E+00    0.1331236702E+00    0.1598958786E+00    0.1019046757E-01    0.2622669584E+00
    0.1000000000E+03    0.2262714814E+00    0.1351960282E+00    0.9525698081E-01    0.4969066823E-02    0.1551825499E+00
    0.3000000000E+03    0.3889305565E+00    0.1443788228E+00    0.1420290873E+00    0.8546692387E-02    0.2323670966E+00
    0.5000000000E+03    0.4664590606E+00    0.1325396932E+00    0.1605834617E+00    0.1025490894E-01    0.2634245765E+00
    0.7000000000E+03    0.5121971169E+00    0.1220465903E+00    0.1714828374E+00    0.1126433190E-01    0.2818599136E+00
    0.9000000000E+03    0.5419599092E+00    0.1137298944E+00    0.1789610383E+00    0.1192228298E-01    0.2946159808E+00
    0.1100000000E+04    0.5626366342E+00    0.1070805708E+00    0.1845411306E+00    0.1238015816E-01    0.3042031999E+00
    0.1300000000E+04    0.5777152040E+00    0.1016375675E+00    0.1889302389E+00    0.1271465537E-01    0.3117922366E+00
    0.1500000000E+04    0.5891333263E+00    0.9707853279E-01    0.1925099773E+00    0.1296840984E-01    0.3180173317E+00
    0.1700000000E+04    0.5980435363E+00    0.9318394493E-01    0.1955079710E+00    0.1316679579E-01    0.3232581327E+00
    0.1900000000E+04    0.6051692406E+00    0.8980195265E-01    0.1980700744E+00    0.1332574916E-01    0.3277586917E+00
    0.2100000000E+04    0.6109848653E+00    0.8682484200E-01    0.2002949188E+00    0.1345572726E-01    0.3316845389E+00
    0.2300000000E+04    0.6158131383E+00    0.8417419473E-01    0.2022520652E+00    0.1356384790E-01    0.3351527432E+00
    0.2500000000E+04    0.6198804972E+00    0.8179151696E-01    0.2039922554E+00    0.1365510819E-01    0.3382489265E+00
    0.2700000000E+04    0.6233500893E+00    0.7963221085E-01    0.2055535432E+00    0.1373311070E-01    0.3410374599E+00
    0.2900000000E+04    0.6263421933E+00    0.7766160453E-01    0.2069651346E+00    0.1380051301E-01    0.3435678647E+00
    0.3100000000E+04    0.6289472815E+00    0.7585227376E-01    0.2082498898E+00    0.1385931535E-01    0.3458789895E+00
    0.3300000000E+04    0.6312346197E+00    0.7418219265E-01    0.2094260064E+00    0.1391105004E-01    0.3480018260E+00
    0.3500000000E+04    0.6332580766E+00    0.7263342909E-01    0.2105081846E+00    0.1395690955E-01    0.3499614611E+00
    0.3700000000E+04    0.6350601367E+00    0.7119120608E-01    0.2115084530E+00    0.1399783491E-01    0.3517784630E+00
    0.3900000000E+04    0.6366747298E+00    0.6984321399E-01    0.2124367664E+00    0.1403457817E-01    0.3534698870E+00
    0.4100000000E+04    0.6381292628E+00    0.6857909832E-01    0.2133014479E+00    0.1406774716E-01    0.3550500187E+00
    0.4300000000E+04    0.6394461025E+00    0.6739007237E-01    0.2141095193E+00    0.1409783828E-01    0.3565309320E+00
    0.4500000000E+04    0.6406436739E+00    0.6626862034E-01    0.2148669535E+00    0.1412526068E-01    0.3579229150E+00
    0.4700000000E+04    0.6417372857E+00    0.6520826689E-01    0.2155788693E+00    0.1415035456E-01    0.3592347994E+00
    0.4900000000E+04    0.6427397572E+00    0.6420339618E-01    0.2162496828E+00    0.1417340497E-01    0.3604742173E+00
    0.1000000000E+04    0.5531660880E+00    0.1102291191E+00    0.1819333012E+00    0.1217033914E-01    0.2997146688E+00
    0.3000000000E+04    0.6276883670E+00    0.7673826542E-01    0.2076221357E+00    0.1383088417E-01    0.3447487422E+00
    0.5000000000E+04    0.6432102620E+00    0.6372021097E-01    0.2165708944E+00    0.1418424056E-01    0.3610688594E+00
    0.7000000000E+04    0.6497441702E+00    0.5605202559E-01    0.2215484978E+00    0.1433619206E-01    0.3703918891E+00
    0.9000000000E+04    0.6533204439E+00    0.5078678646E-01    0.2248304166E+00    0.1442113772E-01    0.3766730448E+00
    0.1100000000E+05    0.6555708786E+00    0.4686166555E-01    0.2272014049E+00    0.1447571814E-01    0.3812961779E+00
    0.1300000000E+05    0.6571155068E+00    0.4377964933E-01    0.2290159583E+00    0.1451395823E-01    0.3848937382E+00
    0.1500000000E+05    0.6582405335E+00    0.4127102317E-01    0.2304611328E+00    0.1454237926E-01    0.3878028239E+00
    0.1700000000E+05    0.6590960861E+00    0.3917434528E-01    0.2316463051E+00    0.1456442682E-01    0.3902223256E+00
    0.1900000000E+05    0.6597684075E+00    0.3738597549E-01    0.2326403034E+00    0.1458209461E-01    0.3922784310E+00
    0.2100000000E+05    0.6603105350E+00    0.3583577898E-01    0.2334889027E+00    0.1459661759E-01    0.3940557017E+00
    0.2300000000E+05    0.6607568637E+00    0.3447429661E-01    0.2342238921E+00    0.1460880236E-01    0.3956132812E+00
    0.2500000000E+05    0.6611306679E+00    0.3326547271E-01    0.2348681303E+00    0.1461919864E-01    0.3969939826E+00
    0.2700000000E+05    0.6614482562E+00    0.3218229471E-01    0.2354385315E+00    0.1462819434E-01    0.3982296874E+00
    0.2900000000E+05    0.6617213935E+00    0.3120405619E-01    0.2359479157E+00    0.1463607131E-01    0.3993447057E+00
    0.3100000000E+05    0.6619587796E+00    0.3031457242E-01    0.2364061997E+00    0.1464303940E-01    0.4003579513E+00
    0.3300000000E+05    0.6621669854E+00    0.2950097876E-01    0.2368211903E+00    0.1464925823E-01    0.4012843972E+00
    0.3500000000E+05    0.6623510660E+00    0.2875289901E-01    0.2371991283E+00    0.1465485145E-01    0.4021360766E+00
    0.3700000000E+05    0.6625149739E+00    0.2806185586E-01    0.2375450699E+00    0.1465991642E-01    0.4029227891E+00
    0.3900000000E+05    0.6626618439E+00    0.2742084406E-01    0.2378631605E+00    0.1466453087E-01    0.4036526091E+00
    0.4100000000E+05    0.6627941938E+00    0.2682401574E-01    0.2381568350E+00    0.1466875767E-01    0.4043322600E+00
    0.4300000000E+05    0.6629140690E+00    0.2626644443E-01    0.2384289668E+00    0.1467264823E-01    0.4049673924E+00
    0.4500000000E+05    0.6630231486E+00    0.2574394560E-01    0.2386819804E+00    0.1467624504E-01    0.4055627960E+00
    0.4700000000E+05    0.6631228234E+00    0.2525293821E-01    0.2389179375E+00    0.1467958354E-01    0.4061225620E+00
    0.4900000000E+05    0.6632142554E+00    0.2479033678E-01    0.2391386035E+00    0.1468269353E-01    0.4066502093E+00
    0.1000000000E+05    0.6545608615E+00    0.4869533155E-01    0.2261019969E+00    0.1445108278E-01    0.3791424478E+00
    0.3000000000E+05    0.6618441033E+00    0.3074909064E-01    0.2361829152E+00    0.1463965800E-01    0.3998630354E+00
    0.5000000000E+05    0.6632571924E+00    0.2456883822E-01    0.2392436863E+00    0.1468417088E-01    0.4069029565E+00
    0.7000000000E+05    0.6638555713E+00    0.2113501555E-01    0.2408214347E+00    0.1470622507E-01    0.4108341450E+00
    0.9000000000E+05    0.6641852743E+00    0.1886462698E-01    0.2418047286E+00    0.1472013653E-01    0.4134545411E+00
    0.1100000000E+06    0.6643936638E+00    0.1721704371E-01    0.2424827608E+00    0.1473004649E-01    0.4153729051E+00
    0.1300000000E+06    0.6645370569E+00    0.1594945306E-01    0.2429808795E+00    0.1473763971E-01    0.4168618695E+00
    0.1500000000E+06    0.6646416135E+00    0.1493416570E-01    0.2433631093E+00    0.1474374552E-01    0.4180647504E+00
    0.1700000000E+06    0.6647211321E+00    0.1409666057E-01    0.2436658860E+00    0.1474882581E-01    0.4190652645E+00
    0.1900000000E+06    0.6647835762E+00    0.1339008633E-01    0.2439116076E+00    0.1475316126E-01    0.4199161305E+00
    0.2100000000E+06    0.6648338620E+00    0.1278329091E-01    0.2441148643E+00    0.1475693382E-01    0.4206524749E+00
    0.2300000000E+06    0.6648751877E+00    0.1225463439E-01    0.2442856005E+00    0.1476026752E-01    0.4212987561E+00
    0.2500000000E+06    0.6649097230E+00    0.1178854637E-01    0.2444308450E+00    0.1476325034E-01    0.4218726171E+00
    0.2700000000E+06    0.6649389915E+00    0.1137349495E-01    0.2445557169E+00    0.1476594675E-01    0.4223871596E+00
    0.2900000000E+06    0.6649640941E+00    0.1100073009E-01    0.2446640385E+00    0.1476840531E-01    0.4228523516E+00
    0.3100000000E+06    0.6649858460E+00    0.1066347459E-01    0.2447587252E+00    0.1477066342E-01    0.4232759348E+00
    0.3300000000E+06    0.6650048636E+00    0.1035638564E-01    0.2448420416E+00    0.1477275046E-01    0.4236640295E+00
    0.3500000000E+06    0.6650216215E+00    0.1007518593E-01    0.2449157753E+00    0.1477468989E-01    0.4240215487E+00
    0.3700000000E+06    0.6650364910E+00    0.9816404600E-02    0.2449813566E+00    0.1477650076E-01    0.4243524904E+00
    0.3900000000E+06    0.6650497666E+00    0.9577191348E-02    0.2450399447E+00    0.1477819869E-01    0.4246601465E+00
    0.4100000000E+06    0.6650616851E+00    0.9355180421E-02    0.2450924891E+00    0.1477979665E-01    0.4249472569E+00
    0.4300000000E+06    0.6650724387E+00    0.9148389396E-02    0.2451397752E+00    0.1478130556E-01    0.4252161237E+00
    0.4500000000E+06    0.6650821854E+00    0.8955142689E-02    0.2451824589E+00    0.1478273463E-01    0.4254686977E+00
    0.4700000000E+06    0.6650910558E+00    0.8774012960E-02    0.2452210920E+00    0.1478409175E-01    0.4257066454E+00
    0.4900000000E+06    0.6650991592E+00    0.8603775649E-02    0.2452561421E+00    0.1478538371E-01    0.4259313999E+00
    0.1000000000E+06    0.6643000514E+00    0.1798203475E-01    0.2421719836E+00    0.1472545676E-01    0.4144800811E+00
    0.3000000000E+06    0.6649753465E+00    0.1082802624E-01    0.2447129318E+00    0.1476955742E-01    0.4230689294E+00
    0.5000000000E+06    0.6651029526E+00    0.8522405486E-02    0.2452724506E+00    0.1478600713E-01    0.4260392241E+00
    0.7000000000E+06    0.6651547368E+00    0.7272427669E-02    0.2454823473E+00    0.1479614388E-01    0.4277323056E+00
    0.9000000000E+06    0.6651819155E+00    0.6457472416E-02    0.2455699942E+00    0.1480346745E-01    0.4288815337E+00
    0.1100000000E+07    0.6651982017E+00    0.5871606107E-02    0.2456025124E+00    0.1480919915E-01    0.4297364251E+00
    0.1300000000E+07    0.6652087778E+00    0.5423948188E-02    0.2456065820E+00    0.1481390708E-01    0.4304094682E+00
    0.1500000000E+07    0.6652160205E+00    0.5067290557E-02    0.2455947471E+00    0.1481790140E-01    0.4309602075E+00
    0.1700000000E+07    0.6652211661E+00    0.4774336051E-02    0.2455735823E+00    0.1482136992E-01    0.4314236645E+00
    0.1900000000E+07    0.6652249176E+00    0.4528048179E-02    0.2455468051E+00    0.1482443496E-01    0.4318220401E+00
    0.2100000000E+07    0.6652277027E+00    0.4317166730E-02    0.2455166361E+00    0.1482718060E-01    0.4321702211E+00
    0.2300000000E+07    0.6652297951E+00    0.4133908854E-02    0.2454844579E+00    0.1482966715E-01    0.4324786368E+00
    0.2500000000E+07    0.6652313774E+00    0.3972698529E-02    0.2454511579E+00    0.1483193929E-01    0.4327548543E+00
    0.2700000000E+07    0.6652325758E+00    0.3829421290E-02    0.2454173187E+00    0.1483403108E-01    0.4330045242E+00
    0.2900000000E+07    0.6652334800E+00    0.3700965356E-02    0.2453833292E+00    0.1483596905E-01    0.4332319690E+00
    0.3100000000E+07    0.6652341550E+00    0.3584927515E-02    0.2453494511E+00    0.1483777429E-01    0.4334405630E+00
    0.3300000000E+07    0.6652346493E+00    0.3479418082E-02    0.2453158615E+00    0.1483946382E-01    0.4336329870E+00
    0.3500000000E+07    0.6652349995E+00    0.3382927756E-02    0.2452826791E+00    0.1484105158E-01    0.4338114033E+00
    0.3700000000E+07    0.6652352335E+00    0.3294234396E-02    0.2452499831E+00    0.1484254915E-01    0.4339775795E+00
    0.3900000000E+07    0.6652353732E+00    0.3212336313E-02    0.2452178240E+00    0.1484396623E-01    0.4341329776E+00
    0.4100000000E+07    0.6652354358E+00    0.3136403579E-02    0.2451862331E+00    0.1484531104E-01    0.4342788195E+00
    0.4300000000E+07    0.6652354349E+00    0.3065741881E-02    0.2451552271E+00    0.1484659059E-01    0.4344161363E+00
    0.4500000000E+07    0.6652353816E+00    0.2999765265E-02    0.2451248129E+00    0.1484781094E-01    0.4345458052E+00
    0.4700000000E+07    0.6652352847E+00    0.2937975293E-02    0.2450949902E+00    0.1484897731E-01    0.4346685784E+00
    0.4900000000E+07    0.6652351516E+00    0.2879944900E-02    0.2450657535E+00    0.1485009428E-01    0.4347851053E+00
    0.1000000000E+07    0.6651909971E+00    0.6143060590E-02    0.2455909854E+00    0.1480648818E-01    0.4293369604E+00
    0.3000000000E+07    0.6652338428E+00    0.3641522518E-02    0.2453663636E+00    0.1483688712E-01    0.4333384409E+00
    0.5000000000E+07    0.6652350733E+00    0.2852222438E-02    0.2450513523E+00    0.1485063553E-01    0.4348412056E+00
    0.7000000000E+07    0.6652326105E+00    0.2427566271E-02    0.2447910145E+00    0.1485962785E-01    0.4357402222E+00
    0.9000000000E+07    0.6652295969E+00    0.2151906746E-02    0.2445736999E+00    0.1486632290E-01    0.4363721336E+00
    0.1100000000E+08    0.6652266348E+00    0.1954317044E-02    0.2443878400E+00    0.1487165932E-01    0.4368552397E+00
    0.1300000000E+08    0.6652238616E+00    0.1803663667E-02    0.2442255664E+00    0.1487609688E-01    0.4372442234E+00
    0.1500000000E+08    0.6652212980E+00    0.1683834775E-02    0.2440815453E+00    0.1487989539E-01    0.4375686349E+00
    0.1700000000E+08    0.6652189322E+00    0.1585540350E-02    0.2439520454E+00    0.1488321608E-01    0.4378461650E+00
    0.1900000000E+08    0.6652167443E+00    0.1502995364E-02    0.2438343678E+00    0.1488616594E-01    0.4380882041E+00
    0.2100000000E+08    0.6652147138E+00    0.1432383239E-02    0.2437265018E+00    0.1488881960E-01    0.4383024966E+00
    0.2300000000E+08    0.6652128221E+00    0.1371070090E-02    0.2436269105E+00    0.1489123121E-01    0.4384945363E+00
    0.2500000000E+08    0.6652110529E+00    0.1317171356E-02    0.2435343930E+00    0.1489344129E-01    0.4386683551E+00
    0.2700000000E+08    0.6652093924E+00    0.1269298039E-02    0.2434479937E+00    0.1489548099E-01    0.4388269955E+00
