  Pressure (Pa) 22mC5-400 (mol/kg) 2mC6-400 (mol/kg) 3mC6-400 (mol/kg) 23mC5-400 (mol/kg) C7-400 (mol/kg)
    0.1000000000E+01    0.4217186699E-02    0.3964542522E-02    0.1056120193E-02    0.3702473019E-03    0.1713749926E-02
    0.3000000000E+01    0.1239126853E-01    0.1158115830E-01    0.3113315612E-02    0.1087906650E-02    0.5052292426E-02
    0.5000000000E+01    0.2023899659E-01    0.1880582328E-01    0.5100482576E-02    0.1776934845E-02    0.8277656737E-02
    0.7000000000E+01    0.2778313232E-01    0.2566577641E-01    0.7021400330E-02    0.2439328436E-02    0.1139594365E-01
    0.9000000000E+01    0.3504430937E-01    0.3218581989E-01    0.8879576644E-02    0.3076897348E-02    0.1441281596E-01
    0.1100000000E+02    0.4204127654E-01    0.3838858584E-01    0.1067827189E-01    0.3691286192E-02    0.1733353728E-01
    0.1300000000E+02    0.4879110841E-01    0.4429476852E-01    0.1242052061E-01    0.4283992729E-02    0.2016300686E-01
    0.1500000000E+02    0.5530938830E-01    0.4992332736E-01    0.1410915082E-01    0.4856383925E-02    0.2290579072E-01
    0.1700000000E+02    0.6161036793E-01    0.5529166488E-01    0.1574680143E-01    0.5409709950E-02    0.2556614970E-01
    0.1900000000E+02    0.6770710699E-01    0.6041578310E-01    0.1733593785E-01    0.5945116417E-02    0.2814806473E-01
    0.2100000000E+02    0.7361159563E-01    0.6531042145E-01    0.1887886613E-01    0.6463655129E-02    0.3065525952E-01
    0.2300000000E+02    0.7933486210E-01    0.6998917869E-01    0.2037774570E-01    0.6966293514E-02    0.3309122122E-01
    0.2500000000E+02    0.8488706776E-01    0.7446462084E-01    0.2183460092E-01    0.7453922966E-02    0.3545921901E-01
    0.2700000000E+02    0.9027759101E-01    0.7874837723E-01    0.2325133155E-01    0.7927366197E-02    0.3776232095E-01
    0.2900000000E+02    0.9551510171E-01    0.8285122582E-01    0.2462972227E-01    0.8387383772E-02    0.4000340939E-01
    0.3100000000E+02    0.1006076273E+00    0.8678316953E-01    0.2597145130E-01    0.8834679901E-02    0.4218519487E-01
    0.3300000000E+02    0.1055626114E+00    0.9055350437E-01    0.2727809829E-01    0.9269907600E-02    0.4431022882E-01
    0.3500000000E+02    0.1103869669E+00    0.9417088054E-01    0.2855115152E-01    0.9693673297E-02    0.4638091520E-01
    0.3700000000E+02    0.1150871222E+00    0.9764335731E-01    0.2979201443E-01    0.1010654095E-01    0.4839952106E-01
    0.3900000000E+02    0.1196690635E+00    0.1009784524E+00    0.3100201165E-01    0.1050903572E-01    0.5036818619E-01
    0.4100000000E+02    0.1241383730E+00    0.1041831864E+00    0.3218239449E-01    0.1090164732E-01    0.5228893207E-01
    0.4300000000E+02    0.1285002619E+00    0.1072641230E+00    0.3333434600E-01    0.1128483294E-01    0.5416366996E-01
    0.4500000000E+02    0.1327596020E+00    0.1102274055E+00    0.3445898556E-01    0.1165901997E-01    0.5599420836E-01
    0.4700000000E+02    0.1369209527E+00    0.1130787893E+00    0.3555737320E-01    0.1202460842E-01    0.5778225994E-01
    0.4900000000E+02    0.1409885859E+00    0.1158236723E+00    0.3663051345E-01    0.1238197305E-01    0.5952944779E-01
    0.1000000000E+02    0.3857471506E-01    0.3532552626E-01    0.9786164686E-02    0.3386892425E-02    0.1588488113E-01
    0.3000000000E+02    0.9807900936E-01    0.8483796397E-01    0.2530506855E-01    0.8612580061E-02    0.4110155195E-01
    0.5000000000E+02    0.1429885205E+00    0.1171577717E+00    0.3715791545E-01    0.1255768217E-01    0.6038820200E-01
    0.7000000000E+02    0.1789196819E+00    0.1393275662E+00    0.4658770117E-01    0.1571491908E-01    0.7575282712E-01
    0.9000000000E+02    0.2088155461E+00    0.1550688508E+00    0.5432469695E-01    0.1834249658E-01    0.8837566861E-01
    0.1100000000E+03    0.2343809682E+00    0.1665244777E+00    0.6082741614E-01    0.2058999621E-01    0.9899808750E-01
    0.1300000000E+03    0.2566816306E+00    0.1750094383E+00    0.6639905509E-01    0.2255092353E-01    0.1081105286E+00
    0.1500000000E+03    0.2764249059E+00    0.1813713415E+00    0.7124861976E-01    0.2428734747E-01    0.1160512204E+00
    0.1700000000E+03    0.2941037615E+00    0.1861782907E+00    0.7552519058E-01    0.2584252542E-01    0.1230615172E+00
    0.1900000000E+03    0.3100758522E+00    0.1898233331E+00    0.7933818259E-01    0.2724784236E-01    0.1293186303E+00
    0.2100000000E+03    0.3246095485E+00    0.1925856406E+00    0.8276986750E-01    0.2852684926E-01    0.1349558635E+00
    0.2300000000E+03    0.3379120290E+00    0.1946679283E+00    0.8588340806E-01    0.2969772791E-01    0.1400756001E+00
    0.2500000000E+03    0.3501471346E+00    0.1962201833E+00    0.8872818081E-01    0.3077485746E-01    0.1447579082E+00
    0.2700000000E+03    0.3614471204E+00    0.1973551857E+00    0.9134340151E-01    0.3176984557E-01    0.1490664048E+00
    0.2900000000E+03    0.3719206324E+00    0.1981589346E+00    0.9376065524E-01    0.3269222826E-01    0.1530523477E+00
    0.3100000000E+03    0.3816582706E+00    0.1986978156E+00    0.9600570018E-01    0.3354995808E-01    0.1567575549E+00
    0.3300000000E+03    0.3907365656E+00    0.1990236296E+00    0.9809977831E-01    0.3434975300E-01    0.1602165251E+00
    0.3500000000E+03    0.3992208842E+00    0.1991771848E+00    0.1000605843E+00    0.3509735136E-01    0.1634580070E+00
    0.3700000000E+03    0.4071675949E+00    0.1991909039E+00    0.1019029926E+00    0.3579770193E-01    0.1665061760E+00
    0.3900000000E+03    0.4146257129E+00    0.1990907438E+00    0.1036396110E+00    0.3645510810E-01    0.1693815308E+00
    0.4100000000E+03    0.4216381682E+00    0.1988976268E+00    0.1052812068E+00    0.3707333933E-01    0.1721015845E+00
    0.4300000000E+03    0.4282428010E+00    0.1986285209E+00    0.1068370400E+00    0.3765571834E-01    0.1746814033E+00
    0.4500000000E+03    0.4344731513E+00    0.1982972631E+00    0.1083151245E+00    0.3820519050E-01    0.1771340312E+00
    0.4700000000E+03    0.4403590953E+00    0.1979151935E+00    0.1097224375E+00    0.3872437958E-01    0.1794708280E+00
    0.4900000000E+03    0.4459273628E+00    0.1974916472E+00    0.1110650860E+00    0.3921563321E-01    0.1817017409E+00
    0.1000000000E+03    0.2220622031E+00    0.1612361746E+00    0.5770864397E-01    0.1950696852E-01    0.9390183879E-01
    0.3000000000E+03    0.3768763612E+00    0.1984579520E+00    0.9490328307E-01    0.3312872933E-01    0.1549377362E+00
    0.5000000000E+03    0.4485999668E+00    0.1972667859E+00    0.1117138657E+00    0.3945145169E-01    0.1827802680E+00
    0.7000000000E+03    0.4900911534E+00    0.1918895842E+00    0.1223133084E+00    0.4311559267E-01    0.2004527931E+00
    0.9000000000E+03    0.5167407471E+00    0.1862763562E+00    0.1299799092E+00    0.4547333479E-01    0.2133021834E+00
    0.1100000000E+04    0.5350944431E+00    0.1810846522E+00    0.1359531359E+00    0.4710016606E-01    0.2233566049E+00
    0.1300000000E+04    0.5484000946E+00    0.1763885780E+00    0.1408278645E+00    0.4828182393E-01    0.2315922103E+00
    0.1500000000E+04    0.5584344558E+00    0.1721440145E+00    0.1449338087E+00    0.4917472377E-01    0.2385513893E+00
    0.1700000000E+04    0.5662421518E+00    0.1682888804E+00    0.1484722811E+00    0.4987088727E-01    0.2445660515E+00
    0.1900000000E+04    0.5724731351E+00    0.1647660602E+00    0.1515750512E+00    0.5042760571E-01    0.2498538923E+00
    0.2100000000E+04    0.5775508086E+00    0.1615275683E+00    0.1543330077E+00    0.5088222463E-01    0.2545653504E+00
    0.2300000000E+04    0.5817616982E+00    0.1585340430E+00    0.1568114572E+00    0.5126003288E-01    0.2588087078E+00
    0.2500000000E+04    0.5853060223E+00    0.1557532824E+00    0.1590588859E+00    0.5157871328E-01    0.2626644874E+00
    0.2700000000E+04    0.5883275717E+00    0.1531588057E+00    0.1611122706E+00    0.5185097342E-01    0.2661941905E+00
    0.2900000000E+04    0.5909320808E+00    0.1507286617E+00    0.1630004479E+00    0.5208616384E-01    0.2694458472E+00
    0.3100000000E+04    0.5931989158E+00    0.1484444918E+00    0.1647463358E+00    0.5229130794E-01    0.2724576808E+00
    0.3300000000E+04    0.5951887371E+00    0.1462908070E+00    0.1663684464E+00    0.5247177737E-01    0.2752606050E+00
    0.3500000000E+04    0.5969486552E+00    0.1442544287E+00    0.1678819437E+00    0.5263174673E-01    0.2778799737E+00
    0.3700000000E+04    0.5985157825E+00    0.1423240567E+00    0.1692994037E+00    0.5277450695E-01    0.2803368370E+00
    0.3900000000E+04    0.5999197309E+00    0.1404899306E+00    0.1706313690E+00    0.5290268563E-01    0.2826488613E+00
    0.4100000000E+04    0.6011844007E+00    0.1387435639E+00    0.1718867635E+00    0.5301840505E-01    0.2848310161E+00
    0.4300000000E+04    0.6023292848E+00    0.1370775322E+00    0.1730732062E+00    0.5312339733E-01    0.2868960947E+00
    0.4500000000E+04    0.6033704319E+00    0.1354853039E+00    0.1741972527E+00    0.5321908956E-01    0.2888551157E+00
    0.4700000000E+04    0.6043211708E+00    0.1339611025E+00    0.1752645832E+00    0.5330666777E-01    0.2907176352E+00
    0.4900000000E+04    0.6051926586E+00    0.1324997953E+00    0.1762801511E+00    0.5338712549E-01    0.2924919941E+00
    0.1000000000E+04    0.5267038435E+00    0.1836181198E+00    0.1331322565E+00    0.4635605906E-01    0.2186034402E+00
    0.3000000000E+04    0.5921035478E+00    0.1495693581E+00    0.1638899319E+00    0.5219212341E-01    0.2709796619E+00
    0.5000000000E+04    0.6056016823E+00    0.1317912760E+00    0.1767699028E+00    0.5342495139E-01    0.2933484368E+00
    0.7000000000E+04    0.6112815972E+00    0.1200314919E+00    0.1846683436E+00    0.5395577456E-01    0.3072346120E+00
    0.9000000000E+04    0.6143899283E+00    0.1113843481E+00    0.1902327988E+00    0.5425294578E-01    0.3171108024E+00
    0.1100000000E+05    0.6163450729E+00    0.1046264515E+00    0.1944581915E+00    0.5444410740E-01    0.3246703833E+00
    0.1300000000E+05    0.6176861347E+00    0.9912915794E-01    0.1978231181E+00    0.5457815914E-01    0.3307326728E+00
    0.1500000000E+05    0.6186620696E+00    0.9452802919E-01    0.2005929405E+00    0.5467786050E-01    0.3357541641E+00
    0.1700000000E+05    0.6194035135E+00    0.9059374206E-01    0.2029292696E+00    0.5475524766E-01    0.3400140554E+00
    0.1900000000E+05    0.6199855318E+00    0.8717310782E-01    0.2049373660E+00    0.5481729062E-01    0.3436948876E+00
    0.2100000000E+05    0.6204542958E+00    0.8415901380E-01    0.2066893481E+00    0.5486830971E-01    0.3469221619E+00
    0.2300000000E+05    0.6208397500E+00    0.8147380961E-01    0.2082366250E+00    0.5491112850E-01    0.3497856275E+00
    0.2500000000E+05    0.6211621574E+00    0.7905952766E-01    0.2096170319E+00    0.5494767229E-01    0.3523515338E+00
    0.2700000000E+05    0.6214357155E+00    0.7687182873E-01    0.2108591558E+00    0.5497930036E-01    0.3546700770E+00
    0.2900000000E+05    0.6216706654E+00    0.7487609535E-01    0.2119850777E+00    0.5500700065E-01    0.3567801319E+00
    0.3100000000E+05    0.6218745786E+00    0.7304482222E-01    0.2130121762E+00    0.5503150908E-01    0.3587123713E+00
    0.3300000000E+05    0.6220531730E+00    0.7135582096E-01    0.2139543522E+00    0.5505338557E-01    0.3604913886E+00
    0.3500000000E+05    0.6222108464E+00    0.6979095344E-01    0.2148228821E+00    0.5507306400E-01    0.3621371800E+00
    0.3700000000E+05    0.6223510365E+00    0.6833521805E-01    0.2156270278E+00    0.5509088604E-01    0.3636662054E+00
    0.3900000000E+05    0.6224764689E+00    0.6697607777E-01    0.2163744805E+00    0.5510712458E-01    0.3650921618E+00
    0.4100000000E+05    0.6225893321E+00    0.6570295745E-01    0.2170716898E+00    0.5512200038E-01    0.3664265590E+00
    0.4300000000E+05    0.6226914037E+00    0.6450686181E-01    0.2177241120E+00    0.5513569401E-01    0.3676791532E+00
    0.4500000000E+05    0.6227841422E+00    0.6338008135E-01    0.2183363999E+00    0.5514835472E-01    0.3688582799E+00
    0.4700000000E+05    0.6228687553E+00    0.6231596285E-01    0.2189125501E+00    0.5516010702E-01    0.3699711120E+00
    0.4900000000E+05    0.6229462518E+00    0.6130872848E-01    0.2194560178E+00    0.5517105562E-01    0.3710238622E+00
    0.1000000000E+05    0.6154677196E+00    0.1078170592E+00    0.1924759366E+00    0.5435780126E-01    0.3211170216E+00
    0.3000000000E+05    0.6217761081E+00    0.7394139573E-01    0.2125100410E+00    0.5501961541E-01    0.3577668188E+00
    0.5000000000E+05    0.6229826019E+00    0.6082484053E-01    0.2197164504E+00    0.5517625681E-01    0.3715294259E+00
    0.7000000000E+05    0.6234854564E+00    0.5318768435E-01    0.2237686043E+00    0.5525391772E-01    0.3794970539E+00
    0.9000000000E+05    0.6237579964E+00    0.4799518810E-01    0.2264571576E+00    0.5530291894E-01    0.3849099667E+00
    0.1100000000E+06    0.6239273538E+00    0.4415387553E-01    0.2284078097E+00    0.5533783061E-01    0.3889183357E+00
    0.1300000000E+06    0.6240418697E+00    0.4115576960E-01    0.2299053979E+00    0.5536458309E-01    0.3920524474E+00
    0.1500000000E+06    0.6241238830E+00    0.3872719243E-01    0.2311010422E+00    0.5538609639E-01    0.3945967471E+00
    0.1700000000E+06    0.6241851146E+00    0.3670542443E-01    0.2320834781E+00    0.5540399716E-01    0.3967199013E+00
    0.1900000000E+06    0.6242322928E+00    0.3498662549E-01    0.2329087344E+00    0.5541927392E-01    0.3985293645E+00
    0.2100000000E+06    0.6242695489E+00    0.3350089248E-01    0.2336141803E+00    0.5543256759E-01    0.4000974001E+00
    0.2300000000E+06    0.6242995559E+00    0.3219915608E-01    0.2342258307E+00    0.5544431507E-01    0.4014747053E+00
    0.2500000000E+06    0.6243241170E+00    0.3104578982E-01    0.2347624322E+00    0.5545482630E-01    0.4026980798E+00
    0.2700000000E+06    0.6243444916E+00    0.3001419870E-01    0.2352378824E+00    0.5546432843E-01    0.4037949943E+00
    0.2900000000E+06    0.6243615843E+00    0.2908406192E-01    0.2356627324E+00    0.5547299251E-01    0.4047864422E+00
    0.3100000000E+06    0.6243760614E+00    0.2823954190E-01    0.2360451563E+00    0.5548095030E-01    0.4056887903E+00
    0.3300000000E+06    0.6243884237E+00    0.2746808273E-01    0.2363915981E+00    0.5548830533E-01    0.4065150194E+00
    0.3500000000E+06    0.6243990546E+00    0.2675958112E-01    0.2367072154E+00    0.5549514028E-01    0.4072755797E+00
    0.3700000000E+06    0.6244082522E+00    0.2610580045E-01    0.2369961914E+00    0.5550152220E-01    0.4079789954E+00
    0.3900000000E+06    0.6244162518E+00    0.2549994779E-01    0.2372619596E+00    0.5550750615E-01    0.4086323008E+00
    0.4100000000E+06    0.6244232413E+00    0.2493636276E-01    0.2375073678E+00    0.5551313788E-01    0.4092413613E+00
    0.4300000000E+06    0.6244293723E+00    0.2441028479E-01    0.2377348003E+00    0.5551845578E-01    0.4098111132E+00
    0.4500000000E+06    0.6244347686E+00    0.2391767650E-01    0.2379462706E+00    0.5552349237E-01    0.4103457457E+00
    0.4700000000E+06    0.6244395322E+00    0.2345508775E-01    0.2381434921E+00    0.5552827545E-01    0.4108488415E+00
    0.4900000000E+06    0.6244437475E+00    0.2301954977E-01    0.2383279335E+00    0.5553282891E-01    0.4113234855E+00
    0.1000000000E+06    0.6238516347E+00    0.4594518752E-01    0.2275024378E+00    0.5532166103E-01    0.3870483669E+00
    0.3000000000E+06    0.6243691153E+00    0.2865195032E-01    0.2358588103E+00    0.5547705266E-01    0.4052478746E+00
    0.5000000000E+06    0.6244456722E+00    0.2281110782E-01    0.2384157643E+00    0.5553502611E-01    0.4115509876E+00
    0.7000000000E+06    0.6244677020E+00    0.1958757303E-01    0.2397337776E+00    0.5557075427E-01    0.4151018638E+00
    0.9000000000E+06    0.6244740401E+00    0.1746393594E-01    0.2405533562E+00    0.5559656888E-01    0.4174822040E+00
    0.1100000000E+07    0.6244743387E+00    0.1592642856E-01    0.2411166205E+00    0.5561677350E-01    0.4192320357E+00
    0.1300000000E+07    0.6244719661E+00    0.1474546670E-01    0.2415287731E+00    0.5563337005E-01    0.4205945752E+00
    0.1500000000E+07    0.6244683370E+00    0.1380072964E-01    0.2418436225E+00    0.5564745154E-01    0.4216982187E+00
    0.1700000000E+07    0.6244641179E+00    0.1302217215E-01    0.2420918124E+00    0.5565967983E-01    0.4226182215E+00
    0.1900000000E+07    0.6244596476E+00    0.1236584164E-01    0.2422921855E+00    0.5567048598E-01    0.4234021075E+00
    0.2100000000E+07    0.6244551064E+00    0.1180255837E-01    0.2424570157E+00    0.5568016637E-01    0.4240816173E+00
    0.2300000000E+07    0.6244505932E+00    0.1131207811E-01    0.2425946664E+00    0.5568893349E-01    0.4246788974E+00
    0.2500000000E+07    0.6244461621E+00    0.1087985008E-01    0.2427110466E+00    0.5569694485E-01    0.4252099525E+00
    0.2700000000E+07    0.6244418423E+00    0.1049510729E-01    0.2428104571E+00    0.5570432048E-01    0.4256866869E+00
    0.2900000000E+07    0.6244376483E+00    0.1014968644E-01    0.2428961070E+00    0.5571115389E-01    0.4261181708E+00
    0.3100000000E+07    0.6244335861E+00    0.9837269131E-02    0.2429704421E+00    0.5571751941E-01    0.4265114583E+00
    0.3300000000E+07    0.6244296564E+00    0.9552877233E-02    0.2430353609E+00    0.5572347703E-01    0.4268721325E+00
    0.3500000000E+07    0.6244258572E+00    0.9292527530E-02    0.2430923600E+00    0.5572907591E-01    0.4272046806E+00
    0.3700000000E+07    0.6244221844E+00    0.9052989381E-02    0.2431426361E+00    0.5573435685E-01    0.4275127575E+00
    0.3900000000E+07    0.6244186331E+00    0.8831610908E-02    0.2431871580E+00    0.5573935402E-01    0.4277993758E+00
    0.4100000000E+07    0.6244151980E+00    0.8626191925E-02    0.2432267182E+00    0.5574409640E-01    0.4280670451E+00
    0.4300000000E+07    0.6244118736E+00    0.8434889412E-02    0.2432619717E+00    0.5574860874E-01    0.4283178757E+00
    0.4500000000E+07    0.6244086544E+00    0.8256146138E-02    0.2432934647E+00    0.5575291232E-01    0.4285536576E+00
    0.4700000000E+07    0.6244055349E+00    0.8088635983E-02    0.2433216561E+00    0.5575702564E-01    0.4287759205E+00
    0.4900000000E+07    0.6244025102E+00    0.7931221555E-02    0.2433469346E+00    0.5576096482E-01    0.4289859814E+00
    0.1000000000E+07    0.6244746635E+00    0.1663994771E-01    0.2408587068E+00    0.5560721701E-01    0.4184168706E+00
    0.3000000000E+07    0.6244356006E+00    0.9989690231E-02    0.2429345594E+00    0.5571439110E-01    0.4263192107E+00
    0.5000000000E+07    0.6244010318E+00    0.7855988075E-02    0.2433585869E+00    0.5576287359E-01    0.4290867987E+00
    0.7000000000E+07    0.6243753947E+00    0.6700882079E-02    0.2434981516E+00    0.5579458839E-01    0.4306735442E+00
    0.9000000000E+07    0.6243552189E+00    0.5948368995E-02    0.2435411873E+00    0.5581820328E-01    0.4317547153E+00
    0.1100000000E+08    0.6243386229E+00    0.5407666164E-02    0.2435422696E+00    0.5583702743E-01    0.4325612653E+00
    0.1300000000E+08    0.6243245386E+00    0.4994667167E-02    0.2435226925E+00    0.5585268194E-01    0.4331976811E+00
    0.1500000000E+08    0.6243123095E+00    0.4665713549E-02    0.2434922585E+00    0.5586608282E-01    0.4337194190E+00
    0.1700000000E+08    0.6243015055E+00    0.4395573748E-02    0.2434559827E+00    0.5587779861E-01    0.4341591666E+00
    0.1900000000E+08    0.6242918299E+00    0.4168506770E-02    0.2434166217E+00    0.5588820655E-01    0.4345376824E+00
    0.2100000000E+08    0.6242830696E+00    0.3974112019E-02    0.2433757682E+00    0.5589756983E-01    0.4348689077E+00
    0.2300000000E+08    0.6242750667E+00    0.3805202722E-02    0.2433343750E+00    0.5590607939E-01    0.4351626227E+00
    0.2500000000E+08    0.6242677007E+00    0.3656631079E-02    0.2432930241E+00    0.5591387817E-01    0.4354259320E+00
    0.2700000000E+08    0.6242608778E+00    0.3524599337E-02    0.2432520747E+00    0.5592107593E-01    0.4356641468E+00
