  Pressure (Pa) 22mC5-400 (mol/kg) 2mC6-400 (mol/kg) 3mC6-400 (mol/kg) 23mC5-400 (mol/kg) C7-400 (mol/kg)
    0.1000000000E+01    0.4227434196E-02    0.1576141282E-02    0.5234116468E-03    0.2783599040E-03    0.1019245640E-01
    0.3000000000E+01    0.1247913327E-01    0.4549975431E-02    0.1516930538E-02    0.8217127814E-03    0.2954416165E-01
    0.5000000000E+01    0.2047174874E-01    0.7304918220E-02    0.2445289202E-02    0.1348019849E-02    0.4763268173E-01
    0.7000000000E+01    0.2821858440E-01    0.9861347321E-02    0.3314780079E-02    0.1858156214E-02    0.6457981042E-01
    0.9000000000E+01    0.3573202966E-01    0.1223720345E-01    0.4130907928E-02    0.2352936844E-02    0.8049210747E-01
    0.1100000000E+02    0.4302363647E-01    0.1444834889E-01    0.4898509445E-02    0.2833121626E-02    0.9546321107E-01
    0.1300000000E+02    0.5010418862E-01    0.1650886375E-01    0.5621851733E-02    0.3299419922E-02    0.1095757413E+00
    0.1500000000E+02    0.5698376443E-01    0.1843129233E-01    0.6304713837E-02    0.3752494694E-02    0.1229028768E+00
    0.1700000000E+02    0.6367179331E-01    0.2022684920E-01    0.6950454672E-02    0.4192966224E-02    0.1355096678E+00
    0.1900000000E+02    0.7017710713E-01    0.2190559259E-01    0.7562069900E-02    0.4621415489E-02    0.1474541362E+00
    0.2100000000E+02    0.7650798669E-01    0.2347657094E-01    0.8142239811E-02    0.5038387223E-02    0.1587882014E+00
    0.2300000000E+02    0.8267220407E-01    0.2494794749E-01    0.8693369822E-02    0.5444392696E-02    0.1695584632E+00
    0.2500000000E+02    0.8867706108E-01    0.2632710664E-01    0.9217624887E-02    0.5839912249E-02    0.1798068681E+00
    0.2700000000E+02    0.9452942434E-01    0.2762074513E-01    0.9716958865E-02    0.6225397594E-02    0.1895712763E+00
    0.2900000000E+02    0.1002357572E+00    0.2883495058E-01    0.1019313968E-01    0.6601273924E-02    0.1988859491E+00
    0.3100000000E+02    0.1058021492E+00    0.2997526938E-01    0.1064777096E-01    0.6967941830E-02    0.2077819675E+00
    0.3300000000E+02    0.1112343424E+00    0.3104676561E-01    0.1108231073E-01    0.7325779065E-02    0.2162875934E+00
    0.3500000000E+02    0.1165377562E+00    0.3205407231E-01    0.1149808763E-01    0.7675142149E-02    0.2244285832E+00
    0.3700000000E+02    0.1217175097E+00    0.3300143634E-01    0.1189631492E-01    0.8016367850E-02    0.2322284600E+00
    0.3900000000E+02    0.1267784424E+00    0.3389275768E-01    0.1227810284E-01    0.8349774537E-02    0.2397087513E+00
    0.4100000000E+02    0.1317251328E+00    0.3473162393E-01    0.1264446930E-01    0.8675663427E-02    0.2468891966E+00
    0.4300000000E+02    0.1365619165E+00    0.3552134084E-01    0.1299634931E-01    0.8994319736E-02    0.2537879300E+00
    0.4500000000E+02    0.1412929013E+00    0.3626495922E-01    0.1333460329E-01    0.9306013729E-02    0.2604216403E+00
    0.4700000000E+02    0.1459219832E+00    0.3696529885E-01    0.1366002436E-01    0.9611001697E-02    0.2668057132E+00
    0.4900000000E+02    0.1504528589E+00    0.3762496968E-01    0.1397334482E-01    0.9909526857E-02    0.2729543558E+00
    0.1000000000E+02    0.3940487165E-01    0.1336244634E-01    0.4520495463E-02    0.2594808247E-02    0.8808990636E-01
    0.3000000000E+02    0.1030360791E+00    0.2941401864E-01    0.1042305467E-01    0.6785734805E-02    0.2033844616E+00
    0.5000000000E+02    0.1526825736E+00    0.3794031725E-01    0.1412568097E-01    0.1005643852E-01    0.2759445359E+00
    0.7000000000E+02    0.1928868793E+00    0.4261433598E-01    0.1667719378E-01    0.1270575900E-01    0.3261064660E+00
    0.9000000000E+02    0.2263558910E+00    0.4512805904E-01    0.1854901047E-01    0.1491178688E-01    0.3630213072E+00
    0.1100000000E+03    0.2548097063E+00    0.4635919197E-01    0.1998492010E-01    0.1678769680E-01    0.3914267012E+00
    0.1300000000E+03    0.2793994314E+00    0.4680057832E-01    0.2112392840E-01    0.1840923073E-01    0.4140269506E+00
    0.1500000000E+03    0.3009288807E+00    0.4674497219E-01    0.2205122792E-01    0.1982928208E-01    0.4324812354E+00
    0.1700000000E+03    0.3199796247E+00    0.4637363428E-01    0.2282201835E-01    0.2108612213E-01    0.4478657556E+00
    0.1900000000E+03    0.3369852035E+00    0.4580234086E-01    0.2347368399E-01    0.2220828239E-01    0.4609101474E+00
    0.2100000000E+03    0.3522771123E+00    0.4510678940E-01    0.2403247296E-01    0.2321758007E-01    0.4721272401E+00
    0.2300000000E+03    0.3661143765E+00    0.4433732776E-01    0.2451737476E-01    0.2413106385E-01    0.4818884345E+00
    0.2500000000E+03    0.3787032004E+00    0.4352783840E-01    0.2494247926E-01    0.2496230669E-01    0.4904695893E+00
    0.2700000000E+03    0.3902104003E+00    0.4270127507E-01    0.2531846941E-01    0.2572228962E-01    0.4980800770E+00
    0.2900000000E+03    0.4007728245E+00    0.4187320908E-01    0.2565359795E-01    0.2642002158E-01    0.5048818073E+00
    0.3100000000E+03    0.4105041116E+00    0.4105415374E-01    0.2595434535E-01    0.2706298412E-01    0.5110020493E+00
    0.3300000000E+03    0.4194996386E+00    0.4025111809E-01    0.2622587421E-01    0.2765745692E-01    0.5165422932E+00
    0.3500000000E+03    0.4278402111E+00    0.3946866304E-01    0.2647235019E-01    0.2820876067E-01    0.5215845135E+00
    0.3700000000E+03    0.4355948612E+00    0.3870962954E-01    0.2669717316E-01    0.2872144114E-01    0.5261956816E+00
    0.3900000000E+03    0.4428230012E+00    0.3797564666E-01    0.2690314665E-01    0.2919941096E-01    0.5304310773E+00
    0.4100000000E+03    0.4495761046E+00    0.3726748981E-01    0.2709260402E-01    0.2964606015E-01    0.5343367547E+00
    0.4300000000E+03    0.4558990330E+00    0.3658533541E-01    0.2726750376E-01    0.3006434351E-01    0.5379514070E+00
    0.4500000000E+03    0.4618310970E+00    0.3592894304E-01    0.2742950240E-01    0.3045685043E-01    0.5413077941E+00
    0.4700000000E+03    0.4674069121E+00    0.3529778656E-01    0.2758001101E-01    0.3082586118E-01    0.5444338482E+00
    0.4900000000E+03    0.4726570962E+00    0.3469114865E-01    0.2772023937E-01    0.3117339285E-01    0.5473535400E+00
    0.1000000000E+03    0.2411276490E+00    0.4586696522E-01    0.1931109967E-01    0.1588560790E-01    0.3780863180E+00
    0.3000000000E+03    0.4057360194E+00    0.4146204920E-01    0.2580792003E-01    0.2674793156E-01    0.5080202506E+00
    0.5000000000E+03    0.4751686947E+00    0.3439676497E-01    0.2778683021E-01    0.3133967182E-01    0.5487425793E+00
    0.7000000000E+03    0.5135355378E+00    0.2957251986E-01    0.2877001492E-01    0.3388225813E-01    0.5694858963E+00
    0.9000000000E+03    0.5376853164E+00    0.2621576254E-01    0.2936416093E-01    0.3548603984E-01    0.5823145953E+00
    0.1100000000E+04    0.5541885204E+00    0.2375882848E-01    0.2976407673E-01    0.3658435106E-01    0.5911410958E+00
    0.1300000000E+04    0.5661341245E+00    0.2187829979E-01    0.3005238529E-01    0.3738106497E-01    0.5976399210E+00
    0.1500000000E+04    0.5751576505E+00    0.2038626206E-01    0.3027037949E-01    0.3798420472E-01    0.6026551852E+00
    0.1700000000E+04    0.5822019047E+00    0.1916808902E-01    0.3044108892E-01    0.3845608566E-01    0.6066615580E+00
    0.1900000000E+04    0.5878466453E+00    0.1815040076E-01    0.3057841237E-01    0.3883505481E-01    0.6099478012E+00
    0.2100000000E+04    0.5924670342E+00    0.1728417126E-01    0.3069125408E-01    0.3914594440E-01    0.6127003457E+00
    0.2300000000E+04    0.5963160883E+00    0.1653541823E-01    0.3078559196E-01    0.3940551391E-01    0.6150453005E+00
    0.2500000000E+04    0.5995703903E+00    0.1587983262E-01    0.3086559370E-01    0.3962546839E-01    0.6170712367E+00
    0.2700000000E+04    0.6023567816E+00    0.1529954764E-01    0.3093425665E-01    0.3981422184E-01    0.6188423167E+00
    0.2900000000E+04    0.6047686411E+00    0.1478112042E-01    0.3099379344E-01    0.3997797309E-01    0.6204062418E+00
    0.3100000000E+04    0.6068761883E+00    0.1431422863E-01    0.3104587404E-01    0.4012138696E-01    0.6217992672E+00
    0.3300000000E+04    0.6087332129E+00    0.1389080352E-01    0.3109178317E-01    0.4024803944E-01    0.6230494768E+00
    0.3500000000E+04    0.6103815953E+00    0.1350443807E-01    0.3113252575E-01    0.4036071687E-01    0.6241789880E+00
    0.3700000000E+04    0.6118544169E+00    0.1314997340E-01    0.3116889942E-01    0.4046162179E-01    0.6252054739E+00
    0.3900000000E+04    0.6131781474E+00    0.1282320377E-01    0.3120154552E-01    0.4055251785E-01    0.6261432394E+00
    0.4100000000E+04    0.6143742119E+00    0.1252066207E-01    0.3123098575E-01    0.4063483367E-01    0.6270039964E+00
    0.4300000000E+04    0.6154601343E+00    0.1223946132E-01    0.3125764883E-01    0.4070973859E-01    0.6277974335E+00
    0.4500000000E+04    0.6164503836E+00    0.1197717572E-01    0.3128189048E-01    0.4077819886E-01    0.6285316400E+00
    0.4700000000E+04    0.6173570099E+00    0.1173175010E-01    0.3130400826E-01    0.4084101976E-01    0.6292134267E+00
    0.4900000000E+04    0.6181901283E+00    0.1150143013E-01    0.3132425310E-01    0.4089887778E-01    0.6298485730E+00
    0.1000000000E+04    0.5466515853E+00    0.2489923818E-01    0.2958182003E-01    0.3608246622E-01    0.5870951283E+00
    0.3000000000E+04    0.6058567682E+00    0.1454178172E-01    0.3102067787E-01    0.4005197724E-01    0.6211222001E+00
    0.5000000000E+04    0.6185818471E+00    0.1139145519E-01    0.3133374103E-01    0.4092612809E-01    0.6301502276E+00
    0.7000000000E+04    0.6240731343E+00    0.9709823542E-02    0.3146320976E-01    0.4131219571E-01    0.6346264629E+00
    0.9000000000E+04    0.6271256928E+00    0.8619168576E-02    0.3152948422E-01    0.4153171106E-01    0.6373850520E+00
    0.1100000000E+05    0.6290666131E+00    0.7836671707E-02    0.3156697202E-01    0.4167440787E-01    0.6392904070E+00
    0.1300000000E+05    0.6304086266E+00    0.7239219058E-02    0.3158917850E-01    0.4177523580E-01    0.6407027306E+00
    0.1500000000E+05    0.6313913842E+00    0.6763317801E-02    0.3160244810E-01    0.4185065989E-01    0.6418012063E+00
    0.1700000000E+05    0.6321418148E+00    0.6372403592E-02    0.3161013227E-01    0.4190946898E-01    0.6426859303E+00
    0.1900000000E+05    0.6327333977E+00    0.6043710798E-02    0.3161415468E-01    0.4195679032E-01    0.6434176199E+00
    0.2100000000E+05    0.6332116052E+00    0.5762214130E-02    0.3161568994E-01    0.4199582127E-01    0.6440354502E+00
    0.2300000000E+05    0.6336060797E+00    0.5517537274E-02    0.3161549046E-01    0.4202866198E-01    0.6445659414E+00
    0.2500000000E+05    0.6339369676E+00    0.5302249782E-02    0.3161405683E-01    0.4205675061E-01    0.6450277515E+00
    0.2700000000E+05    0.6342184383E+00    0.5110870253E-02    0.3161173256E-01    0.4208110623E-01    0.6454344283E+00
    0.2900000000E+05    0.6344607466E+00    0.4939253529E-02    0.3160875939E-01    0.4210247187E-01    0.6457960716E+00
    0.3100000000E+05    0.6346714966E+00    0.4784198344E-02    0.3160531109E-01    0.4212140257E-01    0.6461203811E+00
    0.3300000000E+05    0.6348564458E+00    0.4643187329E-02    0.3160151477E-01    0.4213832167E-01    0.6464133406E+00
    0.3500000000E+05    0.6350200331E+00    0.4514209631E-02    0.3159746481E-01    0.4215355794E-01    0.6466796781E+00
    0.3700000000E+05    0.6351657359E+00    0.4395636764E-02    0.3159323219E-01    0.4216737081E-01    0.6469231847E+00
    0.3900000000E+05    0.6352963167E+00    0.4286133777E-02    0.3158887081E-01    0.4217996784E-01    0.6471469399E+00
    0.4100000000E+05    0.6354139977E+00    0.4184594446E-02    0.3158442202E-01    0.4219151723E-01    0.6473534734E+00
    0.4300000000E+05    0.6355205868E+00    0.4090093147E-02    0.3157991770E-01    0.4220215675E-01    0.6475448853E+00
    0.4500000000E+05    0.6356175699E+00    0.4001848581E-02    0.3157538261E-01    0.4221200044E-01    0.6477229352E+00
    0.4700000000E+05    0.6357061789E+00    0.3919196021E-02    0.3157083605E-01    0.4222114356E-01    0.6478891097E+00
    0.4900000000E+05    0.6357874446E+00    0.3841565832E-02    0.3156629309E-01    0.4222966629E-01    0.6480446745E+00
    0.1000000000E+05    0.6281934725E+00    0.8199120281E-02    0.3155073225E-01    0.4160982965E-01    0.6384156453E+00
    0.3000000000E+05    0.6345696705E+00    0.4859826714E-02    0.3160708579E-01    0.4211221255E-01    0.6459624851E+00
    0.5000000000E+05    0.6358256004E+00    0.3804477899E-02    0.3156402675E-01    0.4223371670E-01    0.6481188235E+00
    0.7000000000E+05    0.6363564009E+00    0.3236203887E-02    0.3152066241E-01    0.4229431451E-01    0.6492419477E+00
    0.9000000000E+05    0.6366472372E+00    0.2867201184E-02    0.3148222621E-01    0.4233265451E-01    0.6499598260E+00
    0.1100000000E+06    0.6368297440E+00    0.2602682066E-02    0.3144842232E-01    0.4236001179E-01    0.6504702403E+00
    0.1300000000E+06    0.6369543115E+00    0.2401003698E-02    0.3141844165E-01    0.4238099456E-01    0.6508577753E+00
    0.1500000000E+06    0.6370443485E+00    0.2240603703E-02    0.3139157083E-01    0.4239787784E-01    0.6511654347E+00
    0.1700000000E+06    0.6371121929E+00    0.2109044767E-02    0.3136724975E-01    0.4241193135E-01    0.6514176969E+00
    0.1900000000E+06    0.6371649557E+00    0.1998580097E-02    0.3134504631E-01    0.4242392780E-01    0.6516296574E+00
    0.2100000000E+06    0.6372070197E+00    0.1904098031E-02    0.3132462513E-01    0.4243436868E-01    0.6518112002E+00
    0.2300000000E+06    0.6372412305E+00    0.1822070545E-02    0.3130572258E-01    0.4244359614E-01    0.6519691057E+00
    0.2500000000E+06    0.6372695144E+00    0.1749973148E-02    0.3128812850E-01    0.4245185307E-01    0.6521082024E+00
    0.2700000000E+06    0.6372932210E+00    0.1685945119E-02    0.3127167303E-01    0.4245931756E-01    0.6522320353E+00
    0.2900000000E+06    0.6373133231E+00    0.1628580586E-02    0.3125621711E-01    0.4246612380E-01    0.6523432745E+00
    0.3100000000E+06    0.6373305392E+00    0.1576794778E-02    0.3124164556E-01    0.4247237519E-01    0.6524439751E+00
    0.3300000000E+06    0.6373454112E+00    0.1529735417E-02    0.3122786197E-01    0.4247815296E-01    0.6525357481E+00
    0.3500000000E+06    0.6373583551E+00    0.1486722298E-02    0.3121478486E-01    0.4248352206E-01    0.6526198776E+00
    0.3700000000E+06    0.6373696956E+00    0.1447205012E-02    0.3120234474E-01    0.4248853514E-01    0.6526974011E+00
    0.3900000000E+06    0.6373796894E+00    0.1410732724E-02    0.3119048192E-01    0.4249323544E-01    0.6527691675E+00
    0.4100000000E+06    0.6373885423E+00    0.1376932130E-02    0.3117914472E-01    0.4249765890E-01    0.6528358793E+00
    0.4300000000E+06    0.6373964209E+00    0.1345491099E-02    0.3116828812E-01    0.4250183569E-01    0.6528981235E+00
    0.4500000000E+06    0.6374034616E+00    0.1316146353E-02    0.3115787266E-01    0.4250579137E-01    0.6529563950E+00
    0.4700000000E+06    0.6374097772E+00    0.1288674047E-02    0.3114786356E-01    0.4250954776E-01    0.6530111145E+00
    0.4900000000E+06    0.6374154613E+00    0.1262882480E-02    0.3113822999E-01    0.4251312367E-01    0.6530626424E+00
    0.1000000000E+06    0.6367479327E+00    0.2725164055E-02    0.3146479595E-01    0.4234733724E-01    0.6502342599E+00
    0.3000000000E+06    0.6373222546E+00    0.1602048242E-02    0.3124882720E-01    0.4246931333E-01    0.6523948326E+00
    0.5000000000E+06    0.6374180916E+00    0.1250564426E-02    0.3113354535E-01    0.4251484912E-01    0.6530873081E+00
    0.7000000000E+06    0.6374513198E+00    0.1062140635E-02    0.3105425595E-01    0.4254289980E-01    0.6534700326E+00
    0.9000000000E+06    0.6374654361E+00    0.9401101346E-03    0.3099365959E-01    0.4256315868E-01    0.6537249577E+00
    0.1100000000E+07    0.6374716509E+00    0.8527874977E-03    0.3094456132E-01    0.4257900932E-01    0.6539120752E+00
    0.1300000000E+07    0.6374740325E+00    0.7862958614E-03    0.3090326528E-01    0.4259202553E-01    0.6540578930E+00
    0.1500000000E+07    0.6374743669E+00    0.7334660354E-03    0.3086761703E-01    0.4260306647E-01    0.6541762392E+00
    0.1700000000E+07    0.6374735405E+00    0.6901698978E-03    0.3083624914E-01    0.4261265226E-01    0.6542751546E+00
    0.1900000000E+07    0.6374720320E+00    0.6538397007E-03    0.3080823870E-01    0.4262112161E-01    0.6543596891E+00
    0.2100000000E+07    0.6374701167E+00    0.6227830384E-03    0.3078293311E-01    0.4262870736E-01    0.6544332029E+00
    0.2300000000E+07    0.6374679600E+00    0.5958329290E-03    0.3075985369E-01    0.4263557640E-01    0.6544980339E+00
    0.2500000000E+07    0.6374656653E+00    0.5721550064E-03    0.3073863883E-01    0.4264185245E-01    0.6545558690E+00
    0.2700000000E+07    0.6374632983E+00    0.5511347148E-03    0.3071900865E-01    0.4264762975E-01    0.6546079610E+00
    0.2900000000E+07    0.6374609022E+00    0.5323080100E-03    0.3070074201E-01    0.4265298172E-01    0.6546552639E+00
    0.3100000000E+07    0.6374585050E+00    0.5153170284E-03    0.3068366116E-01    0.4265796670E-01    0.6546985194E+00
    0.3300000000E+07    0.6374561256E+00    0.4998807426E-03    0.3066762104E-01    0.4266263179E-01    0.6547383145E+00
    0.3500000000E+07    0.6374537763E+00    0.4857749606E-03    0.3065250175E-01    0.4266701558E-01    0.6547751209E+00
    0.3700000000E+07    0.6374514650E+00    0.4728183433E-03    0.3063820300E-01    0.4267115007E-01    0.6548093231E+00
    0.3900000000E+07    0.6374491968E+00    0.4608624105E-03    0.3062464008E-01    0.4267506209E-01    0.6548412381E+00
    0.4100000000E+07    0.6374469748E+00    0.4497842564E-03    0.3061174077E-01    0.4267877436E-01    0.6548711300E+00
    0.4300000000E+07    0.6374448006E+00    0.4394811480E-03    0.3059944303E-01    0.4268230631E-01    0.6548992214E+00
    0.4500000000E+07    0.6374426747E+00    0.4298664551E-03    0.3058769311E-01    0.4268567463E-01    0.6549257009E+00
    0.4700000000E+07    0.6374405971E+00    0.4208665419E-03    0.3057644420E-01    0.4268889383E-01    0.6549507300E+00
    0.4900000000E+07    0.6374385672E+00    0.4124183620E-03    0.3056565522E-01    0.4269197655E-01    0.6549744477E+00
    0.1000000000E+07    0.6374691956E+00    0.8932050612E-03    0.3096795400E-01    0.4257151283E-01    0.6538249067E+00
    0.3000000000E+07    0.6374597024E+00    0.5236021488E-03    0.3069206310E-01    0.4265551691E-01    0.6546773578E+00
    0.5000000000E+07    0.6374375698E+00    0.4083838940E-03    0.3056042173E-01    0.4269347026E-01    0.6549858532E+00
    0.7000000000E+07    0.6374198350E+00    0.3467009761E-03    0.3047299436E-01    0.4271828237E-01    0.6551674720E+00
    0.9000000000E+07    0.6374054427E+00    0.3067828644E-03    0.3040741746E-01    0.4273675012E-01    0.6552938470E+00
    0.1100000000E+08    0.6373934025E+00    0.2782324870E-03    0.3035492054E-01    0.4275146692E-01    0.6553897627E+00
    0.1300000000E+08    0.6373830734E+00    0.2565007120E-03    0.3031114304E-01    0.4276370276E-01    0.6554665587E+00
    0.1500000000E+08    0.6373740367E+00    0.2392388730E-03    0.3027359729E-01    0.4277417504E-01    0.6555303161E+00
    0.1700000000E+08    0.6373660078E+00    0.2250952391E-03    0.3024072881E-01    0.4278332892E-01    0.6555846535E+00
    0.1900000000E+08    0.6373587858E+00    0.2132293397E-03    0.3021150092E-01    0.4279145972E-01    0.6556318890E+00
    0.2100000000E+08    0.6373522238E+00    0.2030873934E-03    0.3018518751E-01    0.4279877344E-01    0.6556735921E+00
    0.2300000000E+08    0.6373462118E+00    0.1942876454E-03    0.3016126017E-01    0.4280541952E-01    0.6557108720E+00
    0.2500000000E+08    0.6373406647E+00    0.1865572102E-03    0.3013932236E-01    0.4281150979E-01    0.6557445402E+00
    0.2700000000E+08    0.6373355158E+00    0.1796951315E-03    0.3011906881E-01    0.4281713016E-01    0.6557752073E+00
