  Pressure (Pa) 22mC5-400 (mol/kg) 2mC6-400 (mol/kg) 3mC6-400 (mol/kg) 23mC5-400 (mol/kg) C7-400 (mol/kg)
    0.1000000000E+01    0.4225358022E-02    0.2373835757E-02    0.3156703664E-02    0.9274107529E-04    0.3414958191E-02
    0.3000000000E+01    0.1246133572E-01    0.6906283879E-02    0.9239331517E-02    0.2735137052E-03    0.9996327334E-02
    0.5000000000E+01    0.2042462858E-01    0.1116987312E-01    0.1503314404E-01    0.4483059096E-03    0.1626661614E-01
    0.7000000000E+01    0.2813050083E-01    0.1518452874E-01    0.2055889400E-01    0.6174523953E-03    0.2224814474E-01
    0.9000000000E+01    0.3559307020E-01    0.1896832910E-01    0.2583537730E-01    0.7812627334E-03    0.2796113020E-01
    0.1100000000E+02    0.4282541340E-01    0.2253771239E-01    0.3087965886E-01    0.9400236685E-03    0.3342392915E-01
    0.1300000000E+02    0.4983966006E-01    0.2590765613E-01    0.3570726784E-01    0.1094001181E-02    0.3865324750E-01
    0.1500000000E+02    0.5664707680E-01    0.2909183381E-01    0.4033236708E-01    0.1243442329E-02    0.4366432248E-01
    0.1700000000E+02    0.6325814262E-01    0.3210275179E-01    0.4476790048E-01    0.1388576902E-02    0.4847108101E-01
    0.1900000000E+02    0.6968261646E-01    0.3495186938E-01    0.4902572179E-01    0.1529618898E-02    0.5308627801E-01
    0.2100000000E+02    0.7592959800E-01    0.3764970451E-01    0.5311670729E-01    0.1666767866E-02    0.5752161755E-01
    0.2300000000E+02    0.8200758247E-01    0.4020592686E-01    0.5705085488E-01    0.1800210095E-02    0.6178785922E-01
    0.2500000000E+02    0.8792451010E-01    0.4262944029E-01    0.6083737121E-01    0.1930119709E-02    0.6589491190E-01
    0.2700000000E+02    0.9368781072E-01    0.4492845577E-01    0.6448474874E-01    0.2056659640E-02    0.6985191645E-01
    0.2900000000E+02    0.9930444433E-01    0.4711055637E-01    0.6800083390E-01    0.2179982516E-02    0.7366731902E-01
    0.3100000000E+02    0.1047809377E+00    0.4918275490E-01    0.7139288758E-01    0.2300231467E-02    0.7734893607E-01
    0.3300000000E+02    0.1101234177E+00    0.5115154559E-01    0.7466763897E-01    0.2417540854E-02    0.8090401220E-01
    0.3500000000E+02    0.1153376416E+00    0.5302295010E-01    0.7783133353E-01    0.2532036936E-02    0.8433927172E-01
    0.3700000000E+02    0.1204290248E+00    0.5480255887E-01    0.8088977586E-01    0.2643838470E-02    0.8766096477E-01
    0.3900000000E+02    0.1254026658E+00    0.5649556820E-01    0.8384836808E-01    0.2753057268E-02    0.9087490852E-01
    0.4100000000E+02    0.1302633692E+00    0.5810681361E-01    0.8671214429E-01    0.2859798699E-02    0.9398652426E-01
    0.4300000000E+02    0.1350156670E+00    0.5964079992E-01    0.8948580147E-01    0.2964162148E-02    0.9700087061E-01
    0.4500000000E+02    0.1396638374E+00    0.6110172834E-01    0.9217372743E-01    0.3066241443E-02    0.9992267354E-01
    0.4700000000E+02    0.1442119228E+00    0.6249352105E-01    0.9478002589E-01    0.3166125236E-02    0.1027563534E+00
    0.4900000000E+02    0.1486637459E+00    0.6381984335E-01    0.9730853925E-01    0.3263897363E-02    0.1055060493E+00
    0.1000000000E+02    0.3923724081E-01    0.2077885449E-01    0.2838553883E-01    0.8612572885E-03    0.3072272244E-01
    0.3000000000E+02    0.1020598166E+00    0.4815997591E-01    0.6971193223E-01    0.2240482637E-02    0.7552438518E-01
    0.5000000000E+02    0.1508546973E+00    0.6445953329E-01    0.9854476091E-01    0.3312016514E-02    0.1068506253E+00
    0.7000000000E+02    0.1904036289E+00    0.7454068400E-01    0.1199504415E+00    0.4180724054E-02    0.1301572201E+00
    0.9000000000E+02    0.2234573436E+00    0.8088137635E-01    0.1365630715E+00    0.4906933397E-02    0.1482828267E+00
    0.1100000000E+03    0.2517185867E+00    0.8485755757E-01    0.1498913886E+00    0.5527990606E-02    0.1628545334E+00
    0.1300000000E+03    0.2763045135E+00    0.8728346755E-01    0.1608638508E+00    0.6068399277E-02    0.1748743449E+00
    0.1500000000E+03    0.2979836307E+00    0.8866508295E-01    0.1700843841E+00    0.6545016557E-02    0.1849944845E+00
    0.1700000000E+03    0.3173057893E+00    0.8932916310E-01    0.1779635506E+00    0.6969903937E-02    0.1936586555E+00
    0.1900000000E+03    0.3346776037E+00    0.8949334255E-01    0.1847906944E+00    0.7351981290E-02    0.2011797735E+00
    0.2100000000E+03    0.3504083063E+00    0.8930624841E-01    0.1907759302E+00    0.7698032546E-02    0.2077852253E+00
    0.2300000000E+03    0.3647387630E+00    0.8887147661E-01    0.1960757474E+00    0.8013342068E-02    0.2136444781E+00
    0.2500000000E+03    0.3778604782E+00    0.8826245166E-01    0.2008092472E+00    0.8302111504E-02    0.2188865967E+00
    0.2700000000E+03    0.3899284281E+00    0.8753192528E-01    0.2050687900E+00    0.8567741240E-02    0.2236117349E+00
    0.2900000000E+03    0.4010699609E+00    0.8671821139E-01    0.2089271820E+00    0.8813025629E-02    0.2278988940E+00
    0.3100000000E+03    0.4113911200E+00    0.8584937395E-01    0.2124426495E+00    0.9040291680E-02    0.2318112965E+00
    0.3300000000E+03    0.4209812352E+00    0.8494609690E-01    0.2156623594E+00    0.9251499757E-02    0.2354001893E+00
    0.3500000000E+03    0.4299163208E+00    0.8402368559E-01    0.2186249594E+00    0.9448318116E-02    0.2387075909E+00
    0.3700000000E+03    0.4382616368E+00    0.8309348450E-01    0.2213624451E+00    0.9632179088E-02    0.2417683090E+00
    0.3900000000E+03    0.4460736502E+00    0.8216389519E-01    0.2239015517E+00    0.9804322092E-02    0.2446114476E+00
    0.4100000000E+03    0.4534015591E+00    0.8124111622E-01    0.2262648093E+00    0.9965827075E-02    0.2472615480E+00
    0.4300000000E+03    0.4602884934E+00    0.8032968671E-01    0.2284713502E+00    0.1011764084E-01    0.2497394637E+00
    0.4500000000E+03    0.4667724723E+00    0.7943288954E-01    0.2305375370E+00    0.1026059806E-01    0.2520630401E+00
    0.4700000000E+03    0.4728871759E+00    0.7855305295E-01    0.2324774542E+00    0.1039543819E-01    0.2542476477E+00
    0.4900000000E+03    0.4786625741E+00    0.7769177788E-01    0.2343032980E+00    0.1052281927E-01    0.2563066043E+00
    0.1000000000E+03    0.2381069625E+00    0.8310479409E-01    0.1435699876E+00    0.5228849979E-02    0.1559397828E+00
    0.3000000000E+03    0.4063271569E+00    0.8628924426E-01    0.2107246079E+00    0.8928780810E-02    0.2298984926E+00
    0.5000000000E+03    0.4814315140E+00    0.7726844566E-01    0.2351768153E+00    0.1058389889E-01    0.2572926487E+00
    0.7000000000E+03    0.5242061390E+00    0.6985789169E-01    0.2486353554E+00    0.1152829633E-01    0.2725794779E+00
    0.9000000000E+03    0.5515505912E+00    0.6418779575E-01    0.2574118257E+00    0.1213315027E-01    0.2826672785E+00
    0.1100000000E+04    0.5703849547E+00    0.5975847338E-01    0.2636964404E+00    0.1255055883E-01    0.2899678640E+00
    0.1300000000E+04    0.5840703405E+00    0.5619594065E-01    0.2684727528E+00    0.1285444641E-01    0.2955701735E+00
    0.1500000000E+04    0.5944245382E+00    0.5325459857E-01    0.2722557529E+00    0.1308481982E-01    0.3000472129E+00
    0.1700000000E+04    0.6025101233E+00    0.5077265036E-01    0.2753443270E+00    0.1326507991E-01    0.3037330789E+00
    0.1900000000E+04    0.6089865620E+00    0.4864053152E-01    0.2779252878E+00    0.1340975939E-01    0.3068375004E+00
    0.2100000000E+04    0.6142832210E+00    0.4678170478E-01    0.2801221317E+00    0.1352832639E-01    0.3094996942E+00
    0.2300000000E+04    0.6186908498E+00    0.4514111135E-01    0.2820201652E+00    0.1362719649E-01    0.3118162030E+00
    0.2500000000E+04    0.6224128967E+00    0.4367808674E-01    0.2836804377E+00    0.1371086190E-01    0.3138563761E+00
    0.2700000000E+04    0.6255957376E+00    0.4236189203E-01    0.2851479305E+00    0.1378255677E-01    0.3156714946E+00
    0.2900000000E+04    0.6283472308E+00    0.4116881284E-01    0.2864566053E+00    0.1384466577E-01    0.3173004105E+00
    0.3100000000E+04    0.6307485158E+00    0.4008022346E-01    0.2876326415E+00    0.1389898407E-01    0.3187731730E+00
    0.3300000000E+04    0.6328617498E+00    0.3908126225E-01    0.2886965836E+00    0.1394688778E-01    0.3201134402E+00
    0.3500000000E+04    0.6347353166E+00    0.3815990409E-01    0.2896648069E+00    0.1398944880E-01    0.3213401277E+00
    0.3700000000E+04    0.6364074182E+00    0.3730629736E-01    0.2905505431E+00    0.1402751404E-01    0.3224685668E+00
    0.3900000000E+04    0.6379086044E+00    0.3651228094E-01    0.2913646135E+00    0.1406176122E-01    0.3235113331E+00
    0.4100000000E+04    0.6392635862E+00    0.3577102636E-01    0.2921159649E+00    0.1409273893E-01    0.3244788535E+00
    0.4300000000E+04    0.6404925604E+00    0.3507676858E-01    0.2928120652E+00    0.1412089583E-01    0.3253798564E+00
    0.4500000000E+04    0.6416121898E+00    0.3442460056E-01    0.2934592035E+00    0.1414660234E-01    0.3262217120E+00
    0.4700000000E+04    0.6426363403E+00    0.3381031445E-01    0.2940627176E+00    0.1417016693E-01    0.3270106931E+00
    0.4900000000E+04    0.6435766413E+00    0.3323027751E-01    0.2946271712E+00    0.1419184847E-01    0.3277521764E+00
    0.1000000000E+04    0.5617709762E+00    0.6184497660E-01    0.2607883754E+00    0.1235955558E-01    0.2865805785E+00
    0.3000000000E+04    0.6295873903E+00    0.4061246158E-01    0.2870598069E+00    0.1387270449E-01    0.3180547048E+00
    0.5000000000E+04    0.6440184792E+00    0.3295209992E-01    0.2948959992E+00    0.1420205284E-01    0.3281065814E+00
    0.7000000000E+04    0.6501921025E+00    0.2860041255E-01    0.2989396178E+00    0.1434606908E-01    0.3335528255E+00
    0.9000000000E+04    0.6536058990E+00    0.2568011106E-01    0.3014765737E+00    0.1442743441E-01    0.3371113425E+00
    0.1100000000E+05    0.6557691740E+00    0.2353812229E-01    0.3032425179E+00    0.1448009342E-01    0.3396783303E+00
    0.1300000000E+05    0.6572615568E+00    0.2187674722E-01    0.3045543582E+00    0.1451718141E-01    0.3416477698E+00
    0.1500000000E+05    0.6583527521E+00    0.2053753618E-01    0.3055733957E+00    0.1454485618E-01    0.3432238123E+00
    0.1700000000E+05    0.6591851148E+00    0.1942709571E-01    0.3063912543E+00    0.1456639207E-01    0.3445243219E+00
    0.1900000000E+05    0.6598408308E+00    0.1848622195E-01    0.3070642148E+00    0.1458369340E-01    0.3456227926E+00
    0.2100000000E+05    0.6603706495E+00    0.1767527268E-01    0.3076289417E+00    0.1459794468E-01    0.3465677789E+00
    0.2300000000E+05    0.6608075941E+00    0.1696654404E-01    0.3081104417E+00    0.1460992226E-01    0.3473928383E+00
    0.2500000000E+05    0.6611740759E+00    0.1633999802E-01    0.3085264112E+00    0.1462015683E-01    0.3481220182E+00
    0.2700000000E+05    0.6614858372E+00    0.1578072562E-01    0.3088897580E+00    0.1462902383E-01    0.3487730700E+00
    0.2900000000E+05    0.6617542596E+00    0.1527736827E-01    0.3092101385E+00    0.1463679663E-01    0.3493594276E+00
    0.3100000000E+05    0.6619877751E+00    0.1482109639E-01    0.3094949340E+00    0.1464367920E-01    0.3498914733E+00
    0.3300000000E+05    0.6621927631E+00    0.1440492644E-01    0.3097498919E+00    0.1464982692E-01    0.3503773781E+00
    0.3500000000E+05    0.6623741389E+00    0.1402325103E-01    0.3099795601E+00    0.1465536036E-01    0.3508236743E+00
    0.3700000000E+05    0.6625357508E+00    0.1367150779E-01    0.3101875882E+00    0.1466037456E-01    0.3512356571E+00
    0.3900000000E+05    0.6626806545E+00    0.1334594085E-01    0.3103769421E+00    0.1466494553E-01    0.3516176709E+00
    0.4100000000E+05    0.6628113072E+00    0.1304342578E-01    0.3105500586E+00    0.1466913479E-01    0.3519733196E+00
    0.4300000000E+05    0.6629297071E+00    0.1276133899E-01    0.3107089602E+00    0.1467299272E-01    0.3523056219E+00
    0.4500000000E+05    0.6630374958E+00    0.1249745866E-01    0.3108553407E+00    0.1467656097E-01    0.3526171283E+00
    0.4700000000E+05    0.6631360345E+00    0.1224988880E-01    0.3109906301E+00    0.1467987432E-01    0.3529100111E+00
    0.4900000000E+05    0.6632264612E+00    0.1201700003E-01    0.3111160446E+00    0.1468296206E-01    0.3531861343E+00
    0.1000000000E+05    0.6547967230E+00    0.2453509926E-01    0.3024308158E+00    0.1445628628E-01    0.3384877241E+00
    0.3000000000E+05    0.6618749419E+00    0.1504382006E-01    0.3093565927E+00    0.1464033853E-01    0.3496316846E+00
    0.5000000000E+05    0.6632689383E+00    0.1190561315E-01    0.3111753803E+00    0.1468442924E-01    0.3533184226E+00
    0.7000000000E+05    0.6638617447E+00    0.1018886960E-01    0.3120324066E+00    0.1470635995E-01    0.3553803990E+00
    0.9000000000E+05    0.6641890687E+00    0.9063981155E-02    0.3125272708E+00    0.1472021856E-01    0.3567637604E+00
    0.1100000000E+06    0.6643962206E+00    0.8252637628E-02    0.3128448211E+00    0.1473010094E-01    0.3577843695E+00
    0.1300000000E+06    0.6645388859E+00    0.7631217024E-02    0.3130620383E+00    0.1473767789E-01    0.3585828626E+00
    0.1500000000E+06    0.6646429773E+00    0.7135216447E-02    0.3132169639E+00    0.1474377324E-01    0.3592330035E+00
    0.1700000000E+06    0.6647221797E+00    0.6727214547E-02    0.3133306290E+00    0.1474884639E-01    0.3597778652E+00
    0.1900000000E+06    0.6647843987E+00    0.6383795673E-02    0.3134156259E+00    0.1475317673E-01    0.3602445924E+00
    0.2100000000E+06    0.6648345183E+00    0.6089450872E-02    0.3134799593E+00    0.1475694549E-01    0.3606512974E+00
    0.2300000000E+06    0.6648757176E+00    0.5833441975E-02    0.3135289600E+00    0.1476027627E-01    0.3610106154E+00
    0.2500000000E+06    0.6649101545E+00    0.5608064259E-02    0.3135663130E+00    0.1476325680E-01    0.3613316800E+00
    0.2700000000E+06    0.6649393446E+00    0.5407625280E-02    0.3135946452E+00    0.1476595138E-01    0.3616212898E+00
    0.2900000000E+06    0.6649643838E+00    0.5227815043E-02    0.3136158772E+00    0.1476840844E-01    0.3618846298E+00
    0.3100000000E+06    0.6649860836E+00    0.5065301689E-02    0.3136314442E+00    0.1477066530E-01    0.3621257373E+00
    0.3300000000E+06    0.6650050578E+00    0.4917463028E-02    0.3136424387E+00    0.1477275129E-01    0.3623478121E+00
    0.3500000000E+06    0.6650217791E+00    0.4782203053E-02    0.3136497055E+00    0.1477468983E-01    0.3625534295E+00
    0.3700000000E+06    0.6650366174E+00    0.4657823332E-02    0.3136539075E+00    0.1477649993E-01    0.3627446905E+00
    0.3900000000E+06    0.6650498662E+00    0.4542930894E-02    0.3136555712E+00    0.1477819718E-01    0.3629233297E+00
    0.4100000000E+06    0.6650617615E+00    0.4436370936E-02    0.3136551191E+00    0.1477979456E-01    0.3630907943E+00
    0.4300000000E+06    0.6650724949E+00    0.4337176825E-02    0.3136528942E+00    0.1478130294E-01    0.3632483035E+00
    0.4500000000E+06    0.6650822238E+00    0.4244532373E-02    0.3136491768E+00    0.1478273155E-01    0.3633968931E+00
    0.4700000000E+06    0.6650910784E+00    0.4157742967E-02    0.3136441979E+00    0.1478408826E-01    0.3635374499E+00
    0.4900000000E+06    0.6650991679E+00    0.4076213201E-02    0.3136381496E+00    0.1478537984E-01    0.3636707387E+00
    0.1000000000E+06    0.6643031381E+00    0.8628838762E-02    0.3127020605E+00    0.1472552303E-01    0.3573083619E+00
    0.3000000000E+06    0.6649756089E+00    0.5144574300E-02    0.3136242938E+00    0.1476955990E-01    0.3620077459E+00
    0.5000000000E+06    0.6651029548E+00    0.4037257353E-02    0.3136347756E+00    0.1478600308E-01    0.3637348684E+00
    0.7000000000E+06    0.6651546588E+00    0.3439943067E-02    0.3135389061E+00    0.1479613748E-01    0.3647590442E+00
    0.9000000000E+06    0.6651818001E+00    0.3051612823E-02    0.3134231951E+00    0.1480345977E-01    0.3654750991E+00
    0.1100000000E+07    0.6651980649E+00    0.2772969991E-02    0.3133071135E+00    0.1480919059E-01    0.3660205000E+00
    0.1300000000E+07    0.6652086270E+00    0.2560350270E-02    0.3131960260E+00    0.1481389786E-01    0.3664584113E+00
    0.1500000000E+07    0.6652158595E+00    0.2391128623E-02    0.3130912849E+00    0.1481789163E-01    0.3668228183E+00
    0.1700000000E+07    0.6652209972E+00    0.2252247068E-02    0.3129929346E+00    0.1482135969E-01    0.3671339981E+00
    0.1900000000E+07    0.6652247425E+00    0.2135567996E-02    0.3129005843E+00    0.1482442432E-01    0.3674049698E+00
    0.2100000000E+07    0.6652275223E+00    0.2035719356E-02    0.3128137200E+00    0.1482716959E-01    0.3676445651E+00
    0.2300000000E+07    0.6652296101E+00    0.1948991822E-02    0.3127318219E+00    0.1482965581E-01    0.3678590364E+00
    0.2500000000E+07    0.6652311885E+00    0.1872730124E-02    0.3126544060E+00    0.1483192764E-01    0.3680529646E+00
    0.2700000000E+07    0.6652323835E+00    0.1804976423E-02    0.3125810378E+00    0.1483401914E-01    0.3682298011E+00
    0.2900000000E+07    0.6652332844E+00    0.1744250963E-02    0.3125113323E+00    0.1483595684E-01    0.3683922082E+00
    0.3100000000E+07    0.6652339566E+00    0.1689411590E-02    0.3124449511E+00    0.1483776183E-01    0.3685422804E+00
    0.3300000000E+07    0.6652344482E+00    0.1639560669E-02    0.3123815968E+00    0.1483945111E-01    0.3686816941E+00
    0.3500000000E+07    0.6652347959E+00    0.1593981583E-02    0.3123210078E+00    0.1484103865E-01    0.3688118107E+00
    0.3700000000E+07    0.6652350275E+00    0.1552094301E-02    0.3122629534E+00    0.1484253601E-01    0.3689337503E+00
    0.3900000000E+07    0.6652351651E+00    0.1513423598E-02    0.3122072300E+00    0.1484395288E-01    0.3690484453E+00
    0.4100000000E+07    0.6652352256E+00    0.1477575875E-02    0.3121536565E+00    0.1484529748E-01    0.3691566795E+00
    0.4300000000E+07    0.6652352228E+00    0.1444221953E-02    0.3121020721E+00    0.1484657684E-01    0.3692591178E+00
    0.4500000000E+07    0.6652351677E+00    0.1413084109E-02    0.3120523327E+00    0.1484779700E-01    0.3693563292E+00
    0.4700000000E+07    0.6652350691E+00    0.1383926161E-02    0.3120043095E+00    0.1484896319E-01    0.3694488039E+00
    0.4900000000E+07    0.6652349342E+00    0.1356545804E-02    0.3119578864E+00    0.1485007999E-01    0.3695369672E+00
    0.1000000000E+07    0.6651908699E+00    0.2902021995E-02    0.3133647151E+00    0.1480648002E-01    0.3657642074E+00
    0.3000000000E+07    0.6652336458E+00    0.1716156492E-02    0.3124777457E+00    0.1483687478E-01    0.3684686730E+00
    0.5000000000E+07    0.6652348552E+00    0.1343466757E-02    0.3119352417E+00    0.1485062114E-01    0.3695795500E+00
    0.7000000000E+07    0.6652323788E+00    0.1143212976E-02    0.3115455999E+00    0.1485961198E-01    0.3702744909E+00
    0.9000000000E+07    0.6652293549E+00    0.1013309396E-02    0.3112406470E+00    0.1486630583E-01    0.3707776025E+00
    0.1100000000E+08    0.6652263844E+00    0.9202352476E-03    0.3109896478E+00    0.1487164122E-01    0.3711707037E+00
    0.1300000000E+08    0.6652236040E+00    0.8492906929E-03    0.3107761131E+00    0.1487607789E-01    0.3714926611E+00
    0.1500000000E+08    0.6652210342E+00    0.7928734041E-03    0.3105901538E+00    0.1487987559E-01    0.3717649308E+00
    0.1700000000E+08    0.6652186628E+00    0.7466019975E-03    0.3104253630E+00    0.1488319555E-01    0.3720005845E+00
    0.1900000000E+08    0.6652164699E+00    0.7077491197E-03    0.3102773475E+00    0.1488614474E-01    0.3722081636E+00
    0.2100000000E+08    0.6652144348E+00    0.6745159641E-03    0.3101429616E+00    0.1488879777E-01    0.3723935501E+00
    0.2300000000E+08    0.6652125389E+00    0.6456614372E-03    0.3100198738E+00    0.1489120880E-01    0.3725609638E+00
    0.2500000000E+08    0.6652107658E+00    0.6202977037E-03    0.3099063072E+00    0.1489341834E-01    0.3727135323E+00
    0.2700000000E+08    0.6652091015E+00    0.5977705006E-03    0.3098008759E+00    0.1489545751E-01    0.3728536373E+00
