  Pressure (Pa) 22mC5-400 (mol/kg) 2mC6-400 (mol/kg) 3mC6-400 (mol/kg) 23mC5-400 (mol/kg) C7-400 (mol/kg)
    0.1000000000E+01    0.4230102713E-02    0.7900093406E-03    0.1049620958E-02    0.3713807342E-03    0.8516310804E-02
    0.3000000000E+01    0.1250213925E-01    0.2291263528E-02    0.3057430436E-02    0.1097636133E-02    0.2481052761E-01
    0.5000000000E+01    0.2053299944E-01    0.3694715152E-02    0.4951991024E-02    0.1802735469E-02    0.4019004218E-01
    0.7000000000E+01    0.2833371129E-01    0.5008226831E-02    0.6742688984E-02    0.2487645883E-02    0.5473054623E-01
    0.9000000000E+01    0.3591463122E-01    0.6238856163E-02    0.8437899304E-02    0.3153275625E-02    0.6849958302E-01
    0.1100000000E+02    0.4328549422E-01    0.7392957289E-02    0.1004511838E-01    0.3800478457E-02    0.8155761595E-01
    0.1300000000E+02    0.5045545966E-01    0.8476267249E-02    0.1157107635E-01    0.4430057660E-02    0.9395893321E-01
    0.1500000000E+02    0.5743315303E-01    0.9493979757E-02    0.1302183260E-01    0.5042769703E-02    0.1057524172E+00
    0.1700000000E+02    0.6422670422E-01    0.1045080850E-01    0.1440285733E-01    0.5639327596E-02    0.1169822015E+00
    0.1900000000E+02    0.7084378253E-01    0.1135104166E-01    0.1571910155E-01    0.6220403957E-02    0.1276882348E+00
    0.2100000000E+02    0.7729162875E-01    0.1219858912E-01    0.1697505726E-01    0.6786633831E-02    0.1379067653E+00
    0.2300000000E+02    0.8357708470E-01    0.1299702339E-01    0.1817480950E-01    0.7338617275E-02    0.1476707607E+00
    0.2500000000E+02    0.8970662028E-01    0.1374961528E-01    0.1932208141E-01    0.7876921730E-02    0.1570102710E+00
    0.2700000000E+02    0.9568635840E-01    0.1445936514E-01    0.2042027353E-01    0.8402084211E-02    0.1659527446E+00
    0.2900000000E+02    0.1015220980E+00    0.1512903019E-01    0.2147249797E-01    0.8914613318E-02    0.1745233049E+00
    0.3100000000E+02    0.1072193351E+00    0.1576114859E-01    0.2248160844E-01    0.9414991095E-02    0.1827449908E+00
    0.3300000000E+02    0.1127832824E+00    0.1635806071E-01    0.2345022651E-01    0.9903674741E-02    0.1906389694E+00
    0.3500000000E+02    0.1182188876E+00    0.1692192787E-01    0.2438076477E-01    0.1038109819E-01    0.1982247224E+00
    0.3700000000E+02    0.1235308496E+00    0.1745474904E-01    0.2527544729E-01    0.1084767360E-01    0.2055202107E+00
    0.3900000000E+02    0.1287236344E+00    0.1795837569E-01    0.2613632770E-01    0.1130379267E-01    0.2125420205E+00
    0.4100000000E+02    0.1338014890E+00    0.1843452497E-01    0.2696530519E-01    0.1174982791E-01    0.2193054921E+00
    0.4300000000E+02    0.1387684553E+00    0.1888479152E-01    0.2776413883E-01    0.1218613383E-01    0.2258248354E+00
    0.4500000000E+02    0.1436283819E+00    0.1931065809E-01    0.2853446024E-01    0.1261304800E-01    0.2321132320E+00
    0.4700000000E+02    0.1483849356E+00    0.1971350501E-01    0.2927778496E-01    0.1303089206E-01    0.2381829266E+00
    0.4900000000E+02    0.1530416125E+00    0.2009461874E-01    0.2999552259E-01    0.1343997264E-01    0.2440453095E+00
    0.1000000000E+02    0.3962573439E-01    0.6825100644E-02    0.9252070350E-02    0.3479129061E-02    0.7511394684E-01
    0.3000000000E+02    0.1043876971E+00    0.1544963204E-01    0.2198227345E-01    0.9166291985E-02    0.1786763926E+00
    0.5000000000E+02    0.1553335453E+00    0.2027740392E-01    0.3034521005E-01    0.1364131857E-01    0.2469021029E+00
    0.7000000000E+02    0.1966629283E+00    0.2304449161E-01    0.3627089053E-01    0.1727256019E-01    0.2953789114E+00
    0.9000000000E+02    0.2309959004E+00    0.2461022870E-01    0.4069611270E-01    0.2028983864E-01    0.3316803373E+00
    0.1100000000E+03    0.2600558300E+00    0.2544222341E-01    0.4413097436E-01    0.2284433219E-01    0.3599342313E+00
    0.1300000000E+03    0.2850263442E+00    0.2581208123E-01    0.4687722022E-01    0.2503987877E-01    0.3825847205E+00
    0.1500000000E+03    0.3067500663E+00    0.2588521716E-01    0.4912489953E-01    0.2695040564E-01    0.4011726542E+00
    0.1700000000E+03    0.3258452169E+00    0.2576602124E-01    0.5099975056E-01    0.2863015591E-01    0.4167184276E+00
    0.1900000000E+03    0.3427771228E+00    0.2552218601E-01    0.5258833075E-01    0.3011996055E-01    0.4299251279E+00
    0.2100000000E+03    0.3579037717E+00    0.2519852936E-01    0.5395220619E-01    0.3145123413E-01    0.4412933067E+00
    0.2300000000E+03    0.3715058082E+00    0.2482519191E-01    0.5513638439E-01    0.3264860590E-01    0.4511892262E+00
    0.2500000000E+03    0.3838068652E+00    0.2442267124E-01    0.5617454422E-01    0.3373170325E-01    0.4598872095E+00
    0.2700000000E+03    0.3949877024E+00    0.2400500491E-01    0.5709239866E-01    0.3471639192E-01    0.4675968871E+00
    0.2900000000E+03    0.4051962643E+00    0.2358183287E-01    0.5790992512E-01    0.3561565841E-01    0.4744812767E+00
    0.3100000000E+03    0.4145549824E+00    0.2315976183E-01    0.5864288489E-01    0.3644025048E-01    0.4806691088E+00
    0.3300000000E+03    0.4231661738E+00    0.2274328419E-01    0.5930388314E-01    0.3719915084E-01    0.4862634289E+00
    0.3500000000E+03    0.4311160981E+00    0.2233540642E-01    0.5990312371E-01    0.3789993307E-01    0.4913477271E+00
    0.3700000000E+03    0.4384780523E+00    0.2193808450E-01    0.6044895690E-01    0.3854903313E-01    0.4959903882E+00
    0.3900000000E+03    0.4453147626E+00    0.2155252905E-01    0.6094828345E-01    0.3915195922E-01    0.5002479767E+00
    0.4100000000E+03    0.4516802562E+00    0.2117942126E-01    0.6140685715E-01    0.3971345601E-01    0.5041676971E+00
    0.4300000000E+03    0.4576213411E+00    0.2081906695E-01    0.6182951440E-01    0.4023763454E-01    0.5077892629E+00
    0.4500000000E+03    0.4631787901E+00    0.2047150712E-01    0.6222035077E-01    0.4072807606E-01    0.5111463341E+00
    0.4700000000E+03    0.4683882944E+00    0.2013659781E-01    0.6258285810E-01    0.4118791571E-01    0.5142676340E+00
    0.4900000000E+03    0.4732812398E+00    0.1981406797E-01    0.6292003223E-01    0.4161991067E-01    0.5171778273E+00
    0.1000000000E+03    0.2461012259E+00    0.2509773366E-01    0.4251507146E-01    0.2161758470E-01    0.3466329147E+00
    0.3000000000E+03    0.4099750406E+00    0.2337033789E-01    0.5828612410E-01    0.3603669061E-01    0.4776553017E+00
    0.5000000000E+03    0.4756177927E+00    0.1965733648E-01    0.6307994129E-01    0.4182623862E-01    0.5185605314E+00
    0.7000000000E+03    0.5110052224E+00    0.1706905891E-01    0.6542171506E-01    0.4495452041E-01    0.5390403748E+00
    0.9000000000E+03    0.5330391405E+00    0.1524400875E-01    0.6681341730E-01    0.4690682724E-01    0.5515017303E+00
    0.1100000000E+04    0.5480303547E+00    0.1389276102E-01    0.6773599666E-01    0.4823819510E-01    0.5599541124E+00
    0.1300000000E+04    0.5588677576E+00    0.1284803275E-01    0.6839196861E-01    0.4920290518E-01    0.5661005274E+00
    0.1500000000E+04    0.5670565778E+00    0.1201182271E-01    0.6888171855E-01    0.4993355236E-01    0.5707922267E+00
    0.1700000000E+04    0.5734561381E+00    0.1132390178E-01    0.6926077360E-01    0.5050589309E-01    0.5745039191E+00
    0.1900000000E+04    0.5785917939E+00    0.1074542722E-01    0.6956237982E-01    0.5096627797E-01    0.5775221044E+00
    0.2100000000E+04    0.5828023537E+00    0.1025025841E-01    0.6980767524E-01    0.5134462236E-01    0.5800303748E+00
    0.2300000000E+04    0.5863159002E+00    0.9820148249E-02    0.7001074914E-01    0.5166108074E-01    0.5821520508E+00
    0.2500000000E+04    0.5892914868E+00    0.9441955959E-02    0.7018135741E-01    0.5192971880E-01    0.5839731778E+00
    0.2700000000E+04    0.5918433490E+00    0.9105961979E-02    0.7032647103E-01    0.5216064671E-01    0.5855557051E+00
    0.2900000000E+04    0.5940556134E+00    0.8804809896E-02    0.7045120423E-01    0.5236131576E-01    0.5869454229E+00
    0.3100000000E+04    0.5959915813E+00    0.8532819631E-02    0.7055939433E-01    0.5253733711E-01    0.5881769439E+00
    0.3300000000E+04    0.5976997837E+00    0.8285528298E-02    0.7065397681E-01    0.5269301600E-01    0.5892769424E+00
    0.3500000000E+04    0.5992180425E+00    0.8059375162E-02    0.7073723551E-01    0.5283171033E-01    0.5902663230E+00
    0.3700000000E+04    0.6005762646E+00    0.7851480435E-02    0.7081097379E-01    0.5295607736E-01    0.5911617130E+00
    0.3900000000E+04    0.6017984055E+00    0.7659486715E-02    0.7087663447E-01    0.5306824726E-01    0.5919765117E+00
    0.4100000000E+04    0.6029038770E+00    0.7481443211E-02    0.7093538551E-01    0.5316994752E-01    0.5927216440E+00
    0.4300000000E+04    0.6039085739E+00    0.7315719803E-02    0.7098818237E-01    0.5326259375E-01    0.5934061112E+00
    0.4500000000E+04    0.6048256346E+00    0.7160942261E-02    0.7103581415E-01    0.5334735702E-01    0.5940374002E+00
    0.4700000000E+04    0.6056660130E+00    0.7015942766E-02    0.7107893816E-01    0.5342521445E-01    0.5946217922E+00
    0.4900000000E+04    0.6064389138E+00    0.6879721631E-02    0.7111810627E-01    0.5349698777E-01    0.5951645979E+00
    0.1000000000E+04    0.5411883279E+00    0.1452175708E-01    0.6731719006E-01    0.4763017362E-01    0.5560934815E+00
    0.3000000000E+04    0.5950548102E+00    0.8665472748E-02    0.7050716597E-01    0.5245211258E-01    0.5875791343E+00
    0.5000000000E+04    0.6068025423E+00    0.6814629015E-02    0.7113635558E-01    0.5353081465E-01    0.5954218459E+00
    0.7000000000E+04    0.6119160917E+00    0.5815744987E-02    0.7137638730E-01    0.5401172993E-01    0.5991956708E+00
    0.9000000000E+04    0.6147726841E+00    0.5164914060E-02    0.7148870932E-01    0.5428670495E-01    0.6014786884E+00
    0.1100000000E+05    0.6165945752E+00    0.4696891492E-02    0.7154522621E-01    0.5446611140E-01    0.6030357214E+00
    0.1300000000E+05    0.6178568317E+00    0.4339086323E-02    0.7157328386E-01    0.5459320791E-01    0.6041793739E+00
    0.1500000000E+05    0.6187824496E+00    0.4053858958E-02    0.7158536737E-01    0.5468846632E-01    0.6050628745E+00
    0.1700000000E+05    0.6194899126E+00    0.3819458070E-02    0.7158789558E-01    0.5476285159E-01    0.6057708154E+00
    0.1900000000E+05    0.6200479796E+00    0.3622308897E-02    0.7158445573E-01    0.5482277766E-01    0.6063540114E+00
    0.2100000000E+05    0.6204992842E+00    0.3453437150E-02    0.7157718008E-01    0.5487225287E-01    0.6068449798E+00
    0.2300000000E+05    0.6208716622E+00    0.3306637736E-02    0.7156739710E-01    0.5491391474E-01    0.6072655790E+00
    0.2500000000E+05    0.6211840562E+00    0.3177463174E-02    0.7155596544E-01    0.5494957209E-01    0.6076310935E+00
    0.2700000000E+05    0.6214498033E+00    0.3062630320E-02    0.7154345642E-01    0.5498050827E-01    0.6079525622E+00
    0.2900000000E+05    0.6216785646E+00    0.2959655074E-02    0.7153025899E-01    0.5500766001E-01    0.6082381758E+00
    0.3100000000E+05    0.6218775093E+00    0.2866618193E-02    0.7151664282E-01    0.5503172772E-01    0.6084941523E+00
    0.3300000000E+05    0.6220520691E+00    0.2782009964E-02    0.7150279746E-01    0.5505324604E-01    0.6087253058E+00
    0.3500000000E+05    0.6222064340E+00    0.2704624129E-02    0.7148885751E-01    0.5507263052E-01    0.6089354275E+00
    0.3700000000E+05    0.6223438881E+00    0.2633483605E-02    0.7147491919E-01    0.5509020924E-01    0.6091275479E+00
    0.3900000000E+05    0.6224670412E+00    0.2567787303E-02    0.7146105145E-01    0.5510624487E-01    0.6093041220E+00
    0.4100000000E+05    0.6225779935E+00    0.2506871302E-02    0.7144730363E-01    0.5512095036E-01    0.6094671615E+00
    0.4300000000E+05    0.6226784543E+00    0.2450180019E-02    0.7143371085E-01    0.5513450023E-01    0.6096183327E+00
    0.4500000000E+05    0.6227698283E+00    0.2397244460E-02    0.7142029771E-01    0.5514703902E-01    0.6097590287E+00
    0.4700000000E+05    0.6228532810E+00    0.2347665584E-02    0.7140708112E-01    0.5515868746E-01    0.6098904245E+00
    0.4900000000E+05    0.6229297872E+00    0.2301101417E-02    0.7139407220E-01    0.5516954729E-01    0.6100135185E+00
    0.1000000000E+05    0.6157744388E+00    0.4913772701E-02    0.7152171089E-01    0.5438485344E-01    0.6023229038E+00
    0.3000000000E+05    0.6217813906E+00    0.2911996862E-02    0.7152348987E-01    0.5502004270E-01    0.6083695401E+00
    0.5000000000E+05    0.6229656973E+00    0.2278856058E-02    0.7138764788E-01    0.5517470897E-01    0.6100722243E+00
    0.7000000000E+05    0.6234641993E+00    0.1938073523E-02    0.7127042992E-01    0.5525197458E-01    0.6109654254E+00
    0.9000000000E+05    0.6237359404E+00    0.1716870116E-02    0.7117206809E-01    0.5530089681E-01    0.6115426296E+00
    0.1100000000E+06    0.6239055024E+00    0.1558345115E-02    0.7108809063E-01    0.5533581955E-01    0.6119578688E+00
    0.1300000000E+06    0.6240205393E+00    0.1437506726E-02    0.7101502528E-01    0.5536261202E-01    0.6122768310E+00
    0.1500000000E+06    0.6241031627E+00    0.1341417670E-02    0.7095042618E-01    0.5538417385E-01    0.6125329119E+00
    0.1700000000E+06    0.6241650096E+00    0.1262617369E-02    0.7089255733E-01    0.5540212413E-01    0.6127451494E+00
    0.1900000000E+06    0.6242127771E+00    0.1196459827E-02    0.7084015611E-01    0.5541744851E-01    0.6129253118E+00
    0.2100000000E+06    0.6242505856E+00    0.1139879964E-02    0.7079228028E-01    0.5543078687E-01    0.6130811275E+00
    0.2300000000E+06    0.6242811056E+00    0.1090762626E-02    0.7074820985E-01    0.5544257584E-01    0.6132179155E+00
    0.2500000000E+06    0.6243061418E+00    0.1047594518E-02    0.7070738311E-01    0.5545312544E-01    0.6133394769E+00
    0.2700000000E+06    0.6243269561E+00    0.1009260380E-02    0.7066935379E-01    0.5546266302E-01    0.6134486126E+00
    0.2900000000E+06    0.6243444564E+00    0.9749176668E-03    0.7063376158E-01    0.5547135988E-01    0.6135474400E+00
    0.3100000000E+06    0.6243593121E+00    0.9439163363E-03    0.7060031154E-01    0.5547934804E-01    0.6136375951E+00
    0.3300000000E+06    0.6243720267E+00    0.9157457148E-03    0.7056875919E-01    0.5548673125E-01    0.6137203651E+00
    0.3500000000E+06    0.6243829863E+00    0.8899982642E-03    0.7053889968E-01    0.5549359243E-01    0.6137967798E+00
    0.3700000000E+06    0.6243924914E+00    0.8663442392E-03    0.7051055964E-01    0.5549999880E-01    0.6138676745E+00
    0.3900000000E+06    0.6244007793E+00    0.8445135666E-03    0.7048359107E-01    0.5550600561E-01    0.6139337350E+00
    0.4100000000E+06    0.6244080397E+00    0.8242826319E-03    0.7045786663E-01    0.5551165875E-01    0.6139955311E+00
    0.4300000000E+06    0.6244144259E+00    0.8054644764E-03    0.7043327596E-01    0.5551699675E-01    0.6140535404E+00
    0.4500000000E+06    0.6244200630E+00    0.7879014111E-03    0.7040972278E-01    0.5552205227E-01    0.6141081672E+00
    0.4700000000E+06    0.6244250544E+00    0.7714593720E-03    0.7038712260E-01    0.5552685318E-01    0.6141597564E+00
    0.4900000000E+06    0.6244294856E+00    0.7560235523E-03    0.7036540087E-01    0.5553142348E-01    0.6142086042E+00
    0.1000000000E+06    0.6238296162E+00    0.1631743165E-02    0.7112852622E-01    0.5531963856E-01    0.6117652856E+00
    0.3000000000E+06    0.6243521801E+00    0.9590340230E-03    0.7061678511E-01    0.5547543550E-01    0.6135935142E+00
    0.5000000000E+06    0.6244315141E+00    0.7486515062E-03    0.7035484847E-01    0.5553362877E-01    0.6142320816E+00
    0.7000000000E+06    0.6244551830E+00    0.6358921073E-03    0.7017719068E-01    0.5556948251E-01    0.6146050204E+00
    0.9000000000E+06    0.6244626319E+00    0.5628710392E-03    0.7004245688E-01    0.5559537946E-01    0.6148638418E+00
    0.1100000000E+07    0.6244637479E+00    0.5106206542E-03    0.6993383758E-01    0.5561564270E-01    0.6150601397E+00
    0.1300000000E+07    0.6244620101E+00    0.4708353715E-03    0.6984280984E-01    0.5563228332E-01    0.6152173234E+00
    0.1500000000E+07    0.6244588930E+00    0.4392247630E-03    0.6976444864E-01    0.5564639921E-01    0.6153478841E+00
    0.1700000000E+07    0.6244550987E+00    0.4133185268E-03    0.6969564805E-01    0.5565865511E-01    0.6154592307E+00
    0.1900000000E+07    0.6244509883E+00    0.3915801848E-03    0.6963432216E-01    0.5566948391E-01    0.6155560993E+00
    0.2100000000E+07    0.6244467576E+00    0.3729970826E-03    0.6957900185E-01    0.5567918318E-01    0.6156416920E+00
    0.2300000000E+07    0.6244425157E+00    0.3568709745E-03    0.6952861314E-01    0.5568796625E-01    0.6157182694E+00
    0.2500000000E+07    0.6244383245E+00    0.3427026415E-03    0.6948234696E-01    0.5569599126E-01    0.6157874844E+00
    0.2700000000E+07    0.6244342190E+00    0.3301243879E-03    0.6943957855E-01    0.5570337864E-01    0.6158505799E+00
    0.2900000000E+07    0.6244302179E+00    0.3188585736E-03    0.6939981535E-01    0.5571022228E-01    0.6159085133E+00
    0.3100000000E+07    0.6244263305E+00    0.3086910893E-03    0.6936266215E-01    0.5571659673E-01    0.6159620370E+00
    0.3300000000E+07    0.6244225605E+00    0.2994537976E-03    0.6932779698E-01    0.5572256221E-01    0.6160117524E+00
    0.3500000000E+07    0.6244189076E+00    0.2910125659E-03    0.6929495406E-01    0.5572816804E-01    0.6160581474E+00
    0.3700000000E+07    0.6244153698E+00    0.2832589004E-03    0.6926391142E-01    0.5573345512E-01    0.6161016234E+00
    0.3900000000E+07    0.6244119435E+00    0.2761039667E-03    0.6923448179E-01    0.5573845778E-01    0.6161425140E+00
    0.4100000000E+07    0.6244086245E+00    0.2694742314E-03    0.6920650567E-01    0.5574320504E-01    0.6161810996E+00
    0.4300000000E+07    0.6244054084E+00    0.2633082300E-03    0.6917984617E-01    0.5574772174E-01    0.6162176179E+00
    0.4500000000E+07    0.6244022906E+00    0.2575541323E-03    0.6915438485E-01    0.5575202924E-01    0.6162522723E+00
    0.4700000000E+07    0.6243992663E+00    0.2521678824E-03    0.6913001858E-01    0.5575614607E-01    0.6162852378E+00
    0.4900000000E+07    0.6243963311E+00    0.2471117598E-03    0.6910665703E-01    0.5576008839E-01    0.6163166665E+00
    0.1000000000E+07    0.6244636920E+00    0.5348047512E-03    0.6998553237E-01    0.5560605915E-01    0.6149679764E+00
    0.3000000000E+07    0.6244282597E+00    0.3136489647E-03    0.6938093411E-01    0.5571346410E-01    0.6159357858E+00
    0.5000000000E+07    0.6243948955E+00    0.2446971588E-03    0.6909532778E-01    0.5576199862E-01    0.6163318466E+00
    0.7000000000E+07    0.6243699192E+00    0.2077779750E-03    0.6890632837E-01    0.5579373057E-01    0.6165796047E+00
    0.9000000000E+07    0.6243501771E+00    0.1838828269E-03    0.6876484996E-01    0.5581734985E-01    0.6167590238E+00
    0.1100000000E+08    0.6243338943E+00    0.1667906947E-03    0.6865174063E-01    0.5583617247E-01    0.6168992531E+00
    0.1300000000E+08    0.6243200499E+00    0.1537794651E-03    0.6855750768E-01    0.5585182235E-01    0.6170141335E+00
    0.1500000000E+08    0.6243080123E+00    0.1434436573E-03    0.6847674719E-01    0.5586521686E-01    0.6171113055E+00
    0.1700000000E+08    0.6242973657E+00    0.1349743280E-03    0.6840608780E-01    0.5587692527E-01    0.6171954243E+00
    0.1900000000E+08    0.6242878225E+00    0.1278684714E-03    0.6834328398E-01    0.5588732523E-01    0.6172695323E+00
    0.2100000000E+08    0.6242791756E+00    0.1217946437E-03    0.6828676455E-01    0.5589668020E-01    0.6173357252E+00
    0.2300000000E+08    0.6242712711E+00    0.1165243504E-03    0.6823538708E-01    0.5590518127E-01    0.6173955064E+00
    0.2500000000E+08    0.6242639916E+00    0.1118942525E-03    0.6818829481E-01    0.5591297148E-01    0.6174499909E+00
    0.2700000000E+08    0.6242572455E+00    0.1077840601E-03    0.6814482868E-01    0.5592016067E-01    0.6175000275E+00
