  Pressure (Pa) 22mC5-400 (mol/kg) 2mC6-400 (mol/kg) 3mC6-400 (mol/kg) 23mC5-400 (mol/kg) C7-400 (mol/kg)
    0.1000000000E+01    0.4225715775E-02    0.1585433478E-02    0.5273429747E-03    0.5564937118E-03    0.5134317733E-02
    0.3000000000E+01    0.1246419957E-01    0.4628729879E-02    0.1550413375E-02    0.1641460691E-02    0.1509651276E-01
    0.5000000000E+01    0.2043166595E-01    0.7511279861E-02    0.2533447522E-02    0.2690765847E-02    0.2467061842E-01
    0.7000000000E+01    0.2814262278E-01    0.1024350302E-01    0.3478810490E-02    0.3706317785E-02    0.3387952707E-01
    0.9000000000E+01    0.3561053960E-01    0.1283498708E-01    0.4388683527E-02    0.4689888531E-02    0.4274435307E-01
    0.1100000000E+02    0.4284793856E-01    0.1529456726E-01    0.5265081598E-02    0.5643125486E-02    0.5128460238E-01
    0.1300000000E+02    0.4986647594E-01    0.1763039683E-01    0.6109868966E-02    0.6567562154E-02    0.5951832326E-01
    0.1500000000E+02    0.5667701555E-01    0.1985000998E-01    0.6924773050E-02    0.7464627794E-02    0.6746224014E-01
    0.1700000000E+02    0.6328969478E-01    0.2196037794E-01    0.7711396778E-02    0.8335656104E-02    0.7513187317E-01
    0.1900000000E+02    0.6971398424E-01    0.2396795922E-01    0.8471229628E-02    0.9181893072E-02    0.8254164490E-01
    0.2100000000E+02    0.7595874161E-01    0.2587874461E-01    0.9205657511E-02    0.1000450406E-01    0.8970497589E-01
    0.2300000000E+02    0.8203226043E-01    0.2769829759E-01    0.9915971641E-02    0.1080458020E-01    0.9663437048E-01
    0.2500000000E+02    0.8794231434E-01    0.2943179070E-01    0.1060337650E-01    0.1158314426E-01    0.1033414938E+00
    0.2700000000E+02    0.9369619720E-01    0.3108403830E-01    0.1126899704E-01    0.1234115587E-01    0.1098372413E+00
    0.2900000000E+02    0.9930075961E-01    0.3265952613E-01    0.1191388512E-01    0.1307951637E-01    0.1161318013E+00
    0.3100000000E+02    0.1047624422E+00    0.3416243806E-01    0.1253902540E-01    0.1379907312E-01    0.1222347118E+00
    0.3300000000E+02    0.1100873058E+00    0.3559668029E-01    0.1314534060E-01    0.1450062359E-01    0.1281549112E+00
    0.3500000000E+02    0.1152810595E+00    0.3696590332E-01    0.1373369636E-01    0.1518491889E-01    0.1339007856E+00
    0.3700000000E+02    0.1203490852E+00    0.3827352184E-01    0.1430490554E-01    0.1585266718E-01    0.1394802103E+00
    0.3900000000E+02    0.1252964618E+00    0.3952273289E-01    0.1485973225E-01    0.1650453668E-01    0.1449005885E+00
    0.4100000000E+02    0.1301279855E+00    0.4071653239E-01    0.1539889541E-01    0.1714115845E-01    0.1501688863E+00
    0.4300000000E+02    0.1348481899E+00    0.4185773015E-01    0.1592307210E-01    0.1776312901E-01    0.1552916646E+00
    0.4500000000E+02    0.1394613635E+00    0.4294896364E-01    0.1643290053E-01    0.1837101262E-01    0.1602751082E+00
    0.4700000000E+02    0.1439715664E+00    0.4399271054E-01    0.1692898284E-01    0.1896534350E-01    0.1651250523E+00
    0.4900000000E+02    0.1483826454E+00    0.4499130028E-01    0.1741188758E-01    0.1954662782E-01    0.1698470073E+00
    0.1000000000E+02    0.3925730590E-01    0.1408074037E-01    0.4830947055E-02    0.5170200337E-02    0.4705388927E-01
    0.3000000000E+02    0.1020490735E+00    0.3341980370E-01    0.1222886467E-01    0.1344159424E-01    0.1192066406E+00
    0.5000000000E+02    0.1505521607E+00    0.4547435123E-01    0.1764856743E-01    0.1983252846E-01    0.1721616276E+00
    0.7000000000E+02    0.1895315634E+00    0.5323314430E-01    0.2180635816E-01    0.2496995361E-01    0.2128592260E+00
    0.9000000000E+02    0.2217816491E+00    0.5831521264E-01    0.2510797657E-01    0.2922156215E-01    0.2452331177E+00
    0.1100000000E+03    0.2490571545E+00    0.6165913464E-01    0.2780079421E-01    0.3281826333E-01    0.2716830300E+00
    0.1300000000E+03    0.2725219218E+00    0.6383817001E-01    0.3004442161E-01    0.3591321892E-01    0.2937582451E+00
    0.1500000000E+03    0.2929831223E+00    0.6521719820E-01    0.3194658850E-01    0.3861265927E-01    0.3125050687E+00
    0.1700000000E+03    0.3110216483E+00    0.6603632405E-01    0.3358272487E-01    0.4099303929E-01    0.3286565267E+00
    0.1900000000E+03    0.3270686858E+00    0.6645791315E-01    0.3500727960E-01    0.4311111374E-01    0.3427420559E+00
    0.2100000000E+03    0.3414527628E+00    0.6659427155E-01    0.3626058058E-01    0.4501012791E-01    0.3551540115E+00
    0.2300000000E+03    0.3544298033E+00    0.6652456130E-01    0.3737316146E-01    0.4672377220E-01    0.3661896285E+00
    0.2500000000E+03    0.3662029852E+00    0.6630547465E-01    0.3836858468E-01    0.4827879536E-01    0.3760784095E+00
    0.2700000000E+03    0.3769362597E+00    0.6597815772E-01    0.3926533809E-01    0.4969678335E-01    0.3850005309E+00
    0.2900000000E+03    0.3867637990E+00    0.6557280979E-01    0.4007814202E-01    0.5099540275E-01    0.3930995323E+00
    0.3100000000E+03    0.3957967564E+00    0.6511180291E-01    0.4081887056E-01    0.5218929031E-01    0.4004912642E+00
    0.3300000000E+03    0.4041282058E+00    0.6461183691E-01    0.4149721389E-01    0.5329070301E-01    0.4072703220E+00
    0.3500000000E+03    0.4118368187E+00    0.6408545250E-01    0.4212116310E-01    0.5431000198E-01    0.4135147574E+00
    0.3700000000E+03    0.4189896491E+00    0.6354210897E-01    0.4269737062E-01    0.5525601895E-01    0.4192895827E+00
    0.3900000000E+03    0.4256442735E+00    0.6298896183E-01    0.4323142221E-01    0.5613633803E-01    0.4246494160E+00
    0.4100000000E+03    0.4318504602E+00    0.6243143043E-01    0.4372804482E-01    0.5695751527E-01    0.4296405026E+00
    0.4300000000E+03    0.4376514854E+00    0.6187361651E-01    0.4419126739E-01    0.5772525198E-01    0.4343022804E+00
    0.4500000000E+03    0.4430851843E+00    0.6131861594E-01    0.4462454663E-01    0.5844453308E-01    0.4386686042E+00
    0.4700000000E+03    0.4481847984E+00    0.6076875264E-01    0.4503086633E-01    0.5911973854E-01    0.4427687125E+00
    0.4900000000E+03    0.4529796647E+00    0.6022575567E-01    0.4541281656E-01    0.5975473424E-01    0.4466279994E+00
    0.1000000000E+03    0.2359580635E+00    0.6016238016E-01    0.2651898172E-01    0.3109083241E-01    0.2590869291E+00
    0.3000000000E+03    0.3913734078E+00    0.6534810730E-01    0.4045686529E-01    0.5160462252E-01    0.3968774587E+00
    0.5000000000E+03    0.4552710590E+00    0.5995724358E-01    0.4559537080E-01    0.6005823953E-01    0.4484743745E+00
    0.7000000000E+03    0.4900798800E+00    0.5510739896E-01    0.4838905332E-01    0.6467374424E-01    0.4769024926E+00
    0.9000000000E+03    0.5118032138E+00    0.5122429808E-01    0.5018441006E-01    0.6756067864E-01    0.4953912622E+00
    0.1100000000E+04    0.5265677140E+00    0.4808928335E-01    0.5145216336E-01    0.6952731171E-01    0.5085906875E+00
    0.1300000000E+04    0.5372160425E+00    0.4550186318E-01    0.5240331658E-01    0.7094896171E-01    0.5185955809E+00
    0.1500000000E+04    0.5452393003E+00    0.4332097015E-01    0.5314780995E-01    0.7202265204E-01    0.5265025418E+00
    0.1700000000E+04    0.5514912442E+00    0.4144953966E-01    0.5374906551E-01    0.7286127886E-01    0.5329469928E+00
    0.1900000000E+04    0.5564942485E+00    0.3981958071E-01    0.5424647151E-01    0.7353397129E-01    0.5383252431E+00
    0.2100000000E+04    0.5605850615E+00    0.3838222824E-01    0.5466590020E-01    0.7408532778E-01    0.5428986732E+00
    0.2300000000E+04    0.5639901287E+00    0.3710145374E-01    0.5502511167E-01    0.7454536168E-01    0.5468474145E+00
    0.2500000000E+04    0.5668671248E+00    0.3595006599E-01    0.5533673920E-01    0.7493498763E-01    0.5503000877E+00
    0.2700000000E+04    0.5693291011E+00    0.3490711373E-01    0.5561003705E-01    0.7526921296E-01    0.5533512586E+00
    0.2900000000E+04    0.5714591612E+00    0.3395615636E-01    0.5585195346E-01    0.7555907817E-01    0.5560721831E+00
    0.3100000000E+04    0.5733197215E+00    0.3308408388E-01    0.5606781595E-01    0.7581288192E-01    0.5585176866E+00
    0.3300000000E+04    0.5749585463E+00    0.3228029287E-01    0.5626178394E-01    0.7603697982E-01    0.5607307191E+00
    0.3500000000E+04    0.5764127932E+00    0.3153609870E-01    0.5643715648E-01    0.7623632006E-01    0.5627454594E+00
    0.3700000000E+04    0.5777117924E+00    0.3084430810E-01    0.5659658673E-01    0.7641481155E-01    0.5645894840E+00
    0.3900000000E+04    0.5788789976E+00    0.3019890305E-01    0.5674223474E-01    0.7657558258E-01    0.5662853153E+00
    0.4100000000E+04    0.5799333832E+00    0.2959480301E-01    0.5687587851E-01    0.7672116594E-01    0.5678515497E+00
    0.4300000000E+04    0.5808904616E+00    0.2902768377E-01    0.5699899598E-01    0.7685363399E-01    0.5693036927E+00
    0.4500000000E+04    0.5817630359E+00    0.2849383746E-01    0.5711282667E-01    0.7697469853E-01    0.5706547871E+00
    0.4700000000E+04    0.5825617654E+00    0.2799006310E-01    0.5721841851E-01    0.7708578585E-01    0.5719158925E+00
    0.4900000000E+04    0.5832955946E+00    0.2751358020E-01    0.5731666403E-01    0.7718809377E-01    0.5730964552E+00
    0.1000000000E+04    0.5198327318E+00    0.4957730907E-01    0.5086764765E-01    0.6862965100E-01    0.5024876627E+00
    0.3000000000E+04    0.5724198551E+00    0.3351097314E-01    0.5596285827E-01    0.7569005224E-01    0.5573264417E+00
    0.5000000000E+04    0.5836405810E+00    0.2728480184E-01    0.5736327539E-01    0.7723627834E-01    0.5736591166E+00
    0.7000000000E+04    0.5884728611E+00    0.2368676935E-01    0.5804876972E-01    0.7791888650E-01    0.5821663459E+00
    0.9000000000E+04    0.5911546987E+00    0.2125678733E-01    0.5846096010E-01    0.7830699998E-01    0.5875694621E+00
    0.1100000000E+05    0.5928571879E+00    0.1946945321E-01    0.5873741354E-01    0.7855929631E-01    0.5913806578E+00
    0.1300000000E+05    0.5940324533E+00    0.1808138785E-01    0.5893591794E-01    0.7873756570E-01    0.5942505889E+00
    0.1500000000E+05    0.5948917021E+00    0.1696188845E-01    0.5908527185E-01    0.7887091772E-01    0.5965106417E+00
    0.1700000000E+05    0.5955467423E+00    0.1603349421E-01    0.5920153419E-01    0.7897489122E-01    0.5983493792E+00
    0.1900000000E+05    0.5960622685E+00    0.1524692766E-01    0.5929440655E-01    0.7905855178E-01    0.5998829092E+00
    0.2100000000E+05    0.5964782969E+00    0.1456911497E-01    0.5937011341E-01    0.7912755290E-01    0.6011870903E+00
    0.2300000000E+05    0.5968209002E+00    0.1397690501E-01    0.5943284037E-01    0.7918560815E-01    0.6023138289E+00
    0.2500000000E+05    0.5971077899E+00    0.1345353376E-01    0.5948551014E-01    0.7923526061E-01    0.6032999843E+00
    0.2700000000E+05    0.5973514162E+00    0.1298651833E-01    0.5953022779E-01    0.7927831231E-01    0.6041725395E+00
    0.2900000000E+05    0.5975607853E+00    0.1256634330E-01    0.5956854928E-01    0.7931607718E-01    0.6049517575E+00
    0.3100000000E+05    0.5977425717E+00    0.1218560912E-01    0.5960165025E-01    0.7934953671E-01    0.6056531863E+00
    0.3300000000E+05    0.5979018264E+00    0.1183846185E-01    0.5963043596E-01    0.7937943953E-01    0.6062889803E+00
    0.3500000000E+05    0.5980424416E+00    0.1152020046E-01    0.5965561499E-01    0.7940636702E-01    0.6068687951E+00
    0.3700000000E+05    0.5981674646E+00    0.1122699975E-01    0.5967775008E-01    0.7943077790E-01    0.6074004106E+00
    0.3900000000E+05    0.5982793150E+00    0.1095571064E-01    0.5969729383E-01    0.7945303925E-01    0.6078901743E+00
    0.4100000000E+05    0.5983799382E+00    0.1070371358E-01    0.5971461445E-01    0.7947344844E-01    0.6083433233E+00
    0.4300000000E+05    0.5984709159E+00    0.1046880905E-01    0.5973001455E-01    0.7949224913E-01    0.6087642213E+00
    0.4500000000E+05    0.5985535473E+00    0.1024913456E-01    0.5974374511E-01    0.7950964296E-01    0.6091565378E+00
    0.4700000000E+05    0.5986289091E+00    0.1004310088E-01    0.5975601603E-01    0.7952579833E-01    0.6095233833E+00
    0.4900000000E+05    0.5986979015E+00    0.9849342481E-02    0.5976700423E-01    0.7954085707E-01    0.6098674144E+00
    0.1000000000E+05    0.5920916425E+00    0.2030175679E-01    0.5861154792E-01    0.7844511809E-01    0.5896225039E+00
    0.3000000000E+05    0.5976547789E+00    0.1237144291E-01    0.5958569042E-01    0.7933329376E-01    0.6053113685E+00
    0.5000000000E+05    0.5987302508E+00    0.9756691170E-02    0.5977206512E-01    0.7954801353E-01    0.6100316011E+00
    0.7000000000E+05    0.5991764517E+00    0.8330509113E-02    0.5983269050E-01    0.7965506784E-01    0.6125346293E+00
    0.9000000000E+05    0.5994163319E+00    0.7398074819E-02    0.5985206405E-01    0.7972278816E-01    0.6141498730E+00
    0.1100000000E+06    0.5995639230E+00    0.6726708187E-02    0.5985389466E-01    0.7977110439E-01    0.6153051085E+00
    0.1300000000E+06    0.5996626085E+00    0.6213226250E-02    0.5984722405E-01    0.7980816026E-01    0.6161856762E+00
    0.1500000000E+06    0.5997324194E+00    0.5803867616E-02    0.5983614327E-01    0.7983797553E-01    0.6168866584E+00
    0.1700000000E+06    0.5997838483E+00    0.5467481207E-02    0.5982271602E-01    0.7986279334E-01    0.6174625417E+00
    0.1900000000E+06    0.5998229058E+00    0.5184595988E-02    0.5980806298E-01    0.7988397858E-01    0.6179471023E+00
    0.2100000000E+06    0.5998532733E+00    0.4942328031E-02    0.5979282472E-01    0.7990241704E-01    0.6183625486E+00
    0.2300000000E+06    0.5998773261E+00    0.4731764358E-02    0.5977738031E-01    0.7991871295E-01    0.6187241678E+00
    0.2500000000E+06    0.5998966620E+00    0.4546514805E-02    0.5976195904E-01    0.7993329523E-01    0.6190428771E+00
    0.2700000000E+06    0.5999123933E+00    0.4381861490E-02    0.5974670077E-01    0.7994647840E-01    0.6193267111E+00
    0.2900000000E+06    0.5999253164E+00    0.4234234622E-02    0.5973169044E-01    0.7995849937E-01    0.6195817341E+00
    0.3100000000E+06    0.5999360158E+00    0.4100876208E-02    0.5971697832E-01    0.7996954071E-01    0.6198126216E+00
    0.3300000000E+06    0.5999449293E+00    0.3979616898E-02    0.5970259250E-01    0.7997974588E-01    0.6200230453E+00
    0.3500000000E+06    0.5999523909E+00    0.3868723551E-02    0.5968854665E-01    0.7998922951E-01    0.6202159346E+00
    0.3700000000E+06    0.5999586592E+00    0.3766792455E-02    0.5967484506E-01    0.7999808456E-01    0.6203936598E+00
    0.3900000000E+06    0.5999639375E+00    0.3672672870E-02    0.5966148586E-01    0.8000638738E-01    0.6205581625E+00
    0.4100000000E+06    0.5999683875E+00    0.3585411222E-02    0.5964846322E-01    0.8001420143E-01    0.6207110504E+00
    0.4300000000E+06    0.5999721392E+00    0.3504209637E-02    0.5963576881E-01    0.8002157995E-01    0.6208536684E+00
    0.4500000000E+06    0.5999752984E+00    0.3428394680E-02    0.5962339275E-01    0.8002856808E-01    0.6209871511E+00
    0.4700000000E+06    0.5999779515E+00    0.3357393435E-02    0.5961132430E-01    0.8003520435E-01    0.6211124638E+00
    0.4900000000E+06    0.5999801702E+00    0.3290714982E-02    0.5959955232E-01    0.8004152194E-01    0.6212304332E+00
    0.1000000000E+06    0.5994981288E+00    0.7037876457E-02    0.5985443313E-01    0.7974872009E-01    0.6147703378E+00
    0.3000000000E+06    0.5999309139E+00    0.4165919182E-02    0.5972429493E-01    0.7996413275E-01    0.6196999453E+00
    0.5000000000E+06    0.5999811357E+00    0.3258862174E-02    0.5959377398E-01    0.8004457037E-01    0.6212868911E+00
    0.7000000000E+06    0.5999879180E+00    0.2771047337E-02    0.5949116979E-01    0.8009413515E-01    0.6221614826E+00
    0.9000000000E+06    0.5999835896E+00    0.2454543595E-02    0.5940752342E-01    0.8012994003E-01    0.6227418974E+00
    0.1100000000E+07    0.5999757024E+00    0.2227781862E-02    0.5933701669E-01    0.8015795889E-01    0.6231663683E+00
    0.1300000000E+07    0.5999666936E+00    0.2054958819E-02    0.5927607758E-01    0.8018097073E-01    0.6234960022E+00
    0.1500000000E+07    0.5999574863E+00    0.1917548760E-02    0.5922240173E-01    0.8020049275E-01    0.6237626630E+00
    0.1700000000E+07    0.5999484569E+00    0.1804871861E-02    0.5917442516E-01    0.8021744361E-01    0.6239848638E+00
    0.1900000000E+07    0.5999397583E+00    0.1710278989E-02    0.5913104006E-01    0.8023242158E-01    0.6241742202E+00
    0.2100000000E+07    0.5999314454E+00    0.1629384371E-02    0.5909143372E-01    0.8024583796E-01    0.6243384516E+00
    0.2300000000E+07    0.5999235278E+00    0.1559161918E-02    0.5905499237E-01    0.8025798760E-01    0.6244829236E+00
    0.2500000000E+07    0.5999159946E+00    0.1497446865E-02    0.5902124116E-01    0.8026908909E-01    0.6246115018E+00
    0.2700000000E+07    0.5999088254E+00    0.1442643988E-02    0.5898980514E-01    0.8027930892E-01    0.6247270544E+00
    0.2900000000E+07    0.5999019968E+00    0.1393548247E-02    0.5896038303E-01    0.8028877687E-01    0.6248317625E+00
    0.3100000000E+07    0.5998954844E+00    0.1349229991E-02    0.5893272906E-01    0.8029759600E-01    0.6249273199E+00
    0.3300000000E+07    0.5998892649E+00    0.1308958926E-02    0.5890664013E-01    0.8030584957E-01    0.6250150653E+00
    0.3500000000E+07    0.5998833164E+00    0.1272152279E-02    0.5888194638E-01    0.8031360577E-01    0.6250960736E+00
    0.3700000000E+07    0.5998776185E+00    0.1238338539E-02    0.5885850436E-01    0.8032092116E-01    0.6251712196E+00
    0.3900000000E+07    0.5998721529E+00    0.1207131537E-02    0.5883619177E-01    0.8032784316E-01    0.6252412240E+00
    0.4100000000E+07    0.5998669026E+00    0.1178211543E-02    0.5881490351E-01    0.8033441196E-01    0.6253066867E+00
    0.4300000000E+07    0.5998618524E+00    0.1151311247E-02    0.5879454856E-01    0.8034066186E-01    0.6253681121E+00
    0.4500000000E+07    0.5998569882E+00    0.1126205195E-02    0.5877504760E-01    0.8034662240E-01    0.6254259279E+00
    0.4700000000E+07    0.5998522976E+00    0.1102701712E-02    0.5875633105E-01    0.8035231921E-01    0.6254804995E+00
    0.4900000000E+07    0.5998477690E+00    0.1080636661E-02    0.5873833756E-01    0.8035777466E-01    0.6255321415E+00
    0.1000000000E+07    0.5999798831E+00    0.2332768101E-02    0.5937088922E-01    0.8014470695E-01    0.6229688176E+00
    0.3000000000E+07    0.5998987025E+00    0.1370841549E-02    0.5894634860E-01    0.8029326193E-01    0.6248805943E+00
    0.5000000000E+07    0.5998455622E+00    0.1070098558E-02    0.5872959472E-01    0.8036041809E-01    0.6255569505E+00
    0.7000000000E+07    0.5998078436E+00    0.9089136982E-03    0.5858223142E-01    0.8040433322E-01    0.6259497357E+00
    0.9000000000E+07    0.5997786914E+00    0.8045334132E-03    0.5847024379E-01    0.8043702493E-01    0.6262203633E+00
    0.1100000000E+08    0.5997549477E+00    0.7298436013E-03    0.5837981417E-01    0.8046307993E-01    0.6264241889E+00
    0.1300000000E+08    0.5997349226E+00    0.6729718763E-03    0.5830392965E-01    0.8048474467E-01    0.6265863618E+00
    0.1500000000E+08    0.5997176097E+00    0.6277853680E-03    0.5823853276E-01    0.8050328833E-01    0.6267202901E+00
    0.1700000000E+08    0.5997023619E+00    0.5907529600E-03    0.5818106150E-01    0.8051949854E-01    0.6268339120E+00
    0.1900000000E+08    0.5996887390E+00    0.5596783667E-03    0.5812979332E-01    0.8053389788E-01    0.6269322904E+00
    0.2100000000E+08    0.5996764278E+00    0.5331140665E-03    0.5808351374E-01    0.8054685088E-01    0.6270188397E+00
    0.2300000000E+08    0.5996651979E+00    0.5100619602E-03    0.5804133409E-01    0.8055862199E-01    0.6270959643E+00
    0.2500000000E+08    0.5996548744E+00    0.4898084419E-03    0.5800258434E-01    0.8056940915E-01    0.6271654173E+00
    0.2700000000E+08    0.5996453219E+00    0.4718279089E-03    0.5796674666E-01    0.8057936437E-01    0.6272285141E+00
