  Pressure (Pa) 22mC5-400 (mol/kg) 2mC6-400 (mol/kg) 3mC6-400 (mol/kg) 23mC5-400 (mol/kg) C7-400 (mol/kg)
    0.1000000000E+01    0.4753471200E-02    0.1576842998E-02    0.1571722074E-02    0.9274000394E-04    0.8501717183E-02
    0.3000000000E+01    0.1401823950E-01    0.4555720414E-02    0.4563301996E-02    0.2734991029E-03    0.2468747005E-01
    0.5000000000E+01    0.2297493927E-01    0.7319471782E-02    0.7368423573E-02    0.4482526939E-03    0.3986914581E-01
    0.7000000000E+01    0.3164022161E-01    0.9887423696E-02    0.1000424624E-01    0.6173253052E-03    0.5413900444E-01
    0.9000000000E+01    0.4002953473E-01    0.1227669850E-01    0.1248587883E-01    0.7810180225E-03    0.6757828937E-01
    0.1100000000E+02    0.4815723016E-01    0.1450252215E-01    0.1482667732E-01    0.9396105604E-03    0.8025882615E-01
    0.1300000000E+02    0.5603665806E-01    0.1657848131E-01    0.1703849214E-01    0.1093363119E-02    0.9224435065E-01
    0.1500000000E+02    0.6368025283E-01    0.1851673932E-01    0.1913187475E-01    0.1242518051E-02    0.1035916184E+00
    0.1700000000E+02    0.7109961013E-01    0.2032821846E-01    0.2111625111E-01    0.1387301365E-02    0.1143513364E+00
    0.1900000000E+02    0.7830555631E-01    0.2202275476E-01    0.2300006803E-01    0.1527924077E-02    0.1245689490E+00
    0.2100000000E+02    0.8530821111E-01    0.2360922983E-01    0.2479091731E-01    0.1664583429E-02    0.1342853050E+00
    0.2300000000E+02    0.9211704438E-01    0.2509568390E-01    0.2649564142E-01    0.1797464002E-02    0.1435372251E+00
    0.2500000000E+02    0.9874092740E-01    0.2648941297E-01    0.2812042386E-01    0.1926738708E-02    0.1523579874E+00
    0.2700000000E+02    0.1051881795E+00    0.2779705269E-01    0.2967086676E-01    0.2052569706E-02    0.1607777445E+00
    0.2900000000E+02    0.1114666106E+00    0.2902465111E-01    0.3115205781E-01    0.2175109220E-02    0.1688238829E+00
    0.3100000000E+02    0.1175835592E+00    0.3017773187E-01    0.3256862802E-01    0.2294500296E-02    0.1765213335E+00
    0.3300000000E+02    0.1235459282E+00    0.3126134949E-01    0.3392480201E-01    0.2410877481E-02    0.1838928416E+00
    0.3500000000E+02    0.1293602163E+00    0.3228013763E-01    0.3522444171E-01    0.2524367451E-02    0.1909592022E+00
    0.3700000000E+02    0.1350325477E+00    0.3323835156E-01    0.3647108452E-01    0.2635089578E-02    0.1977394647E+00
    0.3900000000E+02    0.1405686985E+00    0.3413990561E-01    0.3766797682E-01    0.2743156455E-02    0.2042511130E+00
    0.4100000000E+02    0.1459741215E+00    0.3498840613E-01    0.3881810332E-01    0.2848674371E-02    0.2105102237E+00
    0.4300000000E+02    0.1512539687E+00    0.3578718079E-01    0.3992421303E-01    0.2951743750E-02    0.2165316050E+00
    0.4500000000E+02    0.1564131116E+00    0.3653930454E-01    0.4098884207E-01    0.3052459552E-02    0.2223289200E+00
    0.4700000000E+02    0.1614561604E+00    0.3724762273E-01    0.4201433398E-01    0.3150911647E-02    0.2279147956E+00
    0.4900000000E+02    0.1663874817E+00    0.3791477178E-01    0.4300285772E-01    0.3247185148E-02    0.2333009191E+00
    0.1000000000E+02    0.4412522785E-01    0.1340915684E-01    0.1367310900E-01    0.8609351144E-03    0.7400924214E-01
    0.3000000000E+02    0.1145448290E+00    0.2961017989E-01    0.3186814749E-01    0.2235189712E-02    0.1727147242E+00
    0.5000000000E+02    0.1688125463E+00    0.3823367919E-01    0.4348389055E-01    0.3294530303E-02    0.2359224906E+00
    0.7000000000E+02    0.2123473757E+00    0.4295895992E-01    0.5158135505E-01    0.4144586566E-02    0.2801180847E+00
    0.9000000000E+02    0.2483153083E+00    0.4550039379E-01    0.5757112551E-01    0.4847075909E-02    0.3129065268E+00
    0.1100000000E+03    0.2786989591E+00    0.4674991668E-01    0.6219506707E-01    0.5440649698E-02    0.3382916787E+00
    0.1300000000E+03    0.3048105915E+00    0.4720777063E-01    0.6588138270E-01    0.5950892306E-02    0.3585869325E+00
    0.1500000000E+03    0.3275588735E+00    0.4717011293E-01    0.6889495874E-01    0.6395520574E-02    0.3752248036E+00
    0.1700000000E+03    0.3475969318E+00    0.4681947895E-01    0.7140869127E-01    0.6787269701E-02    0.3891412596E+00
    0.1900000000E+03    0.3654090862E+00    0.4627184597E-01    0.7354037585E-01    0.7135583975E-02    0.4009746181E+00
    0.2100000000E+03    0.3813640401E+00    0.4560260830E-01    0.7537312976E-01    0.7447653629E-02    0.4111757254E+00
    0.2300000000E+03    0.3957488043E+00    0.4486160681E-01    0.7696733800E-01    0.7729076167E-02    0.4200724444E+00
    0.2500000000E+03    0.4087910871E+00    0.4408216729E-01    0.7836796712E-01    0.7984292845E-02    0.4279091611E+00
    0.2700000000E+03    0.4206745201E+00    0.4328671267E-01    0.7960921822E-01    0.8216885513E-02    0.4348719328E+00
    0.2900000000E+03    0.4315492931E+00    0.4249034255E-01    0.8071758564E-01    0.8429783926E-02    0.4411050303E+00
    0.3100000000E+03    0.4415397573E+00    0.4170316885E-01    0.8171392548E-01    0.8625414001E-02    0.4467221309E+00
    0.3300000000E+03    0.4507499786E+00    0.4093186934E-01    0.8261488953E-01    0.8805806071E-02    0.4518140822E+00
    0.3500000000E+03    0.4592678708E+00    0.4018073833E-01    0.8343394106E-01    0.8972675472E-02    0.4564544054E+00
    0.3700000000E+03    0.4671683229E+00    0.3945240705E-01    0.8418208854E-01    0.9127483531E-02    0.4607032731E+00
    0.3900000000E+03    0.4745156044E+00    0.3874834366E-01    0.8486842488E-01    0.9271484445E-02    0.4646104333E+00
    0.4100000000E+03    0.4813652379E+00    0.3806920360E-01    0.8550052981E-01    0.9405761808E-02    0.4682173940E+00
    0.4300000000E+03    0.4877654776E+00    0.3741507719E-01    0.8608477455E-01    0.9531257438E-02    0.4715590772E+00
    0.4500000000E+03    0.4937584881E+00    0.3678566569E-01    0.8662655533E-01    0.9648794365E-02    0.4746650878E+00
    0.4700000000E+03    0.4993812955E+00    0.3618040704E-01    0.8713047453E-01    0.9759095371E-02    0.4775606985E+00
    0.4900000000E+03    0.5046665600E+00    0.3559856603E-01    0.8760048268E-01    0.9862798069E-02    0.4802676222E+00
    0.1000000000E+03    0.2641113498E+00    0.4624907499E-01    0.6002202930E-01    0.5155648152E-02    0.3263527895E+00
    0.3000000000E+03    0.4366481384E+00    0.4209512256E-01    0.8122863328E-01    0.8529622395E-02    0.4439844406E+00
    0.5000000000E+03    0.5071917848E+00    0.3531616634E-01    0.8782385458E-01    0.9912354108E-02    0.4815562914E+00
    0.7000000000E+03    0.5455116674E+00    0.3067755490E-01    0.9113681710E-01    0.1066517363E-01    0.5008722931E+00
    0.9000000000E+03    0.5693892254E+00    0.2742599167E-01    0.9315551990E-01    0.1113534001E-01    0.5128959817E+00
    0.1100000000E+04    0.5856041073E+00    0.2502418695E-01    0.9452383369E-01    0.1145536481E-01    0.5212112507E+00
    0.1300000000E+04    0.5972931826E+00    0.2316879028E-01    0.9551645986E-01    0.1168660866E-01    0.5273602073E+00
    0.1500000000E+04    0.6060987310E+00    0.2168387847E-01    0.9627132872E-01    0.1186122162E-01    0.5321234043E+00
    0.1700000000E+04    0.6129598135E+00    0.2046194199E-01    0.9686566878E-01    0.1199760154E-01    0.5359412503E+00
    0.1900000000E+04    0.6184504524E+00    0.1943389039E-01    0.9734624995E-01    0.1210700332E-01    0.5390824404E+00
    0.2100000000E+04    0.6229404367E+00    0.1855333478E-01    0.9774312854E-01    0.1219668312E-01    0.5417208922E+00
    0.2300000000E+04    0.6266783058E+00    0.1778794455E-01    0.9807654055E-01    0.1227152171E-01    0.5439745191E+00
    0.2500000000E+04    0.6298370545E+00    0.1711446096E-01    0.9836063151E-01    0.1233491902E-01    0.5459263087E+00
    0.2700000000E+04    0.6325406856E+00    0.1651569237E-01    0.9860560008E-01    0.1238931406E-01    0.5476364936E+00
    0.2900000000E+04    0.6348803351E+00    0.1597863230E-01    0.9881899259E-01    0.1243650078E-01    0.5491499332E+00
    0.3100000000E+04    0.6369244426E+00    0.1549324023E-01    0.9900651737E-01    0.1247782749E-01    0.5505007792E+00
    0.3300000000E+04    0.6387253768E+00    0.1505162771E-01    0.9917257536E-01    0.1251432667E-01    0.5517155273E+00
    0.3500000000E+04    0.6403238749E+00    0.1464750056E-01    0.9932061614E-01    0.1254680215E-01    0.5528150749E+00
    0.3700000000E+04    0.6417520914E+00    0.1427576757E-01    0.9945338321E-01    0.1257588891E-01    0.5538161436E+00
    0.3900000000E+04    0.6430357383E+00    0.1393226020E-01    0.9957308684E-01    0.1260209512E-01    0.5547322862E+00
    0.4100000000E+04    0.6441956168E+00    0.1361352802E-01    0.9968152822E-01    0.1262583223E-01    0.5555746130E+00
    0.4300000000E+04    0.6452487333E+00    0.1331668694E-01    0.9978019045E-01    0.1264743687E-01    0.5563523259E+00
    0.4500000000E+04    0.6462091245E+00    0.1303930480E-01    0.9987030611E-01    0.1266718716E-01    0.5570731168E+00
    0.4700000000E+04    0.6470884770E+00    0.1277931405E-01    0.9995290825E-01    0.1268531482E-01    0.5577434696E+00
    0.4900000000E+04    0.6478965982E+00    0.1253494417E-01    0.1000288694E+00    0.1270201445E-01    0.5583688918E+00
    0.1000000000E+04    0.5782087265E+00    0.2614180218E-01    0.9389913633E-01    0.1130931354E-01    0.5173948414E+00
    0.3000000000E+04    0.6359357422E+00    0.1573001371E-01    0.9891568758E-01    0.1245782589E-01    0.5498438729E+00
    0.5000000000E+04    0.6482765889E+00    0.1241813174E-01    0.1000645959E+00    0.1270988123E-01    0.5586662530E+00
    0.7000000000E+04    0.6536060519E+00    0.1062202886E-01    0.1005633813E+00    0.1282147047E-01    0.5631069088E+00
    0.9000000000E+04    0.6565720985E+00    0.9447933410E-02    0.1008330851E+00    0.1288508936E-01    0.5658758418E+00
    0.1100000000E+05    0.6584602398E+00    0.8601623416E-02    0.1009960867E+00    0.1292655157E-01    0.5678072683E+00
    0.1300000000E+05    0.6597672611E+00    0.7953442111E-02    0.1011011565E+00    0.1295591963E-01    0.5692512866E+00
    0.1500000000E+05    0.6607254623E+00    0.7435990897E-02    0.1011715419E+00    0.1297793893E-01    0.5703830935E+00
    0.1700000000E+05    0.6614579383E+00    0.7010241084E-02    0.1012197025E+00    0.1299514514E-01    0.5713010692E+00
    0.1900000000E+05    0.6620359834E+00    0.6651793536E-02    0.1012528952E+00    0.1300901907E-01    0.5720651696E+00
    0.2100000000E+05    0.6625037386E+00    0.6344494482E-02    0.1012756177E+00    0.1302048506E-01    0.5727142438E+00
    0.2300000000E+05    0.6628899917E+00    0.6077160682E-02    0.1012907963E+00    0.1303015084E-01    0.5732746952E+00
    0.2500000000E+05    0.6632143167E+00    0.5841767783E-02    0.1013004092E+00    0.1303843298E-01    0.5737651680E+00
    0.2700000000E+05    0.6634904865E+00    0.5632386434E-02    0.1013058372E+00    0.1304562692E-01    0.5741992468E+00
    0.2900000000E+05    0.6637284729E+00    0.5444526466E-02    0.1013080695E+00    0.1305194825E-01    0.5745870919E+00
    0.3100000000E+05    0.6639356733E+00    0.5274716018E-02    0.1013078305E+00    0.1305755818E-01    0.5749364733E+00
    0.3300000000E+05    0.6641176908E+00    0.5120222128E-02    0.1013056609E+00    0.1306257975E-01    0.5752534471E+00
    0.3500000000E+05    0.6642788469E+00    0.4978859758E-02    0.1013019710E+00    0.1306710861E-01    0.5755428121E+00
    0.3700000000E+05    0.6644225284E+00    0.4848857954E-02    0.1012970763E+00    0.1307122029E-01    0.5758084266E+00
    0.3900000000E+05    0.6645514269E+00    0.4728763956E-02    0.1012912228E+00    0.1307497526E-01    0.5760534327E+00
    0.4100000000E+05    0.6646677082E+00    0.4617373149E-02    0.1012846039E+00    0.1307842256E-01    0.5762804183E+00
    0.4300000000E+05    0.6647731351E+00    0.4513677015E-02    0.1012773736E+00    0.1308160241E-01    0.5764915368E+00
    0.4500000000E+05    0.6648691567E+00    0.4416823841E-02    0.1012696552E+00    0.1308454811E-01    0.5766885968E+00
    0.4700000000E+05    0.6649569753E+00    0.4326088655E-02    0.1012615482E+00    0.1308728748E-01    0.5768731298E+00
    0.4900000000E+05    0.6650375967E+00    0.4240849925E-02    0.1012531338E+00    0.1308984399E-01    0.5770464424E+00
    0.1000000000E+05    0.6576105712E+00    0.8994015928E-02    0.1009239876E+00    0.1290777485E-01    0.5669183586E+00
    0.3000000000E+05    0.6638355361E+00    0.5357550603E-02    0.1013082215E+00    0.1305483370E-01    0.5747661781E+00
    0.5000000000E+05    0.6650754787E+00    0.4200121212E-02    0.1012488324E+00    0.1309106002E-01    0.5771292482E+00
    0.7000000000E+05    0.6656049604E+00    0.3575603786E-02    0.1011576380E+00    0.1310934324E-01    0.5784010644E+00
    0.9000000000E+05    0.6658980768E+00    0.3169630156E-02    0.1010684149E+00    0.1312101240E-01    0.5792346581E+00
    0.1100000000E+06    0.6660839403E+00    0.2878393911E-02    0.1009862581E+00    0.1312939526E-01    0.5798397280E+00
    0.1300000000E+06    0.6662121487E+00    0.2656224819E-02    0.1009113927E+00    0.1313585962E-01    0.5803073336E+00
    0.1500000000E+06    0.6663058213E+00    0.2479452665E-02    0.1008430669E+00    0.1314108404E-01    0.5806843717E+00
    0.1700000000E+06    0.6663771845E+00    0.2334414803E-02    0.1007804101E+00    0.1314544888E-01    0.5809978399E+00
    0.1900000000E+06    0.6664333090E+00    0.2212596600E-02    0.1007226359E+00    0.1314918650E-01    0.5812645569E+00
    0.2100000000E+06    0.6664785671E+00    0.2108377265E-02    0.1006690785E+00    0.1315244821E-01    0.5814956368E+00
    0.2300000000E+06    0.6665158074E+00    0.2017875944E-02    0.1006191842E+00    0.1315533760E-01    0.5816987690E+00
    0.2500000000E+06    0.6665469647E+00    0.1938314805E-02    0.1005724942E+00    0.1315792838E-01    0.5818794724E+00
    0.2700000000E+06    0.6665733992E+00    0.1867645830E-02    0.1005286267E+00    0.1316027476E-01    0.5820418286E+00
    0.2900000000E+06    0.6665960946E+00    0.1804321264E-02    0.1004872620E+00    0.1316241769E-01    0.5821889335E+00
    0.3100000000E+06    0.6666157801E+00    0.1747146594E-02    0.1004481305E+00    0.1316438877E-01    0.5823231851E+00
    0.3300000000E+06    0.6666330074E+00    0.1695183143E-02    0.1004110031E+00    0.1316621290E-01    0.5824464754E+00
    0.3500000000E+06    0.6666482016E+00    0.1647681610E-02    0.1003756839E+00    0.1316791001E-01    0.5825603208E+00
    0.3700000000E+06    0.6666616955E+00    0.1604035582E-02    0.1003420041E+00    0.1316949630E-01    0.5826659536E+00
    0.3900000000E+06    0.6666737535E+00    0.1563748275E-02    0.1003098172E+00    0.1317098508E-01    0.5827643876E+00
    0.4100000000E+06    0.6666845880E+00    0.1526408277E-02    0.1002789954E+00    0.1317238745E-01    0.5828564659E+00
    0.4300000000E+06    0.6666943718E+00    0.1491671555E-02    0.1002494268E+00    0.1317371272E-01    0.5829428965E+00
    0.4500000000E+06    0.6667032465E+00    0.1459247882E-02    0.1002210124E+00    0.1317496881E-01    0.5830242794E+00
    0.4700000000E+06    0.6667113299E+00    0.1428890474E-02    0.1001936647E+00    0.1317616246E-01    0.5831011266E+00
    0.4900000000E+06    0.6667187202E+00    0.1400387962E-02    0.1001673057E+00    0.1317729953E-01    0.5831738787E+00
    0.1000000000E+06    0.6660003841E+00    0.3013269162E-02    0.1010263969E+00    0.1312550531E-01    0.5795585657E+00
    0.3000000000E+06    0.6666062756E+00    0.1775028958E-02    0.1004674322E+00    0.1316342302E-01    0.5822575376E+00
    0.5000000000E+06    0.6667221818E+00    0.1386774348E-02    0.1001544748E+00    0.1317784844E-01    0.5832088403E+00
    0.7000000000E+06    0.6667696029E+00    0.1178464706E-02    0.9993615420E-01    0.1318679432E-01    0.5837635804E+00
    0.9000000000E+06    0.6667946783E+00    0.1043482258E-02    0.9976804176E-01    0.1319327832E-01    0.5841475233E+00
    0.1100000000E+07    0.6668098169E+00    0.9468526906E-03    0.9963116354E-01    0.1319836282E-01    0.5844379034E+00
    0.1300000000E+07    0.6668197252E+00    0.8732508787E-03    0.9951563500E-01    0.1320254458E-01    0.5846698128E+00
    0.1500000000E+07    0.6668265679E+00    0.8147563573E-03    0.9941564152E-01    0.1320609577E-01    0.5848619789E+00
    0.1700000000E+07    0.6668314746E+00    0.7668069956E-03    0.9932746853E-01    0.1320918163E-01    0.5850255050E+00
    0.1900000000E+07    0.6668350895E+00    0.7265643515E-03    0.9924859651E-01    0.1321190999E-01    0.5851674832E+00
    0.2100000000E+07    0.6668378051E+00    0.6921571883E-03    0.9917723687E-01    0.1321435507E-01    0.5852927041E+00
    0.2300000000E+07    0.6668398737E+00    0.6622949617E-03    0.9911207353E-01    0.1321657019E-01    0.5854045466E+00
    0.2500000000E+07    0.6668414640E+00    0.6360548014E-03    0.9905210958E-01    0.1321859488E-01    0.5855054784E+00
    0.2700000000E+07    0.6668426927E+00    0.6127568577E-03    0.9899657158E-01    0.1322045931E-01    0.5855973537E+00
    0.2900000000E+07    0.6668436429E+00    0.5918877107E-03    0.9894484728E-01    0.1322218699E-01    0.5856815989E+00
    0.3100000000E+07    0.6668443754E+00    0.5730513676E-03    0.9889644366E-01    0.1322379662E-01    0.5857593339E+00
    0.3300000000E+07    0.6668449353E+00    0.5559368217E-03    0.9885095778E-01    0.1322530331E-01    0.5858314531E+00
    0.3500000000E+07    0.6668453567E+00    0.5402959367E-03    0.9880805606E-01    0.1322671943E-01    0.5858986814E+00
    0.3700000000E+07    0.6668456661E+00    0.5259279854E-03    0.9876745920E-01    0.1322805526E-01    0.5859616143E+00
    0.3900000000E+07    0.6668458839E+00    0.5126685964E-03    0.9872893098E-01    0.1322931943E-01    0.5860207467E+00
    0.4100000000E+07    0.6668460263E+00    0.5003816980E-03    0.9869226984E-01    0.1323051923E-01    0.5860764940E+00
    0.4300000000E+07    0.6668461064E+00    0.4889535418E-03    0.9865730236E-01    0.1323166091E-01    0.5861292081E+00
    0.4500000000E+07    0.6668461345E+00    0.4782882013E-03    0.9862387829E-01    0.1323274983E-01    0.5861791898E+00
    0.4700000000E+07    0.6668461192E+00    0.4683041325E-03    0.9859186658E-01    0.1323379067E-01    0.5862266979E+00
    0.4900000000E+07    0.6668460673E+00    0.4589315129E-03    0.9856115222E-01    0.1323478749E-01    0.5862719566E+00
    0.1000000000E+07    0.6668031059E+00    0.9915822026E-03    0.9969644707E-01    0.1319595698E-01    0.5843016662E+00
    0.3000000000E+07    0.6668440332E+00    0.5822365698E-03    0.9892025741E-01    0.1322300555E-01    0.5857212198E+00
    0.5000000000E+07    0.6668460294E+00    0.4544553603E-03    0.9854624936E-01    0.1323527052E-01    0.5862938046E+00
    0.7000000000E+07    0.6668443271E+00    0.3860012965E-03    0.9829692729E-01    0.1324329746E-01    0.5866492883E+00
    0.9000000000E+07    0.6668419647E+00    0.3416813189E-03    0.9810950363E-01    0.1324927526E-01    0.5869054372E+00
    0.1100000000E+08    0.6668395587E+00    0.3099718174E-03    0.9795923431E-01    0.1325404058E-01    0.5871049071E+00
    0.1300000000E+08    0.6668372666E+00    0.2858287718E-03    0.9783378009E-01    0.1325800353E-01    0.5872678570E+00
    0.1500000000E+08    0.6668351254E+00    0.2666472154E-03    0.9772608669E-01    0.1326139592E-01    0.5874053735E+00
    0.1700000000E+08    0.6668331353E+00    0.2509275336E-03    0.9763173899E-01    0.1326436165E-01    0.5875241911E+00
    0.1900000000E+08    0.6668312851E+00    0.2377371076E-03    0.9754778876E-01    0.1326699621E-01    0.5876286993E+00
    0.2100000000E+08    0.6668295610E+00    0.2264613266E-03    0.9747216888E-01    0.1326936626E-01    0.5877219151E+00
    0.2300000000E+08    0.6668279496E+00    0.2166764332E-03    0.9740337368E-01    0.1327152012E-01    0.5878059988E+00
    0.2500000000E+08    0.6668264386E+00    0.2080794733E-03    0.9734027229E-01    0.1327349400E-01    0.5878825493E+00
    0.2700000000E+08    0.6668250171E+00    0.2004473180E-03    0.9728199369E-01    0.1327531569E-01    0.5879527824E+00
