  Pressure (Pa) 22mC5-400 (mol/kg) 2mC6-400 (mol/kg) 3mC6-400 (mol/kg) 23mC5-400 (mol/kg) C7-400 (mol/kg)
    0.1000000000E+01    0.4742591993E-02    0.3947307064E-02    0.1050853659E-02    0.9252784955E-04    0.5115736291E-02
    0.3000000000E+01    0.1392521166E-01    0.1143352927E-01    0.3068052607E-02    0.2716849497E-03    0.1493759018E-01
    0.5000000000E+01    0.2272916198E-01    0.1841506896E-01    0.4980277064E-02    0.4434596780E-03    0.2425057419E-01
    0.7000000000E+01    0.3118158679E-01    0.2493514832E-01    0.6795900574E-02    0.6083811320E-03    0.3309522384E-01
    0.9000000000E+01    0.3930702415E-01    0.3103236777E-01    0.8522419546E-02    0.7669276220E-03    0.4150783153E-01
    0.1100000000E+02    0.4712771165E-01    0.3674129804E-01    0.1016656556E-01    0.9195326203E-03    0.4952098964E-01
    0.1300000000E+02    0.5466384994E-01    0.4209298421E-01    0.1173440084E-01    0.1066589898E-02    0.5716405207E-01
    0.1500000000E+02    0.6193383096E-01    0.4711537663E-01    0.1323139973E-01    0.1208457972E-02    0.6446352838E-01
    0.1700000000E+02    0.6895443627E-01    0.5183370070E-01    0.1466251857E-01    0.1345463971E-02    0.7144342160E-01
    0.1900000000E+02    0.7574100993E-01    0.5627077538E-01    0.1603225578E-01    0.1477907006E-02    0.7812551891E-01
    0.2100000000E+02    0.8230760962E-01    0.6044728841E-01    0.1734470381E-01    0.1606061114E-02    0.8452964279E-01
    0.2300000000E+02    0.8866713919E-01    0.6438203500E-01    0.1860359410E-01    0.1730177839E-02    0.9067386862E-01
    0.2500000000E+02    0.9483146510E-01    0.6809212547E-01    0.1981233624E-01    0.1850488508E-02    0.9657471398E-01
    0.2700000000E+02    0.1008115192E+00    0.7159316635E-01    0.2097405209E-01    0.1967206229E-02    0.1022473038E+00
    0.2900000000E+02    0.1066173894E+00    0.7489941891E-01    0.2209160569E-01    0.2080527658E-02    0.1077055150E+00
    0.3100000000E+02    0.1122584001E+00    0.7802393826E-01    0.2316762944E-01    0.2190634573E-02    0.1129621030E+00
    0.3300000000E+02    0.1177431837E+00    0.8097869564E-01    0.2420454719E-01    0.2297695258E-02    0.1180288139E+00
    0.3500000000E+02    0.1230797439E+00    0.8377468640E-01    0.2520459463E-01    0.2401865745E-02    0.1229164825E+00
    0.3700000000E+02    0.1282755128E+00    0.8642202537E-01    0.2616983729E-01    0.2503290920E-02    0.1276351200E+00
    0.3900000000E+02    0.1333374010E+00    0.8893003142E-01    0.2710218652E-01    0.2602105509E-02    0.1321939909E+00
    0.4100000000E+02    0.1382718434E+00    0.9130730260E-01    0.2800341371E-01    0.2698434962E-02    0.1366016820E+00
    0.4300000000E+02    0.1430848398E+00    0.9356178294E-01    0.2887516296E-01    0.2792396245E-02    0.1408661636E+00
    0.4500000000E+02    0.1477819913E+00    0.9570082215E-01    0.2971896238E-01    0.2884098558E-02    0.1449948442E+00
    0.4700000000E+02    0.1523685338E+00    0.9773122885E-01    0.3053623419E-01    0.2973643974E-02    0.1489946198E+00
    0.4900000000E+02    0.1568493670E+00    0.9965931839E-01    0.3132830384E-01    0.3061128021E-02    0.1528719173E+00
    0.1000000000E+02    0.4325415419E-01    0.3393335148E-01    0.9354395613E-02    0.8439473216E-03    0.4556243618E-01
    0.3000000000E+02    0.1094579472E+00    0.7648362296E-01    0.2263465267E-01    0.2135972111E-02    0.1103582553E+00
    0.5000000000E+02    0.1590515887E+00    0.1005868435E+00    0.3171527761E-01    0.3104125224E-02    0.1547665269E+00
    0.7000000000E+02    0.1985209039E+00    0.1149873983E+00    0.3839200824E-01    0.3874848646E-02    0.1874914374E+00
    0.9000000000E+02    0.2312233365E+00    0.1238113676E+00    0.4355448978E-01    0.4513600528E-02    0.2128485990E+00
    0.1100000000E+03    0.2590881115E+00    0.1292259769E+00    0.4769579110E-01    0.5057995881E-02    0.2332316644E+00
    0.1300000000E+03    0.2833147792E+00    0.1324613357E+00    0.5111231723E-01    0.5531423974E-02    0.2500806215E+00
    0.1500000000E+03    0.3046969261E+00    0.1342576629E+00    0.5399359498E-01    0.5949359074E-02    0.2643168894E+00
    0.1700000000E+03    0.3237865415E+00    0.1350810308E+00    0.5646683960E-01    0.6322564940E-02    0.2765593868E+00
    0.1900000000E+03    0.3409837213E+00    0.1352356063E+00    0.5862085551E-01    0.6658843735E-02    0.2872404608E+00
    0.2100000000E+03    0.3565885820E+00    0.1349256816E+00    0.6051967101E-01    0.6964048202E-02    0.2966720505E+00
    0.2300000000E+03    0.3708328107E+00    0.1342916939E+00    0.6221072010E-01    0.7242696811E-02    0.3050854066E+00
    0.2500000000E+03    0.3838996531E+00    0.1334320195E+00    0.6372996360E-01    0.7498363489E-02    0.3126559639E+00
    0.2700000000E+03    0.3959370420E+00    0.1324166262E+00    0.6510521150E-01    0.7733933595E-02    0.3195194832E+00
    0.2900000000E+03    0.4070664957E+00    0.1312958822E+00    0.6635834538E-01    0.7951777427E-02    0.3257828551E+00
    0.3100000000E+03    0.4173893225E+00    0.1301063875E+00    0.6750684549E-01    0.8153871190E-02    0.3315315250E+00
    0.3300000000E+03    0.4269910551E+00    0.1288749190E+00    0.6856486468E-01    0.8341883467E-02    0.3368347180E+00
    0.3500000000E+03    0.4359446938E+00    0.1276211522E+00    0.6954399960E-01    0.8517238455E-02    0.3417491923E+00
    0.3700000000E+03    0.4443131269E+00    0.1263595711E+00    0.7045385468E-01    0.8681163156E-02    0.3463219849E+00
    0.3900000000E+03    0.4521509710E+00    0.1251008274E+00    0.7130246158E-01    0.8834723257E-02    0.3505924542E+00
    0.4100000000E+03    0.4595059940E+00    0.1238527212E+00    0.7209659564E-01    0.8978850880E-02    0.3545938228E+00
    0.4300000000E+03    0.4664202316E+00    0.1226209169E+00    0.7284201802E-01    0.9114366355E-02    0.3583543573E+00
    0.4500000000E+03    0.4729308776E+00    0.1214094707E+00    0.7354366324E-01    0.9241995568E-02    0.3618982826E+00
    0.4700000000E+03    0.4790709997E+00    0.1202212234E+00    0.7420578595E-01    0.9362383933E-02    0.3652464985E+00
    0.4900000000E+03    0.4848701245E+00    0.1190580943E+00    0.7483207719E-01    0.9476107788E-02    0.3684171467E+00
    0.1000000000E+03    0.2456732431E+00    0.1268528513E+00    0.4573101848E-01    0.4795892768E-02    0.2235561573E+00
    0.3000000000E+03    0.4123230647E+00    0.1307078616E+00    0.6694472236E-01    0.8054682405E-02    0.3287168709E+00
    0.5000000000E+03    0.4876501918E+00    0.1184863527E+00    0.7513280857E-01    0.9530634085E-02    0.3699409113E+00
    0.7000000000E+03    0.5305265969E+00    0.1084518427E+00    0.7986830210E-01    0.1037235525E-01    0.3940577259E+00
    0.9000000000E+03    0.5577842868E+00    0.1007042188E+00    0.8307938659E-01    0.1090850563E-01    0.4105655852E+00
    0.1100000000E+04    0.5764337242E+00    0.9458295135E-01    0.8545247737E-01    0.1127607286E-01    0.4228646232E+00
    0.1300000000E+04    0.5898960219E+00    0.8960230854E-01    0.8730382830E-01    0.1154195427E-01    0.4325289085E+00
    0.1500000000E+04    0.6000198593E+00    0.8544451950E-01    0.8880301810E-01    0.1174232429E-01    0.4404060770E+00
    0.1700000000E+04    0.6078823827E+00    0.8190004019E-01    0.9005062269E-01    0.1189827458E-01    0.4470008045E+00
    0.1900000000E+04    0.6141493059E+00    0.7882648434E-01    0.9111075529E-01    0.1202284937E-01    0.4526359490E+00
    0.2100000000E+04    0.6192521205E+00    0.7612390151E-01    0.9202656545E-01    0.1212450929E-01    0.4575295216E+00
    0.2300000000E+04    0.6234817074E+00    0.7371997948E-01    0.9282835083E-01    0.1220896179E-01    0.4618350752E+00
    0.2500000000E+04    0.6270407274E+00    0.7156098163E-01    0.9353812153E-01    0.1228018613E-01    0.4656644870E+00
    0.2700000000E+04    0.6300743909E+00    0.6960602879E-01    0.9417232017E-01    0.1234103553E-01    0.4691015670E+00
    0.2900000000E+04    0.6326892832E+00    0.6782338131E-01    0.9474352067E-01    0.1239360573E-01    0.4722105753E+00
    0.3100000000E+04    0.6349652955E+00    0.6618795208E-01    0.9526153115E-01    0.1243946876E-01    0.4750417641E+00
    0.3300000000E+04    0.6369634205E+00    0.6467959951E-01    0.9573413396E-01    0.1247982561E-01    0.4776351030E+00
    0.3500000000E+04    0.6387309846E+00    0.6328192801E-01    0.9616759635E-01    0.1251560888E-01    0.4800228551E+00
    0.3700000000E+04    0.6403052440E+00    0.6198142722E-01    0.9656703152E-01    0.1254755325E-01    0.4822314019E+00
    0.3900000000E+04    0.6417159084E+00    0.6076684241E-01    0.9693665945E-01    0.1257624501E-01    0.4842825635E+00
    0.4100000000E+04    0.6429869472E+00    0.5962870605E-01    0.9727999885E-01    0.1260215754E-01    0.4861945723E+00
    0.4300000000E+04    0.6441379022E+00    0.5855898383E-01    0.9760001081E-01    0.1262567707E-01    0.4879828026E+00
    0.4500000000E+04    0.6451848589E+00    0.5755080344E-01    0.9789920794E-01    0.1264712173E-01    0.4896603259E+00
    0.4700000000E+04    0.6461411736E+00    0.5659824404E-01    0.9817973841E-01    0.1266675591E-01    0.4912383394E+00
    0.4900000000E+04    0.6470180253E+00    0.5569617091E-01    0.9844345147E-01    0.1268480102E-01    0.4927265002E+00
    0.1000000000E+04    0.5679198754E+00    0.9747535560E-01    0.8434601513E-01    0.1110817812E-01    0.4171185908E+00
    0.3000000000E+04    0.6338654654E+00    0.6698862314E-01    0.9500864765E-01    0.1241729328E-01    0.4736581927E+00
    0.5000000000E+04    0.6474296570E+00    0.5526264422E-01    0.9856951053E-01    0.1269328724E-01    0.4934395485E+00
    0.7000000000E+04    0.6531536213E+00    0.4840422853E-01    0.1005038149E+00    0.1281260191E-01    0.5045371751E+00
    0.9000000000E+04    0.6562950164E+00    0.4372122833E-01    0.1017573364E+00    0.1287965649E-01    0.5119227253E+00
    0.1100000000E+05    0.6582761117E+00    0.4024554871E-01    0.1026504027E+00    0.1292294083E-01    0.5173084890E+00
    0.1300000000E+05    0.6596382354E+00    0.3752618820E-01    0.1033258124E+00    0.1295338946E-01    0.5214683127E+00
    0.1500000000E+05    0.6606317257E+00    0.3531931014E-01    0.1038581245E+00    0.1297610105E-01    0.5248110938E+00
    0.1700000000E+05    0.6613881187E+00    0.3347945840E-01    0.1042905519E+00    0.1299377662E-01    0.5275763817E+00
    0.1900000000E+05    0.6619830901E+00    0.3191353990E-01    0.1046500802E+00    0.1300798284E-01    0.5299152546E+00
    0.2100000000E+05    0.6624632395E+00    0.3055872905E-01    0.1049545359E+00    0.1301969223E-01    0.5319284335E+00
    0.2300000000E+05    0.6628588215E+00    0.2937082959E-01    0.1052162235E+00    0.1302954128E-01    0.5336860447E+00
    0.2500000000E+05    0.6631903291E+00    0.2831769346E-01    0.1054439423E+00    0.1303796457E-01    0.5352386471E+00
    0.2700000000E+05    0.6634721348E+00    0.2737528368E-01    0.1056441699E+00    0.1304526930E-01    0.5366237531E+00
    0.2900000000E+05    0.6637146149E+00    0.2652520821E-01    0.1058217931E+00    0.1305167901E-01    0.5378698716E+00
    0.3100000000E+05    0.6639254480E+00    0.2575311516E-01    0.1059805749E+00    0.1305736042E-01    0.5389991162E+00
    0.3300000000E+05    0.6641104373E+00    0.2504761418E-01    0.1061234658E+00    0.1306244049E-01    0.5400289433E+00
    0.3500000000E+05    0.6642740498E+00    0.2439953110E-01    0.1062528148E+00    0.1306701772E-01    0.5409733457E+00
    0.3700000000E+05    0.6644197802E+00    0.2380138045E-01    0.1063705180E+00    0.1307116976E-01    0.5418436910E+00
    0.3900000000E+05    0.6645504013E+00    0.2324698411E-01    0.1064781244E+00    0.1307495869E-01    0.5426493243E+00
    0.4100000000E+05    0.6646681413E+00    0.2273119051E-01    0.1065769133E+00    0.1307843476E-01    0.5433980101E+00
    0.4300000000E+05    0.6647748111E+00    0.2224966438E-01    0.1066679510E+00    0.1308163914E-01    0.5440962612E+00
    0.4500000000E+05    0.6648718977E+00    0.2179872701E-01    0.1067521348E+00    0.1308460586E-01    0.5447495871E+00
    0.4700000000E+05    0.6649606335E+00    0.2137523320E-01    0.1068302250E+00    0.1308736336E-01    0.5453626852E+00
    0.4900000000E+05    0.6650420482E+00    0.2097647537E-01    0.1069028709E+00    0.1308993556E-01    0.5459395892E+00
    0.1000000000E+05    0.6573865074E+00    0.4186755613E-01    0.1022377006E+00    0.1290338118E-01    0.5148049562E+00
    0.3000000000E+05    0.6638235881E+00    0.2613018517E-01    0.1059033386E+00    0.1305460204E-01    0.5384479190E+00
    0.5000000000E+05    0.6650802866E+00    0.2078562705E-01    0.1069373299E+00    0.1309115864E-01    0.5462155764E+00
    0.7000000000E+05    0.6656135991E+00    0.1783376125E-01    0.1074424400E+00    0.1310951797E-01    0.5504769251E+00
    0.9000000000E+05    0.6659078234E+00    0.1588915978E-01    0.1077423138E+00    0.1312120957E-01    0.5532815906E+00
    0.1100000000E+06    0.6660939544E+00    0.1448162899E-01    0.1079396033E+00    0.1312959824E-01    0.5553142812E+00
    0.1300000000E+06    0.6662221206E+00    0.1340084814E-01    0.1080778859E+00    0.1313606223E-01    0.5568787219E+00
    0.1500000000E+06    0.6663156284E+00    0.1253654262E-01    0.1081790163E+00    0.1314128382E-01    0.5581333686E+00
    0.1700000000E+06    0.6663867794E+00    0.1182450358E-01    0.1082552256E+00    0.1314564486E-01    0.5591701978E+00
    0.1900000000E+06    0.6664426776E+00    0.1122443882E-01    0.1083139154E+00    0.1314937836E-01    0.5600468135E+00
    0.2100000000E+06    0.6664877102E+00    0.1070959964E-01    0.1083598356E+00    0.1315263596E-01    0.5608014118E+00
    0.2300000000E+06    0.6665247326E+00    0.1026142990E-01    0.1083961769E+00    0.1315552134E-01    0.5614604729E+00
    0.2500000000E+06    0.6665556826E+00    0.9866593693E-02    0.1084251635E+00    0.1315810832E-01    0.5620430227E+00
    0.2700000000E+06    0.6665819213E+00    0.9515224254E-02    0.1084483927E+00    0.1316045110E-01    0.5625631380E+00
    0.2900000000E+06    0.6666044324E+00    0.9199841863E-02    0.1084670414E+00    0.1316259065E-01    0.5630314925E+00
    0.3100000000E+06    0.6666239448E+00    0.8914658051E-02    0.1084819952E+00    0.1316455855E-01    0.5634563499E+00
    0.3300000000E+06    0.6666410093E+00    0.8655112892E-02    0.1084939330E+00    0.1316637970E-01    0.5638442235E+00
    0.3500000000E+06    0.6666560505E+00    0.8417558338E-02    0.1085033834E+00    0.1316807401E-01    0.5642003276E+00
    0.3700000000E+06    0.6666694004E+00    0.8199036030E-02    0.1085107643E+00    0.1316965766E-01    0.5645288935E+00
    0.3900000000E+06    0.6666813227E+00    0.7997117952E-02    0.1085164093E+00    0.1317114396E-01    0.5648333968E+00
    0.4100000000E+06    0.6666920289E+00    0.7809789937E-02    0.1085205886E+00    0.1317254399E-01    0.5651167232E+00
    0.4300000000E+06    0.6667016914E+00    0.7635365032E-02    0.1085235226E+00    0.1317386706E-01    0.5653812916E+00
    0.4500000000E+06    0.6667104513E+00    0.7472418065E-02    0.1085253928E+00    0.1317512105E-01    0.5656291475E+00
    0.4700000000E+06    0.6667184257E+00    0.7319735547E-02    0.1085263498E+00    0.1317631274E-01    0.5658620343E+00
    0.4900000000E+06    0.6667257124E+00    0.7176276822E-02    0.1085265199E+00    0.1317744793E-01    0.5660814484E+00
    0.1000000000E+06    0.6660103233E+00    0.1513477654E-01    0.1078503154E+00    0.1312570656E-01    0.5543705426E+00
    0.3000000000E+06    0.6666145255E+00    0.9053784654E-02    0.1084749337E+00    0.1316359436E-01    0.5632489163E+00
    0.5000000000E+06    0.6667291241E+00    0.7107720802E-02    0.1085263436E+00    0.1317799594E-01    0.5661865142E+00
    0.7000000000E+06    0.6667757505E+00    0.6055796033E-02    0.1085001068E+00    0.1318692757E-01    0.5678185537E+00
    0.9000000000E+06    0.6668002815E+00    0.5371235869E-02    0.1084545110E+00    0.1319340201E-01    0.5689055823E+00
    0.1100000000E+07    0.6668150174E+00    0.4879764416E-02    0.1084040821E+00    0.1319847956E-01    0.5697020151E+00
    0.1300000000E+07    0.6668246118E+00    0.4504619906E-02    0.1083535266E+00    0.1320265600E-01    0.5703210859E+00
    0.1500000000E+07    0.6668312008E+00    0.4205984766E-02    0.1083045268E+00    0.1320620297E-01    0.5708221037E+00
    0.1700000000E+07    0.6668358966E+00    0.3960860943E-02    0.1082576620E+00    0.1320928539E-01    0.5712396367E+00
    0.1900000000E+07    0.6668393325E+00    0.3754908221E-02    0.1082130696E+00    0.1321201088E-01    0.5715954236E+00
    0.2100000000E+07    0.6668418937E+00    0.3578655819E-02    0.1081707038E+00    0.1321445353E-01    0.5719039374E+00
    0.2300000000E+07    0.6668438272E+00    0.3425562086E-02    0.1081304440E+00    0.1321666656E-01    0.5721752513E+00
    0.2500000000E+07    0.6668452978E+00    0.3290943009E-02    0.1080921444E+00    0.1321868943E-01    0.5724166303E+00
    0.2700000000E+07    0.6668464196E+00    0.3171344126E-02    0.1080556554E+00    0.1322055227E-01    0.5726334696E+00
    0.2900000000E+07    0.6668472736E+00    0.3064154046E-02    0.1080208338E+00    0.1322227854E-01    0.5728298749E+00
    0.3100000000E+07    0.6668479188E+00    0.2967356864E-02    0.1079875467E+00    0.1322388691E-01    0.5730090358E+00
    0.3300000000E+07    0.6668483989E+00    0.2879368058E-02    0.1079556729E+00    0.1322539247E-01    0.5731734746E+00
    0.3500000000E+07    0.6668487471E+00    0.2798922517E-02    0.1079251026E+00    0.1322680758E-01    0.5733252172E+00
    0.3700000000E+07    0.6668489890E+00    0.2724996168E-02    0.1078957367E+00    0.1322814249E-01    0.5734659130E+00
    0.3900000000E+07    0.6668491443E+00    0.2656749922E-02    0.1078674860E+00    0.1322940582E-01    0.5735969208E+00
    0.4100000000E+07    0.6668492286E+00    0.2593488769E-02    0.1078402703E+00    0.1323060486E-01    0.5737193721E+00
    0.4300000000E+07    0.6668492544E+00    0.2534631425E-02    0.1078140170E+00    0.1323174583E-01    0.5738342182E+00
    0.4500000000E+07    0.6668492318E+00    0.2479687450E-02    0.1077886609E+00    0.1323283412E-01    0.5739422658E+00
    0.4700000000E+07    0.6668491687E+00    0.2428239751E-02    0.1077641425E+00    0.1323387436E-01    0.5740442043E+00
    0.4900000000E+07    0.6668490719E+00    0.2379931046E-02    0.1077404083E+00    0.1323487063E-01    0.5741406271E+00
    0.1000000000E+07    0.6668084941E+00    0.5107412166E-02    0.1084294966E+00    0.1319607694E-01    0.5693312259E+00
    0.3000000000E+07    0.6668476193E+00    0.3014563974E-02    0.1080040063E+00    0.1322309645E-01    0.5729214399E+00
    0.5000000000E+07    0.6668490126E+00    0.2356855862E-02    0.1077288198E+00    0.1323535341E-01    0.5741869335E+00
    0.7000000000E+07    0.6668469784E+00    0.2003640145E-02    0.1075284292E+00    0.1324337672E-01    0.5749185723E+00
    0.9000000000E+07    0.6668443976E+00    0.1774626402E-02    0.1073705520E+00    0.1324935262E-01    0.5754207552E+00
    0.1100000000E+08    0.6668418335E+00    0.1610615628E-02    0.1072400942E+00    0.1325411689E-01    0.5757977616E+00
    0.1300000000E+08    0.6668394201E+00    0.1485651415E-02    0.1071288175E+00    0.1325807927E-01    0.5760968936E+00
    0.1500000000E+08    0.6668371819E+00    0.1386312502E-02    0.1070317295E+00    0.1326147139E-01    0.5763433293E+00
    0.1700000000E+08    0.6668351119E+00    0.1304865526E-02    0.1069455731E+00    0.1326443704E-01    0.5765519517E+00
    0.1900000000E+08    0.6668331943E+00    0.1236497556E-02    0.1068681037E+00    0.1326707166E-01    0.5767322387E+00
    0.2100000000E+08    0.6668314126E+00    0.1178034894E-02    0.1067977075E+00    0.1326944186E-01    0.5768905726E+00
    0.2300000000E+08    0.6668297510E+00    0.1127288251E-02    0.1067331850E+00    0.1327159594E-01    0.5770314420E+00
    0.2500000000E+08    0.6668281957E+00    0.1082691778E-02    0.1066736195E+00    0.1327357009E-01    0.5771581156E+00
    0.2700000000E+08    0.6668267349E+00    0.1043091773E-02    0.1066182947E+00    0.1327539209E-01    0.5772730425E+00
