  Pressure (Pa) 22mC5-400 (mol/kg) 2mC6-400 (mol/kg) 3mC6-400 (mol/kg) 23mC5-400 (mol/kg) C7-400 (mol/kg)
    0.1000000000E+01    0.4749835470E-02    0.2364073149E-02    0.1047625818E-02    0.9266910392E-04    0.8500183221E-02
    0.3000000000E+01    0.1398702962E-01    0.6823602440E-02    0.3040652866E-02    0.2728904735E-03    0.2467489121E-01
    0.5000000000E+01    0.2289218132E-01    0.1095337542E-01    0.4908357065E-02    0.4466387947E-03    0.3983724734E-01
    0.7000000000E+01    0.3148525642E-01    0.1478388202E-01    0.6662463780E-02    0.6143032197E-03    0.5408182524E-01
    0.9000000000E+01    0.3978461323E-01    0.1834205084E-01    0.8313271835E-02    0.7762415719E-03    0.6749170141E-01
    0.1100000000E+02    0.4780716065E-01    0.2165175544E-01    0.9869864405E-02    0.9327834272E-03    0.8014015397E-01
    0.1300000000E+02    0.5556849812E-01    0.2473423611E-01    0.1134028354E-01    0.1084232841E-02    0.9209206875E-01
    0.1500000000E+02    0.6308303970E-01    0.2760845303E-01    0.1273167546E-01    0.1230870767E-02    0.1034051098E+00
    0.1700000000E+02    0.7036412450E-01    0.3029138385E-01    0.1405041215E-01    0.1372957208E-02    0.1141306993E+00
    0.1900000000E+02    0.7742411496E-01    0.3279827543E-01    0.1530219368E-01    0.1510733132E-02    0.1243148416E+00
    0.2100000000E+02    0.8427448466E-01    0.3514285813E-01    0.1649213469E-01    0.1644422185E-02    0.1339988208E+00
    0.2300000000E+02    0.9092589687E-01    0.3733752871E-01    0.1762483783E-01    0.1774232217E-02    0.1432197921E+00
    0.2500000000E+02    0.9738827494E-01    0.3939350745E-01    0.1870445646E-01    0.1900356659E-02    0.1520112872E+00
    0.2700000000E+02    0.1036708655E+00    0.4132097334E-01    0.1973474828E-01    0.2022975752E-02    0.1604036465E+00
    0.2900000000E+02    0.1097822954E+00    0.4312918112E-01    0.2071912147E-01    0.2142257658E-02    0.1684243917E+00
    0.3100000000E+02    0.1157306230E+00    0.4482656277E-01    0.2166067457E-01    0.2258359456E-02    0.1760985459E+00
    0.3300000000E+02    0.1215233844E+00    0.4642081589E-01    0.2256223093E-01    0.2371428048E-02    0.1834489129E+00
    0.3500000000E+02    0.1271676351E+00    0.4791898101E-01    0.2342636869E-01    0.2481600970E-02    0.1904963176E+00
    0.3700000000E+02    0.1326699884E+00    0.4932750921E-01    0.2425544697E-01    0.2589007136E-02    0.1972598181E+00
    0.3900000000E+02    0.1380366493E+00    0.5065232169E-01    0.2505162867E-01    0.2693767505E-02    0.2037568888E+00
    0.4100000000E+02    0.1432734461E+00    0.5189886212E-01    0.2581690057E-01    0.2795995689E-02    0.2100035831E+00
    0.4300000000E+02    0.1483858585E+00    0.5307214310E-01    0.2655309094E-01    0.2895798511E-02    0.2160146749E+00
    0.4500000000E+02    0.1533790439E+00    0.5417678712E-01    0.2726188511E-01    0.2993276505E-02    0.2218037845E+00
    0.4700000000E+02    0.1582578606E+00    0.5521706310E-01    0.2794483923E-01    0.3088524381E-02    0.2273834897E+00
    0.4900000000E+02    0.1630268896E+00    0.5619691885E-01    0.2860339247E-01    0.3181631443E-02    0.2327654234E+00
    0.1000000000E+02    0.4382948399E-01    0.2002657637E-01    0.9102819857E-02    0.8551674898E-03    0.7390686833E-01
    0.3000000000E+02    0.1127763643E+00    0.4399122786E-01    0.2119506800E-01    0.2200696661E-02    0.1723033184E+00
    0.5000000000E+02    0.1653715944E+00    0.5666534221E-01    0.2892393919E-01    0.3227408694E-02    0.2353856248E+00
    0.7000000000E+02    0.2074330725E+00    0.6361897012E-01    0.3433039466E-01    0.4048714957E-02    0.2796429463E+00
    0.9000000000E+02    0.2422118703E+00    0.6739698275E-01    0.3834769878E-01    0.4727994624E-02    0.3126231476E+00
    0.1100000000E+03    0.2716791678E+00    0.6930448353E-01    0.4146460009E-01    0.5303677868E-02    0.3382830597E+00
    0.1300000000E+03    0.2971090854E+00    0.7006614937E-01    0.4396258187E-01    0.5800606348E-02    0.3589038042E+00
    0.1500000000E+03    0.3193687213E+00    0.7010828325E-01    0.4601561259E-01    0.6235686877E-02    0.3758965989E+00
    0.1700000000E+03    0.3390736401E+00    0.6969276029E-01    0.4773724201E-01    0.6620922481E-02    0.3901834464E+00
    0.1900000000E+03    0.3566764414E+00    0.6898584402E-01    0.4920487852E-01    0.6965138989E-02    0.4023934939E+00
    0.2100000000E+03    0.3725198261E+00    0.6809578590E-01    0.5047319874E-01    0.7275019565E-02    0.4129715577E+00
    0.2300000000E+03    0.3868697905E+00    0.6709441105E-01    0.5158197983E-01    0.7555751837E-02    0.4222415471E+00
    0.2500000000E+03    0.3999371751E+00    0.6603002393E-01    0.5256089020E-01    0.7811448020E-02    0.4304452818E+00
    0.2700000000E+03    0.4118921177E+00    0.6493538960E-01    0.5343253588E-01    0.8045426683E-02    0.4377671893E+00
    0.2900000000E+03    0.4228740285E+00    0.6383281196E-01    0.5421446281E-01    0.8260407242E-02    0.4443505474E+00
    0.3100000000E+03    0.4329986539E+00    0.6273744392E-01    0.5492051120E-01    0.8458647674E-02    0.4503084767E+00
    0.3300000000E+03    0.4423631940E+00    0.6165948979E-01    0.5556175461E-01    0.8642044294E-02    0.4557315675E+00
    0.3500000000E+03    0.4510500870E+00    0.6060569685E-01    0.5614716568E-01    0.8812205538E-02    0.4606932888E+00
    0.3700000000E+03    0.4591298592E+00    0.5958038074E-01    0.5668409728E-01    0.8970507541E-02    0.4652539005E+00
    0.3900000000E+03    0.4666633086E+00    0.5858613957E-01    0.5717863642E-01    0.9118136706E-02    0.4694633324E+00
    0.4100000000E+03    0.4737032020E+00    0.5762435665E-01    0.5763586861E-01    0.9256122791E-02    0.4733633361E+00
    0.4300000000E+03    0.4802956122E+00    0.5669555772E-01    0.5806007822E-01    0.9385364995E-02    0.4769891160E+00
    0.4500000000E+03    0.4864809853E+00    0.5579966660E-01    0.5845490221E-01    0.9506652758E-02    0.4803705830E+00
    0.4700000000E+03    0.4922950008E+00    0.5493618930E-01    0.5882344949E-01    0.9620682539E-02    0.4835333270E+00
    0.4900000000E+03    0.4977692726E+00    0.5410434710E-01    0.5916839472E-01    0.9728071485E-02    0.4864993820E+00
    0.1000000000E+03    0.2575177862E+00    0.6852999554E-01    0.3999778999E-01    0.5026998523E-02    0.3261987391E+00
    0.3000000000E+03    0.4280370418E+00    0.6328349322E-01    0.5457622376E-01    0.8361493947E-02    0.4474015728E+00
    0.5000000000E+03    0.5003879162E+00    0.5369999228E-01    0.5933275223E-01    0.9779449625E-02    0.4879147161E+00
    0.7000000000E+03    0.5403494928E+00    0.4700334804E-01    0.6180724751E-01    0.1056430148E-01    0.5094168658E+00
    0.9000000000E+03    0.5654171108E+00    0.4225036556E-01    0.6335701550E-01    0.1105769974E-01    0.5231253043E+00
    0.1100000000E+04    0.5824772802E+00    0.3870919520E-01    0.6443154782E-01    0.1139423168E-01    0.5327864623E+00
    0.1300000000E+04    0.5947764655E+00    0.3595580864E-01    0.6522630068E-01    0.1163739331E-01    0.5400419073E+00
    0.1500000000E+04    0.6040327937E+00    0.3374072671E-01    0.6584105151E-01    0.1182081374E-01    0.5457355745E+00
    0.1700000000E+04    0.6112348156E+00    0.3191002459E-01    0.6633248828E-01    0.1196385636E-01    0.5503501370E+00
    0.1900000000E+04    0.6169889023E+00    0.3036409084E-01    0.6673539254E-01    0.1207840738E-01    0.5541836200E+00
    0.2100000000E+04    0.6216863772E+00    0.2903567945E-01    0.6707238168E-01    0.1217214335E-01    0.5574309944E+00
    0.2300000000E+04    0.6255904409E+00    0.2787771444E-01    0.6735884816E-01    0.1225023129E-01    0.5602257228E+00
    0.2500000000E+04    0.6288843002E+00    0.2685620107E-01    0.6760565873E-01    0.1231627056E-01    0.5626625572E+00
    0.2700000000E+04    0.6316992246E+00    0.2594592925E-01    0.6782072029E-01    0.1237284209E-01    0.5648108175E+00
    0.2900000000E+04    0.6341316246E+00    0.2512777009E-01    0.6800993355E-01    0.1242184289E-01    0.5667225089E+00
    0.3100000000E+04    0.6362538384E+00    0.2438691761E-01    0.6817779785E-01    0.1246469741E-01    0.5684374908E+00
    0.3300000000E+04    0.6381211635E+00    0.2371171105E-01    0.6832780816E-01    0.1250249537E-01    0.5699868805E+00
    0.3500000000E+04    0.6397765705E+00    0.2309282550E-01    0.6846272347E-01    0.1253608425E-01    0.5713953635E+00
    0.3700000000E+04    0.6412539404E+00    0.2252270257E-01    0.6858475284E-01    0.1256613276E-01    0.5726828000E+00
    0.3900000000E+04    0.6425803362E+00    0.2199514160E-01    0.6869568737E-01    0.1259317548E-01    0.5738653684E+00
    0.4100000000E+04    0.6437776285E+00    0.2150500080E-01    0.6879699560E-01    0.1261764475E-01    0.5749563951E+00
    0.4300000000E+04    0.6448636788E+00    0.2104797489E-01    0.6888989379E-01    0.1263989395E-01    0.5759669671E+00
    0.4500000000E+04    0.6458532142E+00    0.2062042736E-01    0.6897539840E-01    0.1266021466E-01    0.5769063917E+00
    0.4700000000E+04    0.6467584835E+00    0.2021926211E-01    0.6905436594E-01    0.1267884960E-01    0.5777825460E+00
    0.4900000000E+04    0.6475897556E+00    0.1984182394E-01    0.6912752357E-01    0.1269600242E-01    0.5786021464E+00
    0.1000000000E+04    0.5746947060E+00    0.4036019475E-01    0.6393822057E-01    0.1124061851E-01    0.5283321611E+00
    0.3000000000E+04    0.6352277134E+00    0.2474847213E-01    0.6809629598E-01    0.1244396374E-01    0.5676024701E+00
    0.5000000000E+04    0.6479804065E+00    0.1966127380E-01    0.6916212151E-01    0.1270407788E-01    0.5789925730E+00
    0.7000000000E+04    0.6534430241E+00    0.1687453670E-01    0.6966133612E-01    0.1281827447E-01    0.5848815591E+00
    0.9000000000E+04    0.6564685819E+00    0.1504202468E-01    0.6995033544E-01    0.1288305925E-01    0.5886107053E+00
    0.1100000000E+05    0.6583884911E+00    0.1371578492E-01    0.7013732521E-01    0.1292514407E-01    0.5912380663E+00
    0.1300000000E+05    0.6597144960E+00    0.1269702274E-01    0.7026689779E-01    0.1295488430E-01    0.5932159891E+00
    0.1500000000E+05    0.6606849641E+00    0.1188187193E-01    0.7036092350E-01    0.1297714416E-01    0.5947739209E+00
    0.1700000000E+05    0.6614258356E+00    0.1120995014E-01    0.7043142661E-01    0.1299451506E-01    0.5960420588E+00
    0.1900000000E+05    0.6620098854E+00    0.1064339030E-01    0.7048557785E-01    0.1300850680E-01    0.5971004159E+00
    0.2100000000E+05    0.6624820876E+00    0.1015705726E-01    0.7052792238E-01    0.1302006006E-01    0.5980011956E+00
    0.2300000000E+05    0.6628717285E+00    0.9733512183E-02    0.7056148143E-01    0.1302979234E-01    0.5987800824E+00
    0.2500000000E+05    0.6631986955E+00    0.9360218835E-02    0.7058834124E-01    0.1303812634E-01    0.5994623976E+00
    0.2700000000E+05    0.6634769666E+00    0.9027899006E-02    0.7060998821E-01    0.1304536153E-01    0.6000666688E+00
    0.2900000000E+05    0.6637166525E+00    0.8729516540E-02    0.7062750938E-01    0.1305171624E-01    0.6006068040E+00
    0.3100000000E+05    0.6639252476E+00    0.8459624146E-02    0.7064171753E-01    0.1305735356E-01    0.6010934730E+00
    0.3300000000E+05    0.6641084241E+00    0.8213929017E-02    0.7065323205E-01    0.1306239791E-01    0.6015350154E+00
    0.3500000000E+05    0.6642705543E+00    0.7988995520E-02    0.7066253280E-01    0.1306694591E-01    0.6019380563E+00
    0.3700000000E+05    0.6644150625E+00    0.7782036537E-02    0.7066999697E-01    0.1307107383E-01    0.6023079336E+00
    0.3900000000E+05    0.6645446687E+00    0.7590763801E-02    0.7067592481E-01    0.1307484271E-01    0.6026490031E+00
    0.4100000000E+05    0.6646615608E+00    0.7413278440E-02    0.7068055812E-01    0.1307830202E-01    0.6029648585E+00
    0.4300000000E+05    0.6647675185E+00    0.7247989564E-02    0.7068409353E-01    0.1308149230E-01    0.6032584952E+00
    0.4500000000E+05    0.6648640045E+00    0.7093552753E-02    0.7068669249E-01    0.1308444713E-01    0.6035324322E+00
    0.4700000000E+05    0.6649522318E+00    0.6948822948E-02    0.7068848859E-01    0.1308719454E-01    0.6037888053E+00
    0.4900000000E+05    0.6650332148E+00    0.6812817912E-02    0.7068959324E-01    0.1308975817E-01    0.6040294390E+00
    0.1000000000E+05    0.6575251448E+00    0.1433125165E-01    0.7005301109E-01    0.1290609926E-01    0.5900262268E+00
    0.3000000000E+05    0.6638244463E+00    0.8591300433E-02    0.7063498507E-01    0.1305461604E-01    0.6008562542E+00
    0.5000000000E+05    0.6650712622E+00    0.6747817573E-02    0.7068991609E-01    0.1309097745E-01    0.6041443527E+00
    0.7000000000E+05    0.6656027470E+00    0.5749966335E-02    0.7067640924E-01    0.1310930010E-01    0.6059029527E+00
    0.9000000000E+05    0.6658967180E+00    0.5100151149E-02    0.7064568257E-01    0.1312098611E-01    0.6070461068E+00
    0.1100000000E+06    0.6660830260E+00    0.4633441684E-02    0.7061030601E-01    0.1312937776E-01    0.6078688957E+00
    0.1300000000E+06    0.6662114956E+00    0.4277111610E-02    0.7057435082E-01    0.1313584730E-01    0.6084995925E+00
    0.1500000000E+06    0.6663053353E+00    0.3993408825E-02    0.7053929533E-01    0.1314107504E-01    0.6090042113E+00
    0.1700000000E+06    0.6663768120E+00    0.3760516936E-02    0.7050567422E-01    0.1314544215E-01    0.6094206933E+00
    0.1900000000E+06    0.6664330172E+00    0.3564827329E-02    0.7047364241E-01    0.1314918138E-01    0.6097726238E+00
    0.2100000000E+06    0.6664783350E+00    0.3397349774E-02    0.7044319463E-01    0.1315244430E-01    0.6100755507E+00
    0.2300000000E+06    0.6665156206E+00    0.3251873130E-02    0.7041425847E-01    0.1315533460E-01    0.6103402032E+00
    0.2500000000E+06    0.6665468133E+00    0.3123949234E-02    0.7038673607E-01    0.1315792610E-01    0.6105742611E+00
    0.2700000000E+06    0.6665732759E+00    0.3010297082E-02    0.7036052336E-01    0.1316027306E-01    0.6107833891E+00
    0.2900000000E+06    0.6665959941E+00    0.2908436112E-02    0.7033551876E-01    0.1316241645E-01    0.6109718718E+00
    0.3100000000E+06    0.6666156983E+00    0.2816451225E-02    0.7031162708E-01    0.1316438792E-01    0.6111430192E+00
    0.3300000000E+06    0.6666329411E+00    0.2732837011E-02    0.7028876086E-01    0.1316621238E-01    0.6112994356E+00
    0.3500000000E+06    0.6666481485E+00    0.2656391437E-02    0.7026684062E-01    0.1316790977E-01    0.6114432029E+00
    0.3700000000E+06    0.6666616536E+00    0.2586141438E-02    0.7024579447E-01    0.1316949629E-01    0.6115760085E+00
    0.3900000000E+06    0.6666737213E+00    0.2521289677E-02    0.7022555758E-01    0.1317098528E-01    0.6116992370E+00
    0.4100000000E+06    0.6666845641E+00    0.2461175700E-02    0.7020607146E-01    0.1317238783E-01    0.6118140368E+00
    0.4300000000E+06    0.6666943551E+00    0.2405247106E-02    0.7018728335E-01    0.1317371326E-01    0.6119213702E+00
    0.4500000000E+06    0.6667032362E+00    0.2353037809E-02    0.7016914557E-01    0.1317496948E-01    0.6120220502E+00
    0.4700000000E+06    0.6667113253E+00    0.2304151419E-02    0.7015161495E-01    0.1317616327E-01    0.6121167696E+00
    0.4900000000E+06    0.6667187206E+00    0.2258248379E-02    0.7013465233E-01    0.1317730044E-01    0.6122061226E+00
    0.1000000000E+06    0.6659992795E+00    0.4849637021E-02    0.7062822663E-01    0.1312548405E-01    0.6074874140E+00
    0.3000000000E+06    0.6666061849E+00    0.2861311414E-02    0.7032343946E-01    0.1316342199E-01    0.6110594356E+00
    0.5000000000E+06    0.6667221845E+00    0.2236322519E-02    0.7012637277E-01    0.1317784941E-01    0.6122489500E+00
    0.7000000000E+06    0.6667696345E+00    0.1900723422E-02    0.6998346933E-01    0.1318679597E-01    0.6129182577E+00
    0.9000000000E+06    0.6667947232E+00    0.1683163341E-02    0.6987122633E-01    0.1319328034E-01    0.6133694051E+00
    0.1100000000E+07    0.6668098697E+00    0.1527375793E-02    0.6977868892E-01    0.1319836508E-01    0.6137035186E+00
    0.1300000000E+07    0.6668197830E+00    0.1408690996E-02    0.6969989818E-01    0.1320254701E-01    0.6139657509E+00
    0.1500000000E+07    0.6668266295E+00    0.1314353692E-02    0.6963125348E-01    0.1320609834E-01    0.6141798450E+00
    0.1700000000E+07    0.6668315390E+00    0.1237014735E-02    0.6957041127E-01    0.1320918432E-01    0.6143596968E+00
    0.1900000000E+07    0.6668351562E+00    0.1172100614E-02    0.6951575971E-01    0.1321191278E-01    0.6145140819E+00
    0.2100000000E+07    0.6668378737E+00    0.1116595691E-02    0.6946614206E-01    0.1321435795E-01    0.6146488663E+00
    0.2300000000E+07    0.6668399440E+00    0.1068419840E-02    0.6942069964E-01    0.1321657315E-01    0.6147681495E+00
    0.2500000000E+07    0.6668415357E+00    0.1026085371E-02    0.6937877728E-01    0.1321859792E-01    0.6148748993E+00
    0.2700000000E+07    0.6668427657E+00    0.9884962293E-03    0.6933986355E-01    0.1322046242E-01    0.6149713282E+00
    0.2900000000E+07    0.6668437171E+00    0.9548246021E-03    0.6930355144E-01    0.1322219016E-01    0.6150591259E+00
    0.3100000000E+07    0.6668444507E+00    0.9244319584E-03    0.6926951168E-01    0.1322379985E-01    0.6151396095E+00
    0.3300000000E+07    0.6668450115E+00    0.8968167694E-03    0.6923747408E-01    0.1322530659E-01    0.6152138242E+00
    0.3500000000E+07    0.6668454339E+00    0.8715788659E-03    0.6920721417E-01    0.1322672277E-01    0.6152826124E+00
    0.3700000000E+07    0.6668457441E+00    0.8483945171E-03    0.6917854336E-01    0.1322805866E-01    0.6153466618E+00
    0.3900000000E+07    0.6668459627E+00    0.8269986132E-03    0.6915130170E-01    0.1322932288E-01    0.6154065408E+00
    0.4100000000E+07    0.6668461059E+00    0.8071716775E-03    0.6912535235E-01    0.1323052272E-01    0.6154627242E+00
    0.4300000000E+07    0.6668461867E+00    0.7887302329E-03    0.6910057729E-01    0.1323166445E-01    0.6155156121E+00
    0.4500000000E+07    0.6668462155E+00    0.7715195426E-03    0.6907687403E-01    0.1323275341E-01    0.6155655450E+00
    0.4700000000E+07    0.6668462008E+00    0.7554080660E-03    0.6905415300E-01    0.1323379429E-01    0.6156128144E+00
    0.4900000000E+07    0.6668461495E+00    0.7402831667E-03    0.6903233544E-01    0.1323479115E-01    0.6156576722E+00
    0.1000000000E+07    0.6668031552E+00    0.1599493692E-02    0.6982294159E-01    0.1319595913E-01    0.6135475469E+00
    0.3000000000E+07    0.6668441080E+00    0.9392524826E-03    0.6928626561E-01    0.1322300875E-01    0.6151002111E+00
    0.5000000000E+07    0.6668461120E+00    0.7330598126E-03    0.6902174339E-01    0.1323527421E-01    0.6156792661E+00
    0.7000000000E+07    0.6668444147E+00    0.6225899654E-03    0.6884400355E-01    0.1324330149E-01    0.6160251450E+00
    0.9000000000E+07    0.6668420562E+00    0.5510657472E-03    0.6870979872E-01    0.1324927957E-01    0.6162681265E+00
    0.1100000000E+08    0.6668396533E+00    0.4998926246E-03    0.6860188429E-01    0.1325404513E-01    0.6164538502E+00
    0.1300000000E+08    0.6668373639E+00    0.4609308131E-03    0.6851160096E-01    0.1325800828E-01    0.6166033796E+00
    0.1500000000E+08    0.6668352251E+00    0.4299763342E-03    0.6843397458E-01    0.1326140086E-01    0.6167280867E+00
    0.1700000000E+08    0.6668332370E+00    0.4046089882E-03    0.6836588093E-01    0.1326436675E-01    0.6168347757E+00
    0.1900000000E+08    0.6668313887E+00    0.3833236119E-03    0.6830522800E-01    0.1326700147E-01    0.6169278259E+00
    0.2100000000E+08    0.6668296664E+00    0.3651282683E-03    0.6825054569E-01    0.1326937166E-01    0.6170102138E+00
    0.2300000000E+08    0.6668280566E+00    0.3493390402E-03    0.6820076123E-01    0.1327152565E-01    0.6170840508E+00
    0.2500000000E+08    0.6668265470E+00    0.3354669786E-03    0.6815506758E-01    0.1327349966E-01    0.6171508861E+00
    0.2700000000E+08    0.6668251269E+00    0.3231519676E-03    0.6811284231E-01    0.1327532146E-01    0.6172118888E+00
