  Pressure (Pa) 22mC5-400 (mol/kg) 2mC6-400 (mol/kg) 3mC6-400 (mol/kg) 23mC5-400 (mol/kg) C7-400 (mol/kg)
    0.1000000000E+01    0.4753477129E-02    0.1581307676E-02    0.2628564313E-02    0.9274011958E-04    0.5118523461E-02
    0.3000000000E+01    0.1401829087E-01    0.4593418473E-02    0.7682072733E-02    0.2735001048E-03    0.1496086793E-01
    0.5000000000E+01    0.2297507673E-01    0.7417894984E-02    0.1248150830E-01    0.4482553751E-03    0.2431066107E-01
    0.7000000000E+01    0.3164048137E-01    0.1006905203E-01    0.1704593627E-01    0.6173303718E-03    0.3320480721E-01
    0.9000000000E+01    0.4002994901E-01    0.1255984412E-01    0.2139255178E-01    0.7810261030E-03    0.4167659355E-01
    0.1100000000E+02    0.4815782762E-01    0.1490202189E-01    0.2553690396E-01    0.9396222140E-03    0.4975612342E-01
    0.1300000000E+02    0.5603746420E-01    0.1710626733E-01    0.2949308859E-01    0.1093378843E-02    0.5747068870E-01
    0.1500000000E+02    0.6368129031E-01    0.1918231125E-01    0.3327391428E-01    0.1242538288E-02    0.6484509116E-01
    0.1700000000E+02    0.7110089906E-01    0.2113903553E-01    0.3689104634E-01    0.1387326506E-02    0.7190192068E-01
    0.1900000000E+02    0.7830711452E-01    0.2298456246E-01    0.4035513178E-01    0.1527954470E-02    0.7866179689E-01
    0.2100000000E+02    0.8531005437E-01    0.2472633305E-01    0.4367590827E-01    0.1664619383E-02    0.8514357992E-01
    0.2300000000E+02    0.9211918663E-01    0.2637117592E-01    0.4686229935E-01    0.1797505788E-02    0.9136455449E-01
    0.2500000000E+02    0.9874338093E-01    0.2792536789E-01    0.4992249797E-01    0.1926786566E-02    0.9734059150E-01
    0.2700000000E+02    0.1051909552E+00    0.2939468768E-01    0.5286403989E-01    0.2052623846E-02    0.1030862900E+00
    0.2900000000E+02    0.1114697177E+00    0.3078446337E-01    0.5569386844E-01    0.2175169827E-02    0.1086151024E+00
    0.3100000000E+02    0.1175870061E+00    0.3209961466E-01    0.5841839175E-01    0.2294567531E-02    0.1139394451E+00
    0.3300000000E+02    0.1235497221E+00    0.3334469037E-01    0.6104353344E-01    0.2410951483E-02    0.1190707970E+00
    0.3500000000E+02    0.1293643633E+00    0.3452390201E-01    0.6357477772E-01    0.2524448341E-02    0.1240197859E+00
    0.3700000000E+02    0.1350370530E+00    0.3564115376E-01    0.6601720944E-01    0.2635177460E-02    0.1287962668E+00
    0.3900000000E+02    0.1405735667E+00    0.3670006928E-01    0.6837554996E-01    0.2743251415E-02    0.1334093908E+00
    0.4100000000E+02    0.1459793563E+00    0.3770401586E-01    0.7065418907E-01    0.2848776483E-02    0.1378676673E+00
    0.4300000000E+02    0.1512595732E+00    0.3865612609E-01    0.7285721374E-01    0.2951853074E-02    0.1421790189E+00
    0.4500000000E+02    0.1564190883E+00    0.3955931740E-01    0.7498843384E-01    0.3052576138E-02    0.1463508320E+00
    0.4700000000E+02    0.1614625114E+00    0.4041630969E-01    0.7705140529E-01    0.3151035533E-02    0.1503900011E+00
    0.4900000000E+02    0.1663942083E+00    0.4122964132E-01    0.7904945098E-01    0.3247316364E-02    0.1543029693E+00
    0.1000000000E+02    0.4412573034E-01    0.1374881858E-01    0.2348909780E-01    0.8609449156E-03    0.4576362290E-01
    0.3000000000E+02    0.1145481050E+00    0.3145107448E-01    0.5706891222E-01    0.2235253614E-02    0.1113020941E+00
    0.5000000000E+02    0.1688194612E+00    0.4162068154E-01    0.8002510601E-01    0.3294665191E-02    0.1562140272E+00
    0.7000000000E+02    0.2123580483E+00    0.4764894512E-01    0.9678729576E-01    0.4144794769E-02    0.1890852478E+00
    0.9000000000E+02    0.2483295881E+00    0.5123938641E-01    0.1096119637E+00    0.4847354500E-02    0.2142930596E+00
    0.1100000000E+03    0.2787166038E+00    0.5332480983E-01    0.1197717449E+00    0.5440993958E-02    0.2343082160E+00
    0.1300000000E+03    0.3048313366E+00    0.5444909241E-01    0.1280401743E+00    0.5951297082E-02    0.2506336876E+00
    0.1500000000E+03    0.3275824600E+00    0.5494478704E-01    0.1349152380E+00    0.6395980818E-02    0.2642378169E+00
    0.1700000000E+03    0.3476231165E+00    0.5502288678E-01    0.1407324802E+00    0.6787780676E-02    0.2757735824E+00
    0.1900000000E+03    0.3654376454E+00    0.5482122291E-01    0.1457265261E+00    0.7136141319E-02    0.2856979245E+00
    0.2100000000E+03    0.3813947694E+00    0.5443194847E-01    0.1500665543E+00    0.7448253357E-02    0.2943405760E+00
    0.2300000000E+03    0.3957815178E+00    0.5391782330E-01    0.1538777530E+00    0.7729714656E-02    0.3019457176E+00
    0.2500000000E+03    0.4088256158E+00    0.5332221162E-01    0.1572548311E+00    0.7984966801E-02    0.3086982200E+00
    0.2700000000E+03    0.4207107106E+00    0.5267540634E-01    0.1602708229E+00    0.8217591941E-02    0.3147407519E+00
    0.2900000000E+03    0.4315870057E+00    0.5199873313E-01    0.1629829959E+00    0.8430520104E-02    0.3201852664E+00
    0.3100000000E+03    0.4415788648E+00    0.5130727291E-01    0.1654369196E+00    0.8626177448E-02    0.3251209143E+00
    0.3300000000E+03    0.4507903653E+00    0.5061170259E-01    0.1676693311E+00    0.8806594528E-02    0.3296196199E+00
    0.3500000000E+03    0.4593094308E+00    0.4991956036E-01    0.1697101936E+00    0.8973486877E-02    0.3337400885E+00
    0.3700000000E+03    0.4672109598E+00    0.4923612812E-01    0.1715842026E+00    0.9128316000E-02    0.3375307402E+00
    0.3900000000E+03    0.4745592298E+00    0.4856505479E-01    0.1733119052E+00    0.9272336254E-02    0.3410318905E+00
    0.4100000000E+03    0.4814097711E+00    0.4790880131E-01    0.1749105442E+00    0.9406631380E-02    0.3442773960E+00
    0.4300000000E+03    0.4878108443E+00    0.4726896168E-01    0.1763947031E+00    0.9532143327E-02    0.3472959123E+00
    0.4500000000E+03    0.4938046204E+00    0.4664649620E-01    0.1777768050E+00    0.9649695243E-02    0.3501118669E+00
    0.4700000000E+03    0.4994281309E+00    0.4604190243E-01    0.1790675021E+00    0.9760010019E-02    0.3527462208E+00
    0.4900000000E+03    0.5047140412E+00    0.4545534106E-01    0.1802759841E+00    0.9863725366E-02    0.3552170692E+00
    0.1000000000E+03    0.2641273447E+00    0.5242979918E-01    0.1149682993E+00    0.5155960213E-02    0.2248396453E+00
    0.3000000000E+03    0.4366865636E+00    0.5165409795E-01    0.1642397632E+00    0.8530372503E-02    0.3227118529E+00
    0.5000000000E+03    0.5072395687E+00    0.4516880409E-01    0.1808519277E+00    0.9913287337E-02    0.3563961702E+00
    0.7000000000E+03    0.5455634048E+00    0.4029922851E-01    0.1895287685E+00    0.1066618446E-01    0.3743029971E+00
    0.9000000000E+03    0.5694424700E+00    0.3670724652E-01    0.1949621992E+00    0.1113638061E-01    0.3856962672E+00
    0.1100000000E+04    0.5856576717E+00    0.3395643570E-01    0.1987258964E+00    0.1145641195E-01    0.3937055078E+00
    0.1300000000E+04    0.5973464645E+00    0.3177149147E-01    0.2015069299E+00    0.1168765054E-01    0.3997061061E+00
    0.1500000000E+04    0.6061514195E+00    0.2998339413E-01    0.2036564023E+00    0.1186225213E-01    0.4044052659E+00
    0.1700000000E+04    0.6130117511E+00    0.2848474296E-01    0.2053737487E+00    0.1199861758E-01    0.4082070653E+00
    0.1900000000E+04    0.6185015653E+00    0.2720439498E-01    0.2067812422E+00    0.1210800342E-01    0.4113606417E+00
    0.2100000000E+04    0.6229906983E+00    0.2609337264E-01    0.2079583139E+00    0.1219766673E-01    0.4140287202E+00
    0.2300000000E+04    0.6267277162E+00    0.2511680261E-01    0.2089589630E+00    0.1227248883E-01    0.4163225058E+00
    0.2500000000E+04    0.6298856292E+00    0.2424912357E-01    0.2098212702E+00    0.1233586993E-01    0.4183208212E+00
    0.2700000000E+04    0.6325884483E+00    0.2347112665E-01    0.2105729148E+00    0.1239024921E-01    0.4200812423E+00
    0.2900000000E+04    0.6349273141E+00    0.2276806277E-01    0.2112345319E+00    0.1243742073E-01    0.4216469003E+00
    0.3100000000E+04    0.6369706681E+00    0.2212839359E-01    0.2118218415E+00    0.1247873280E-01    0.4230508064E+00
    0.3300000000E+04    0.6387708796E+00    0.2154294395E-01    0.2123470434E+00    0.1251521794E-01    0.4243186984E+00
    0.3500000000E+04    0.6403686853E+00    0.2100431228E-01    0.2128197606E+00    0.1254767997E-01    0.4254709688E+00
    0.3700000000E+04    0.6417962388E+00    0.2050645133E-01    0.2132476922E+00    0.1257675385E-01    0.4265240049E+00
    0.3900000000E+04    0.6430792509E+00    0.2004436408E-01    0.2136370762E+00    0.1260294772E-01    0.4274911418E+00
    0.4100000000E+04    0.6442385215E+00    0.1961387922E-01    0.2139930239E+00    0.1262667301E-01    0.4283833527E+00
    0.4300000000E+04    0.6452910555E+00    0.1921148278E-01    0.2143197661E+00    0.1264826634E-01    0.4292097581E+00
    0.4500000000E+04    0.6462508884E+00    0.1883418995E-01    0.2146208369E+00    0.1266800577E-01    0.4299780076E+00
    0.4700000000E+04    0.6471297054E+00    0.1847944631E-01    0.2148992124E+00    0.1268612301E-01    0.4306945701E+00
    0.4900000000E+04    0.6479373123E+00    0.1814505072E-01    0.2151574186E+00    0.1270281264E-01    0.4313649567E+00
    0.1000000000E+04    0.5782622332E+00    0.3524708221E-01    0.1969984263E+00    0.1131035941E-01    0.3900153041E+00
    0.3000000000E+04    0.6359823406E+00    0.2244092477E-01    0.2115366429E+00    0.1245873844E-01    0.4223673193E+00
    0.5000000000E+04    0.6483170535E+00    0.1798487698E-01    0.2152796451E+00    0.1271067457E-01    0.4316843381E+00
    0.7000000000E+04    0.6536423885E+00    0.1549626701E-01    0.2170548830E+00    0.1282218350E-01    0.4365072888E+00
    0.9000000000E+04    0.6566054503E+00    0.1384475133E-01    0.2180991958E+00    0.1288574430E-01    0.4395721983E+00
    0.1100000000E+05    0.6584913057E+00    0.1264311694E-01    0.2187874720E+00    0.1292716201E-01    0.4417411345E+00
    0.1300000000E+05    0.6597965025E+00    0.1171684257E-01    0.2192742964E+00    0.1295649454E-01    0.4433817489E+00
    0.1500000000E+05    0.6607532020E+00    0.1097386067E-01    0.2196356257E+00    0.1297848460E-01    0.4446803167E+00
    0.1700000000E+05    0.6614844127E+00    0.1036029456E-01    0.2199133329E+00    0.1299566618E-01    0.4457425030E+00
    0.1900000000E+05    0.6620613718E+00    0.9842195243E-02    0.2201324707E+00    0.1300951897E-01    0.4466332568E+00
    0.2100000000E+05    0.6625281809E+00    0.9396946472E-02    0.2203089781E+00    0.1302096654E-01    0.4473949769E+00
    0.2300000000E+05    0.6629135995E+00    0.9008812376E-02    0.2204534932E+00    0.1303061608E-01    0.4480566689E+00
    0.2500000000E+05    0.6632371810E+00    0.8666455005E-02    0.2205733944E+00    0.1303888374E-01    0.4486389357E+00
    0.2700000000E+05    0.6635126824E+00    0.8361467168E-02    0.2206739628E+00    0.1304606466E-01    0.4491568690E+00
    0.2900000000E+05    0.6637500635E+00    0.8087463174E-02    0.2207590798E+00    0.1305237422E-01    0.4496218121E+00
    0.3100000000E+05    0.6639567121E+00    0.7839492663E-02    0.2208316623E+00    0.1305797341E-01    0.4500424783E+00
    0.3300000000E+05    0.6641382237E+00    0.7613649925E-02    0.2208939449E+00    0.1306298513E-01    0.4504256877E+00
    0.3500000000E+05    0.6642989137E+00    0.7406805975E-02    0.2209476685E+00    0.1306750493E-01    0.4507768655E+00
    0.3700000000E+05    0.6644421638E+00    0.7216420208E-02    0.2209942090E+00    0.1307160821E-01    0.4511003896E+00
    0.3900000000E+05    0.6645706613E+00    0.7040405107E-02    0.2210346684E+00    0.1307535538E-01    0.4513998374E+00
    0.4100000000E+05    0.6646865686E+00    0.6877027171E-02    0.2210699394E+00    0.1307879541E-01    0.4516781649E+00
    0.4300000000E+05    0.6647916455E+00    0.6724833139E-02    0.2211007524E+00    0.1308196845E-01    0.4519378397E+00
    0.4500000000E+05    0.6648873386E+00    0.6582594196E-02    0.2211277109E+00    0.1308490776E-01    0.4521809400E+00
    0.4700000000E+05    0.6649748481E+00    0.6449263201E-02    0.2211513178E+00    0.1308764112E-01    0.4524092305E+00
    0.4900000000E+05    0.6650551778E+00    0.6323941481E-02    0.2211719951E+00    0.1309019196E-01    0.4526242211E+00
    0.1000000000E+05    0.6576427107E+00    0.1320137844E-01    0.2184754659E+00    0.1290840619E-01    0.4407394871E+00
    0.3000000000E+05    0.6638568447E+00    0.7960488713E-02    0.2207967848E+00    0.1305525418E-01    0.4498372159E+00
    0.5000000000E+05    0.6650929200E+00    0.6264037332E-02    0.2211813488E+00    0.1309140527E-01    0.4527271424E+00
    0.7000000000E+05    0.6656202209E+00    0.5343647989E-02    0.2212777773E+00    0.1310964612E-01    0.4543255556E+00
    0.9000000000E+05    0.6659118798E+00    0.4743504102E-02    0.2212852134E+00    0.1312128700E-01    0.4553931486E+00
    0.1100000000E+06    0.6660966764E+00    0.4312089482E-02    0.2212574008E+00    0.1312964919E-01    0.4561793538E+00
    0.1300000000E+06    0.6662240578E+00    0.3982487156E-02    0.2212140693E+00    0.1313609754E-01    0.4567941120E+00
    0.1500000000E+06    0.6663170637E+00    0.3719923880E-02    0.2211637830E+00    0.1314130908E-01    0.4572947133E+00
    0.1700000000E+06    0.6663878736E+00    0.3504288955E-02    0.2211106589E+00    0.1314566324E-01    0.4577144628E+00
    0.1900000000E+06    0.6664435288E+00    0.3323030001E-02    0.2210568055E+00    0.1314939181E-01    0.4580742829E+00
    0.2100000000E+06    0.6664883819E+00    0.3167850365E-02    0.2210033411E+00    0.1315264573E-01    0.4583881015E+00
    0.2300000000E+06    0.6665252678E+00    0.3033015627E-02    0.2209508643E+00    0.1315552829E-01    0.4586656182E+00
    0.2500000000E+06    0.6665561113E+00    0.2914417507E-02    0.2208996878E+00    0.1315811305E-01    0.4589138358E+00
    0.2700000000E+06    0.6665822651E+00    0.2809024714E-02    0.2208499625E+00    0.1316045405E-01    0.4591379616E+00
    0.2900000000E+06    0.6666047076E+00    0.2714544809E-02    0.2208017451E+00    0.1316259213E-01    0.4593419647E+00
    0.3100000000E+06    0.6666241634E+00    0.2629207466E-02    0.2207550380E+00    0.1316455881E-01    0.4595289336E+00
    0.3300000000E+06    0.6666411809E+00    0.2551620743E-02    0.2207098116E+00    0.1316637893E-01    0.4597013156E+00
    0.3500000000E+06    0.6666561824E+00    0.2480672967E-02    0.2206660184E+00    0.1316807236E-01    0.4598610800E+00
    0.3700000000E+06    0.6666694984E+00    0.2415464032E-02    0.2206236015E+00    0.1316965525E-01    0.4600098331E+00
    0.3900000000E+06    0.6666813915E+00    0.2355256249E-02    0.2205824995E+00    0.1317114089E-01    0.4601489010E+00
    0.4100000000E+06    0.6666920725E+00    0.2299438462E-02    0.2205426501E+00    0.1317254034E-01    0.4602793902E+00
    0.4300000000E+06    0.6667017128E+00    0.2247499416E-02    0.2205039913E+00    0.1317386288E-01    0.4604022330E+00
    0.4500000000E+06    0.6667104533E+00    0.2199007677E-02    0.2204664635E+00    0.1317511641E-01    0.4605182215E+00
    0.4700000000E+06    0.6667184105E+00    0.2153596269E-02    0.2204300093E+00    0.1317630768E-01    0.4606280339E+00
    0.4900000000E+06    0.6667256819E+00    0.2110950788E-02    0.2203945745E+00    0.1317744249E-01    0.4607322554E+00
    0.1000000000E+06    0.6660136167E+00    0.4511975090E-02    0.2212740841E+00    0.1312576886E-01    0.4558127707E+00
    0.3000000000E+06    0.6666147712E+00    0.2670827857E-02    0.2207782041E+00    0.1316359521E-01    0.4594374126E+00
    0.5000000000E+06    0.6667290865E+00    0.2090579060E-02    0.2203772231E+00    0.1317799033E-01    0.4607824309E+00
    0.7000000000E+06    0.6667756243E+00    0.1778608383E-02    0.2200728251E+00    0.1318691955E-01    0.4615867082E+00
    0.9000000000E+06    0.6668001135E+00    0.1576190735E-02    0.2198284901E+00    0.1319339262E-01    0.4621526824E+00
    0.1100000000E+07    0.6668148250E+00    0.1431150076E-02    0.2196243822E+00    0.1319846923E-01    0.4625860255E+00
    0.1300000000E+07    0.6668244030E+00    0.1320593147E-02    0.2194490189E+00    0.1320264494E-01    0.4629354707E+00
    0.1500000000E+07    0.6668309799E+00    0.1232676411E-02    0.2192952141E+00    0.1320619131E-01    0.4632273286E+00
    0.1700000000E+07    0.6668356664E+00    0.1160572794E-02    0.2191581820E+00    0.1320927321E-01    0.4634773466E+00
    0.1900000000E+07    0.6668390946E+00    0.1100031961E-02    0.2190345765E+00    0.1321199823E-01    0.4636956647E+00
    0.2100000000E+07    0.6668416494E+00    0.1048250378E-02    0.2189219664E+00    0.1321444047E-01    0.4638891793E+00
    0.2300000000E+07    0.6668435773E+00    0.1003293617E-02    0.2188185290E+00    0.1321665311E-01    0.4640627849E+00
    0.2500000000E+07    0.6668450430E+00    0.9637777997E-03    0.2187228627E+00    0.1321867564E-01    0.4642200751E+00
    0.2700000000E+07    0.6668461604E+00    0.9286830920E-03    0.2186338658E+00    0.1322053814E-01    0.4643637635E+00
    0.2900000000E+07    0.6668470104E+00    0.8972390657E-03    0.2185506570E+00    0.1322226410E-01    0.4644959469E+00
    0.3100000000E+07    0.6668476518E+00    0.8688513238E-03    0.2184725195E+00    0.1322387218E-01    0.4646182781E+00
    0.3300000000E+07    0.6668481285E+00    0.8430529073E-03    0.2183988628E+00    0.1322537747E-01    0.4647320822E+00
    0.3500000000E+07    0.6668484736E+00    0.8194711596E-03    0.2183291944E+00    0.1322679231E-01    0.4648384370E+00
    0.3700000000E+07    0.6668487125E+00    0.7978045533E-03    0.2182630994E+00    0.1322812697E-01    0.4649382305E+00
    0.3900000000E+07    0.6668488650E+00    0.7778061201E-03    0.2182002244E+00    0.1322939006E-01    0.4650322031E+00
    0.4100000000E+07    0.6668489467E+00    0.7592713696E-03    0.2181402667E+00    0.1323058887E-01    0.4651209779E+00
    0.4300000000E+07    0.6668489700E+00    0.7420293270E-03    0.2180829643E+00    0.1323172962E-01    0.4652050842E+00
    0.4500000000E+07    0.6668489449E+00    0.7259357790E-03    0.2180280893E+00    0.1323281769E-01    0.4652849755E+00
    0.4700000000E+07    0.6668488796E+00    0.7108681138E-03    0.2179754420E+00    0.1323385772E-01    0.4653610429E+00
    0.4900000000E+07    0.6668487806E+00    0.6967213274E-03    0.2179248466E+00    0.1323485379E-01    0.4654336262E+00
    0.1000000000E+07    0.6668083126E+00    0.1498303551E-02    0.2197222585E+00    0.1319606705E-01    0.4623821377E+00
    0.3000000000E+07    0.6668473541E+00    0.8826948835E-03    0.2185109938E+00    0.1322308186E-01    0.4645582546E+00
    0.5000000000E+07    0.6668487203E+00    0.6899644813E-03    0.2179002690E+00    0.1323533647E-01    0.4654687057E+00
    0.7000000000E+07    0.6668466683E+00    0.5865759378E-03    0.2174865334E+00    0.1324335806E-01    0.4660431639E+00
    0.9000000000E+07    0.6668440739E+00    0.5195777547E-03    0.2171726524E+00    0.1324933257E-01    0.4664613038E+00
    0.1100000000E+08    0.6668414988E+00    0.4716105102E-03    0.2169194414E+00    0.1325409566E-01    0.4667892711E+00
    0.1300000000E+08    0.6668390759E+00    0.4350695182E-03    0.2167070877E+00    0.1325805700E-01    0.4670586692E+00
    0.1500000000E+08    0.6668368295E+00    0.4060248940E-03    0.2165241564E+00    0.1326144819E-01    0.4672870216E+00
    0.1700000000E+08    0.6668347521E+00    0.3822131469E-03    0.2163634395E+00    0.1326441300E-01    0.4674850417E+00
    0.1900000000E+08    0.6668328279E+00    0.3622259958E-03    0.2162200967E+00    0.1326704685E-01    0.4676597507E+00
    0.2100000000E+08    0.6668310400E+00    0.3451350173E-03    0.2160907190E+00    0.1326941633E-01    0.4678159957E+00
    0.2300000000E+08    0.6668293728E+00    0.3302998805E-03    0.2159728137E+00    0.1327156974E-01    0.4679572613E+00
    0.2500000000E+08    0.6668278123E+00    0.3172626652E-03    0.2158645026E+00    0.1327354325E-01    0.4680861354E+00
    0.2700000000E+08    0.6668263467E+00    0.3056860200E-03    0.2157643350E+00    0.1327536465E-01    0.4682045918E+00
