  Pressure (Pa) 22mC5-400 (mol/kg) 2mC6-400 (mol/kg) 3mC6-400 (mol/kg) 23mC5-400 (mol/kg) C7-400 (mol/kg)
    0.1000000000E+01    0.5276108219E-02    0.1580986406E-02    0.5260260074E-03    0.2779291603E-03    0.6828741970E-02
    0.3000000000E+01    0.1552794860E-01    0.4590610225E-02    0.1539089944E-02    0.8179777742E-03    0.1998237707E-01
    0.5000000000E+01    0.2539961196E-01    0.7410326159E-02    0.2503366004E-02    0.1338016279E-02    0.3250545830E-01
    0.7000000000E+01    0.3491375869E-01    0.1005466976E-01    0.3422365873E-02    0.1839237106E-02    0.4444330416E-01
    0.9000000000E+01    0.4409124899E-01    0.1253681021E-01    0.4299270463E-02    0.2322737971E-02    0.5583696777E-01
    0.1100000000E+02    0.5295131748E-01    0.1486870383E-01    0.5136968016E-02    0.2789531058E-02    0.6672372796E-01
    0.1300000000E+02    0.6151172809E-01    0.1706122750E-01    0.5938087053E-02    0.3240551167E-02    0.7713751405E-01
    0.1500000000E+02    0.6978891156E-01    0.1912429507E-01    0.6705024973E-02    0.3676662950E-02    0.8710927443E-01
    0.1700000000E+02    0.7779808805E-01    0.2106695910E-01    0.7439972950E-02    0.4098667361E-02    0.9666729753E-01
    0.1900000000E+02    0.8555337643E-01    0.2289750009E-01    0.8144937676E-02    0.4507307406E-02    0.1058374921E+00
    0.2100000000E+02    0.9306789213E-01    0.2462350504E-01    0.8821760416E-02    0.4903273292E-02    0.1146436330E+00
    0.2300000000E+02    0.1003538347E+00    0.2625193658E-01    0.9472133740E-02    0.5287207033E-02    0.1231075767E+00
    0.2500000000E+02    0.1074225666E+00    0.2778919423E-01    0.1009761626E-01    0.5659706592E-02    0.1312494515E+00
    0.2700000000E+02    0.1142846836E+00    0.2924116857E-01    0.1069964568E-01    0.6021329601E-02    0.1390878254E+00
    0.2900000000E+02    0.1209500790E+00    0.3061328941E-01    0.1127955027E-01    0.6372596713E-02    0.1466398549E+00
    0.3100000000E+02    0.1274280009E+00    0.3191056862E-01    0.1183855917E-01    0.6713994631E-02    0.1539214170E+00
    0.3300000000E+02    0.1337271038E+00    0.3313763838E-01    0.1237781144E-01    0.7045978840E-02    0.1609472263E+00
    0.3500000000E+02    0.1398554964E+00    0.3429878534E-01    0.1289836422E-01    0.7368976082E-02    0.1677309401E+00
    0.3700000000E+02    0.1458207838E+00    0.3539798119E-01    0.1340119995E-01    0.7683386607E-02    0.1742852519E+00
    0.3900000000E+02    0.1516301061E+00    0.3643891014E-01    0.1388723291E-01    0.7989586206E-02    0.1806219751E+00
    0.4100000000E+02    0.1572901743E+00    0.3742499358E-01    0.1435731499E-01    0.8287928068E-02    0.1867521182E+00
    0.4300000000E+02    0.1628073017E+00    0.3835941227E-01    0.1481224102E-01    0.8578744470E-02    0.1926859526E+00
    0.4500000000E+02    0.1681874334E+00    0.3924512643E-01    0.1525275339E-01    0.8862348313E-02    0.1984330733E+00
    0.4700000000E+02    0.1734361733E+00    0.4008489378E-01    0.1567954639E-01    0.9139034533E-02    0.2040024541E+00
    0.4900000000E+02    0.1785588082E+00    0.4088128596E-01    0.1609327002E-01    0.9409081383E-02    0.2094024968E+00
    0.1000000000E+02    0.4855981794E-01    0.1372083421E-01    0.4722850104E-02    0.2558162837E-02    0.6134151627E-01
    0.3000000000E+02    0.1242119199E+00    0.3127098622E-01    0.1156159348E-01    0.6544500152E-02    0.1503134988E+00
    0.5000000000E+02    0.1810744073E+00    0.4126397279E-01    0.1629542270E-01    0.9541697730E-02    0.2120414969E+00
    0.7000000000E+02    0.2258423041E+00    0.4714536659E-01    0.1978169097E-01    0.1190211365E-01    0.2576037287E+00
    0.9000000000E+02    0.2622774919E+00    0.5063268960E-01    0.2246566718E-01    0.1382375124E-01    0.2927581829E+00
    0.1100000000E+03    0.2926700205E+00    0.5265733308E-01    0.2460198022E-01    0.1542715445E-01    0.3208001020E+00
    0.1300000000E+03    0.3185041508E+00    0.5375680208E-01    0.2634701971E-01    0.1679045788E-01    0.3437549002E+00
    0.1500000000E+03    0.3407913735E+00    0.5425640155E-01    0.2780228737E-01    0.1796691251E-01    0.3629381127E+00
    0.1700000000E+03    0.3602496746E+00    0.5436047823E-01    0.2903662221E-01    0.1899432043E-01    0.3792426000E+00
    0.1900000000E+03    0.3774060666E+00    0.5420125144E-01    0.3009841669E-01    0.1990043114E-01    0.3932964850E+00
    0.2100000000E+03    0.3926582894E+00    0.5386632345E-01    0.3102272036E-01    0.2070618913E-01    0.4055550333E+00
    0.2300000000E+03    0.4063135861E+00    0.5341484747E-01    0.3183556708E-01    0.2142777480E-01    0.4163566487E+00
    0.2500000000E+03    0.4186139990E+00    0.5288737145E-01    0.3255671618E-01    0.2207793599E-01    0.4259583593E+00
    0.2700000000E+03    0.4297534182E+00    0.5231201331E-01    0.3320144770E-01    0.2266688539E-01    0.4345590692E+00
    0.2900000000E+03    0.4398894027E+00    0.5170843521E-01    0.3378177251E-01    0.2320292277E-01    0.4423152379E+00
    0.3100000000E+03    0.4491515849E+00    0.5109045825E-01    0.3430726882E-01    0.2369287744E-01    0.4493517238E+00
    0.3300000000E+03    0.4576477790E+00    0.5046781604E-01    0.3478567320E-01    0.2414242979E-01    0.4557694494E+00
    0.3500000000E+03    0.4654685093E+00    0.4984735051E-01    0.3522330665E-01    0.2455634973E-01    0.4616509290E+00
    0.3700000000E+03    0.4726904248E+00    0.4923383941E-01    0.3562538701E-01    0.2493867639E-01    0.4670643234E+00
    0.3900000000E+03    0.4793789144E+00    0.4863057634E-01    0.3599626172E-01    0.2529285588E-01    0.4720664626E+00
    0.4100000000E+03    0.4855901383E+00    0.4803978190E-01    0.3633958380E-01    0.2562184821E-01    0.4767051319E+00
    0.4300000000E+03    0.4913726253E+00    0.4746289810E-01    0.3665844648E-01    0.2592821139E-01    0.4810208218E+00
    0.4500000000E+03    0.4967685422E+00    0.4690080087E-01    0.3695548758E-01    0.2621416831E-01    0.4850480845E+00
    0.4700000000E+03    0.5018147142E+00    0.4635395478E-01    0.3723297118E-01    0.2648166042E-01    0.4888165974E+00
    0.4900000000E+03    0.5065434508E+00    0.4582252621E-01    0.3749285227E-01    0.2673239129E-01    0.4923520030E+00
    0.1000000000E+03    0.2781223670E+00    0.5178776854E-01    0.2359085697E-01    0.1465961423E-01    0.3075202825E+00
    0.3000000000E+03    0.4446225288E+00    0.5140055862E-01    0.3405085318E-01    0.2345328162E-01    0.4459166458E+00
    0.5000000000E+03    0.5087978118E+00    0.4556258493E-01    0.3761673120E-01    0.2685194746E-01    0.4940393688E+00
    0.7000000000E+03    0.5426167353E+00    0.4110402618E-01    0.3948451043E-01    0.2864774798E-01    0.5196794710E+00
    0.9000000000E+03    0.5633298596E+00    0.3775222284E-01    0.4065483492E-01    0.2975058906E-01    0.5359961488E+00
    0.1100000000E+04    0.5772492678E+00    0.3513998663E-01    0.4146522147E-01    0.3049372980E-01    0.5474586092E+00
    0.1300000000E+04    0.5872162148E+00    0.3303366261E-01    0.4206349196E-01    0.3102731894E-01    0.5560366610E+00
    0.1500000000E+04    0.5946905315E+00    0.3128802445E-01    0.4252533493E-01    0.3142857328E-01    0.5627449294E+00
    0.1700000000E+04    0.6004959899E+00    0.2980948094E-01    0.4289380034E-01    0.3174110546E-01    0.5681637976E+00
    0.1900000000E+04    0.6051313355E+00    0.2853514088E-01    0.4319530581E-01    0.3199134451E-01    0.5726513643E+00
    0.2100000000E+04    0.6089155813E+00    0.2742110625E-01    0.4344702332E-01    0.3219621075E-01    0.5764416270E+00
    0.2300000000E+04    0.6120619804E+00    0.2643571547E-01    0.4366063146E-01    0.3236702544E-01    0.5796945377E+00
    0.2500000000E+04    0.6147183453E+00    0.2555548521E-01    0.4384436802E-01    0.3251164295E-01    0.5825234816E+00
    0.2700000000E+04    0.6169902785E+00    0.2476257709E-01    0.4400422134E-01    0.3263567992E-01    0.5850112790E+00
    0.2900000000E+04    0.6189551883E+00    0.2404315982E-01    0.4414465585E-01    0.3274325725E-01    0.5872199650E+00
    0.3100000000E+04    0.6206710820E+00    0.2338631694E-01    0.4426907228E-01    0.3283746591E-01    0.5891970105E+00
    0.3300000000E+04    0.6221822688E+00    0.2278329798E-01    0.4438010949E-01    0.3292066915E-01    0.5909794175E+00
    0.3500000000E+04    0.6235231669E+00    0.2222699257E-01    0.4447984851E-01    0.3299470440E-01    0.5925964946E+00
    0.3700000000E+04    0.6247209112E+00    0.2171155300E-01    0.4456995390E-01    0.3306102162E-01    0.5940717862E+00
    0.3900000000E+04    0.6257971783E+00    0.2123211810E-01    0.4465177394E-01    0.3312078020E-01    0.5954244443E+00
    0.4100000000E+04    0.6267694903E+00    0.2078460776E-01    0.4472641304E-01    0.3317491821E-01    0.5966702220E+00
    0.4300000000E+04    0.6276521623E+00    0.2036556766E-01    0.4479478499E-01    0.3322420276E-01    0.5978222073E+00
    0.4500000000E+04    0.6284570028E+00    0.1997205027E-01    0.4485765279E-01    0.3326926721E-01    0.5988913724E+00
    0.4700000000E+04    0.6291938383E+00    0.1960152246E-01    0.4491565877E-01    0.3331063912E-01    0.5998869915E+00
    0.4900000000E+04    0.6298709113E+00    0.1925179304E-01    0.4496934780E-01    0.3334876145E-01    0.6008169623E+00
    0.1000000000E+04    0.5709148285E+00    0.3637090339E-01    0.4109333706E-01    0.3015529013E-01    0.5421787283E+00
    0.3000000000E+04    0.6198412236E+00    0.2370750722E-01    0.4420868631E-01    0.3279187065E-01    0.5882349224E+00
    0.5000000000E+04    0.6301892565E+00    0.1908412208E-01    0.4499472159E-01    0.3336672340E-01    0.6012594839E+00
    0.7000000000E+04    0.6346524283E+00    0.1646754297E-01    0.4535948686E-01    0.3362183995E-01    0.6078932875E+00
    0.9000000000E+04    0.6371346550E+00    0.1472098271E-01    0.4556928540E-01    0.3376769628E-01    0.6120491513E+00
    0.1100000000E+05    0.6387137414E+00    0.1344622360E-01    0.4570435553E-01    0.3386301000E-01    0.6149526548E+00
    0.1300000000E+05    0.6398060275E+00    0.1246173494E-01    0.4579757326E-01    0.3393069051E-01    0.6171234327E+00
    0.1500000000E+05    0.6406061698E+00    0.1167109926E-01    0.4586498732E-01    0.3398155393E-01    0.6188232884E+00
    0.1700000000E+05    0.6412173083E+00    0.1101764215E-01    0.4591538658E-01    0.3402138647E-01    0.6201999337E+00
    0.1900000000E+05    0.6416991749E+00    0.1046554002E-01    0.4595399455E-01    0.3405357105E-01    0.6213436973E+00
    0.2100000000E+05    0.6420887484E+00    0.9990873223E-02    0.4598411223E-01    0.3408022165E-01    0.6223132558E+00
    0.2300000000E+05    0.6424101422E+00    0.9576970161E-02    0.4600792796E-01    0.3410272960E-01    0.6231485618E+00
    0.2500000000E+05    0.6426797498E+00    0.9211802521E-02    0.4602694920E-01    0.3412204954E-01    0.6238778652E+00
    0.2700000000E+05    0.6429091040E+00    0.8886441671E-02    0.4604224760E-01    0.3413885919E-01    0.6245217694E+00
    0.2900000000E+05    0.6431065534E+00    0.8594100011E-02    0.4605460527E-01    0.3415365358E-01    0.6250956948E+00
    0.3100000000E+05    0.6432782897E+00    0.8329511890E-02    0.4606460590E-01    0.3416680315E-01    0.6256114389E+00
    0.3300000000E+05    0.6434290017E+00    0.8088520414E-02    0.4607269350E-01    0.3417859095E-01    0.6260781990E+00
    0.3500000000E+05    0.6435623052E+00    0.7867793736E-02    0.4607921150E-01    0.3418923713E-01    0.6265032639E+00
    0.3700000000E+05    0.6436810329E+00    0.7664625416E-02    0.4608442941E-01    0.3419891573E-01    0.6268924934E+00
    0.3900000000E+05    0.6437874355E+00    0.7476790896E-02    0.4608856146E-01    0.3420776618E-01    0.6272506587E+00
    0.4100000000E+05    0.6438833237E+00    0.7302442321E-02    0.4609177991E-01    0.3421590166E-01    0.6275816884E+00
    0.4300000000E+05    0.6439701708E+00    0.7140030164E-02    0.4609422467E-01    0.3422341503E-01    0.6278888508E+00
    0.4500000000E+05    0.6440491875E+00    0.6988243917E-02    0.4609601044E-01    0.3423038325E-01    0.6281748894E+00
    0.4700000000E+05    0.6441213781E+00    0.6845966607E-02    0.4609723205E-01    0.3423687070E-01    0.6284421264E+00
    0.4900000000E+05    0.6441875825E+00    0.6712239475E-02    0.4609796845E-01    0.3424293166E-01    0.6286925422E+00
    0.1000000000E+05    0.6380032848E+00    0.1403882504E-01    0.4564352565E-01    0.3381981553E-01    0.6136161472E+00
    0.3000000000E+05    0.6431953133E+00    0.8458618728E-02    0.4605986972E-01    0.3416041456E-01    0.6253602131E+00
    0.5000000000E+05    0.6442186655E+00    0.6648318922E-02    0.4609817582E-01    0.3424581690E-01    0.6288119831E+00
    0.7000000000E+05    0.6446509457E+00    0.5666397452E-02    0.4608839298E-01    0.3428939378E-01    0.6306274971E+00
    0.9000000000E+05    0.6448876275E+00    0.5026407702E-02    0.4606670219E-01    0.3431742558E-01    0.6317939469E+00
    0.1100000000E+06    0.6450360326E+00    0.4566549098E-02    0.4604188244E-01    0.3433768340E-01    0.6326259156E+00
    0.1300000000E+06    0.6451372412E+00    0.4215356892E-02    0.4601674581E-01    0.3435337862E-01    0.6332589000E+00
    0.1500000000E+06    0.6452103334E+00    0.3935698000E-02    0.4599229897E-01    0.3436611172E-01    0.6337621284E+00
    0.1700000000E+06    0.6452653631E+00    0.3706100291E-02    0.4596889706E-01    0.3437678342E-01    0.6341751513E+00
    0.1900000000E+06    0.6453081235E+00    0.3513164056E-02    0.4594663561E-01    0.3438594588E-01    0.6345224281E+00
    0.2100000000E+06    0.6453421841E+00    0.3348034266E-02    0.4592550210E-01    0.3439395984E-01    0.6348200105E+00
    0.2300000000E+06    0.6453698615E+00    0.3204591727E-02    0.4590543971E-01    0.3440107290E-01    0.6350789305E+00
    0.2500000000E+06    0.6453927239E+00    0.3078453314E-02    0.4588637561E-01    0.3440746177E-01    0.6353070561E+00
    0.2700000000E+06    0.6454118692E+00    0.2966385524E-02    0.4586823384E-01    0.3441325667E-01    0.6355101717E+00
    0.2900000000E+06    0.6454280888E+00    0.2865943421E-02    0.4585094106E-01    0.3441855616E-01    0.6356926386E+00
    0.3100000000E+06    0.6454419670E+00    0.2775239231E-02    0.4583442898E-01    0.3442343649E-01    0.6358578169E+00
    0.3300000000E+06    0.6454539443E+00    0.2692788907E-02    0.4581863517E-01    0.3442795783E-01    0.6360083432E+00
    0.3500000000E+06    0.6454643587E+00    0.2617407398E-02    0.4580350309E-01    0.3443216843E-01    0.6361463198E+00
    0.3700000000E+06    0.6454734740E+00    0.2548135333E-02    0.4578898177E-01    0.3443610753E-01    0.6362734467E+00
    0.3900000000E+06    0.6454814987E+00    0.2484186560E-02    0.4577502532E-01    0.3443980749E-01    0.6363911159E+00
    0.4100000000E+06    0.6454885999E+00    0.2424909865E-02    0.4576159245E-01    0.3444329526E-01    0.6365004794E+00
    0.4300000000E+06    0.6454949129E+00    0.2369760557E-02    0.4574864595E-01    0.3444659352E-01    0.6366025005E+00
    0.4500000000E+06    0.6455005483E+00    0.2318279043E-02    0.4573615226E-01    0.3444972155E-01    0.6366979917E+00
    0.4700000000E+06    0.6455055974E+00    0.2270074446E-02    0.4572408103E-01    0.3445269585E-01    0.6367876439E+00
    0.4900000000E+06    0.6455101365E+00    0.2224811925E-02    0.4571240476E-01    0.3445553066E-01    0.6368720487E+00
    0.1000000000E+06    0.6449695228E+00    0.4779589662E-02    0.4605444175E-01    0.3432826995E-01    0.6322410148E+00
    0.3000000000E+06    0.6454352903E+00    0.2819474889E-02    0.4584259147E-01    0.3442104464E-01    0.6357772097E+00
    0.5000000000E+06    0.6455122350E+00    0.2203192137E-02    0.4570670684E-01    0.3445689968E-01    0.6369124456E+00
    0.7000000000E+06    0.6455385794E+00    0.1872291228E-02    0.4560848938E-01    0.3447925553E-01    0.6375385441E+00
    0.9000000000E+06    0.6455495581E+00    0.1657795450E-02    0.4553149388E-01    0.3449550526E-01    0.6379545503E+00
    0.1100000000E+07    0.6455542201E+00    0.1504214515E-02    0.4546810045E-01    0.3450827025E-01    0.6382591755E+00
    0.1300000000E+07    0.6455558377E+00    0.1387219236E-02    0.4541417805E-01    0.3451878162E-01    0.6384960368E+00
    0.1500000000E+07    0.6455558424E+00    0.1294230849E-02    0.4536723619E-01    0.3452771593E-01    0.6386878772E+00
    0.1700000000E+07    0.6455549415E+00    0.1218002169E-02    0.4532565659E-01    0.3453548481E-01    0.6388479128E+00
    0.1900000000E+07    0.6455535155E+00    0.1154023312E-02    0.4528832769E-01    0.3454235732E-01    0.6389844380E+00
    0.2100000000E+07    0.6455517820E+00    0.1099320706E-02    0.4525445264E-01    0.3454851899E-01    0.6391029672E+00
    0.2300000000E+07    0.6455498711E+00    0.1051843320E-02    0.4522344047E-01    0.3455410315E-01    0.6392073345E+00
    0.2500000000E+07    0.6455478633E+00    0.1010124321E-02    0.4519484058E-01    0.3455920883E-01    0.6393003034E+00
    0.2700000000E+07    0.6455458098E+00    0.9730830583E-03    0.4516830149E-01    0.3456391159E-01    0.6393839252E+00
    0.2900000000E+07    0.6455437435E+00    0.9399033793E-03    0.4514354363E-01    0.3456827041E-01    0.6394597605E+00
    0.3100000000E+07    0.6455416858E+00    0.9099557659E-03    0.4512034096E-01    0.3457233220E-01    0.6395290217E+00
    0.3300000000E+07    0.6455396506E+00    0.8827457826E-03    0.4509850809E-01    0.3457613488E-01    0.6395926674E+00
    0.3500000000E+07    0.6455376470E+00    0.8578789311E-03    0.4507789103E-01    0.3457970955E-01    0.6396514677E+00
    0.3700000000E+07    0.6455356805E+00    0.8350360762E-03    0.4505836049E-01    0.3458308201E-01    0.6397060495E+00
    0.3900000000E+07    0.6455337546E+00    0.8139558784E-03    0.4503980685E-01    0.3458627395E-01    0.6397569296E+00
    0.4100000000E+07    0.6455318712E+00    0.7944219877E-03    0.4502213634E-01    0.3458930370E-01    0.6398045382E+00
    0.4300000000E+07    0.6455300310E+00    0.7762535445E-03    0.4500526812E-01    0.3459218698E-01    0.6398492372E+00
    0.4500000000E+07    0.6455282341E+00    0.7592980234E-03    0.4498913202E-01    0.3459493730E-01    0.6398913337E+00
    0.4700000000E+07    0.6455264800E+00    0.7434257659E-03    0.4497366671E-01    0.3459756639E-01    0.6399310901E+00
    0.4900000000E+07    0.6455247679E+00    0.7285257501E-03    0.4495881829E-01    0.3460008449E-01    0.6399687324E+00
    0.1000000000E+07    0.6455524084E+00    0.1575309471E-02    0.4549840714E-01    0.3450222796E-01    0.6381173533E+00
    0.3000000000E+07    0.6455427126E+00    0.9245591580E-03    0.4513176031E-01    0.3457033589E-01    0.6394951479E+00
    0.5000000000E+07    0.6455239273E+00    0.7214099046E-03    0.4495161031E-01    0.3460130478E-01    0.6399868229E+00
    0.7000000000E+07    0.6455090324E+00    0.6125936086E-03    0.4483071890E-01    0.3462158906E-01    0.6402738897E+00
    0.9000000000E+07    0.6454969973E+00    0.5421503774E-03    0.4473950980E-01    0.3463670136E-01    0.6404724529E+00
    0.1100000000E+08    0.6454869546E+00    0.4917563880E-03    0.4466620862E-01    0.3464875152E-01    0.6406224633E+00
    0.1300000000E+08    0.6454783537E+00    0.4533913341E-03    0.4460490892E-01    0.3465877450E-01    0.6407421204E+00
    0.1500000000E+08    0.6454708383E+00    0.4229133449E-03    0.4455222039E-01    0.3466735556E-01    0.6408411490E+00
    0.1700000000E+08    0.6454641674E+00    0.3979381681E-03    0.4450601478E-01    0.3467485817E-01    0.6409253180E+00
    0.1900000000E+08    0.6454581717E+00    0.3769830995E-03    0.4446486764E-01    0.3468152359E-01    0.6409983134E+00
    0.2100000000E+08    0.6454527274E+00    0.3590710622E-03    0.4442777840E-01    0.3468752018E-01    0.6410626243E+00
    0.2300000000E+08    0.6454477421E+00    0.3435284214E-03    0.4439401709E-01    0.3469297014E-01    0.6411200066E+00
    0.2500000000E+08    0.6454431445E+00    0.3298736026E-03    0.4436303476E-01    0.3469796494E-01    0.6411717419E+00
    0.2700000000E+08    0.6454388787E+00    0.3177519372E-03    0.4433440813E-01    0.3470257484E-01    0.6412187929E+00
