  Pressure (Pa) 22mC5-400 (mol/kg) 2mC6-400 (mol/kg) 3mC6-400 (mol/kg) 23mC5-400 (mol/kg) C7-400 (mol/kg)
    0.1000000000E+01    0.5269495166E-02    0.3164322355E-02    0.1580508514E-02    0.9252697765E-04    0.3419596928E-02
    0.3000000000E+01    0.1547168293E-01    0.9201832041E-02    0.4638214813E-02    0.2716716354E-03    0.1003622622E-01
    0.5000000000E+01    0.2525169958E-01    0.1487646707E-01    0.7565867646E-02    0.4434090951E-03    0.1637265680E-01
    0.7000000000E+01    0.3463911602E-01    0.2021600007E-01    0.1037198615E-01    0.6082580984E-03    0.2244721861E-01
    0.9000000000E+01    0.4366073360E-01    0.2524555132E-01    0.1306435324E-01    0.7666888078E-03    0.2827665860E-01
    0.1100000000E+02    0.5234090029E-01    0.2998789228E-01    0.1565009370E-01    0.9191283520E-03    0.3387630858E-01
    0.1300000000E+02    0.6070178479E-01    0.3446370887E-01    0.1813574259E-01    0.1065965634E-02    0.3926023219E-01
    0.1500000000E+02    0.6876361486E-01    0.3869183040E-01    0.2052730522E-01    0.1207555509E-02    0.4444135388E-01
    0.1700000000E+02    0.7654488519E-01    0.4268942948E-01    0.2283030999E-01    0.1344222435E-02    0.4943157242E-01
    0.1900000000E+02    0.8406253929E-01    0.4647219672E-01    0.2504985499E-01    0.1476263657E-02    0.5424186114E-01
    0.2100000000E+02    0.9133212899E-01    0.5005449424E-01    0.2719064924E-01    0.1603952011E-02    0.5888235653E-01
    0.2300000000E+02    0.9836795479E-01    0.5344949051E-01    0.2925704927E-01    0.1727538379E-02    0.6336243694E-01
    0.2500000000E+02    0.1051831896E+00    0.5666927940E-01    0.3125309164E-01    0.1847253867E-02    0.6769079245E-01
    0.2700000000E+02    0.1117899882E+00    0.5972498536E-01    0.3318252195E-01    0.1963311717E-02    0.7187548721E-01
    0.2900000000E+02    0.1181995842E+00    0.6262685667E-01    0.3504882068E-01    0.2075909013E-02    0.7592401507E-01
    0.3100000000E+02    0.1244223760E+00    0.6538434821E-01    0.3685522635E-01    0.2185228190E-02    0.7984334939E-01
    0.3300000000E+02    0.1304680037E+00    0.6800619514E-01    0.3860475635E-01    0.2291438377E-02    0.8363998768E-01
    0.3500000000E+02    0.1363454174E+00    0.7050047863E-01    0.4030022553E-01    0.2394696602E-02    0.8731999175E-01
    0.3700000000E+02    0.1420629385E+00    0.7287468461E-01    0.4194426304E-01    0.2495148858E-02    0.9088902385E-01
    0.3900000000E+02    0.1476283140E+00    0.7513575632E-01    0.4353932747E-01    0.2592931070E-02    0.9435237920E-01
    0.4100000000E+02    0.1530487664E+00    0.7729014154E-01    0.4508772054E-01    0.2688169953E-02    0.9771501550E-01
    0.4300000000E+02    0.1583310372E+00    0.7934383493E-01    0.4659159950E-01    0.2780983789E-02    0.1009815795E+00
    0.4500000000E+02    0.1634814271E+00    0.8130241627E-01    0.4805298834E-01    0.2871483126E-02    0.1041564312E+00
    0.4700000000E+02    0.1685058319E+00    0.8317108483E-01    0.4947378798E-01    0.2959771408E-02    0.1072436658E+00
    0.4900000000E+02    0.1734097750E+00    0.8495469050E-01    0.5085578558E-01    0.3045945546E-02    0.1102471335E+00
    0.1000000000E+02    0.4804206464E-01    0.2765128418E-01    0.1437013027E-01    0.8436323250E-03    0.3110430023E-01
    0.3000000000E+02    0.1213337111E+00    0.6402308791E-01    0.3595931661E-01    0.2130967498E-02    0.7789941467E-01
    0.5000000000E+02    0.1758182049E+00    0.8581602179E-01    0.5153276307E-01    0.3088268435E-02    0.1117185956E+00
    0.7000000000E+02    0.2187644771E+00    0.9953046808E-01    0.6339527240E-01    0.3843067722E-02    0.1375259616E+00
    0.9000000000E+02    0.2539756706E+00    0.1084176543E+00    0.7279604979E-01    0.4462095879E-02    0.1580137355E+00
    0.1100000000E+03    0.2836546545E+00    0.1142591118E+00    0.8047306183E-01    0.4984007154E-02    0.1747733062E+00
    0.1300000000E+03    0.3091801538E+00    0.1180993356E+00    0.8689151159E-01    0.5432995715E-02    0.1888084567E+00
    0.1500000000E+03    0.3314693686E+00    0.1205833284E+00    0.9235993852E-01    0.5825157662E-02    0.2007853211E+00
    0.1700000000E+03    0.3511631780E+00    0.1221260296E+00    0.9709151204E-01    0.6171740526E-02    0.2111643957E+00
    0.1900000000E+03    0.3687276965E+00    0.1230033059E+00    0.1012385427E+00    0.6480925171E-02    0.2202748949E+00
    0.2100000000E+03    0.3845133084E+00    0.1234035628E+00    0.1049129605E+00    0.6758861643E-02    0.2283588880E+00
    0.2300000000E+03    0.3987907107E+00    0.1234583680E+00    0.1081990082E+00    0.7010301614E-02    0.2355986677E+00
    0.2500000000E+03    0.4117738645E+00    0.1232613204E+00    0.1111614058E+00    0.7239001103E-02    0.2421343580E+00
    0.2700000000E+03    0.4236351525E+00    0.1228800539E+00    0.1138507694E+00    0.7447986462E-02    0.2480756074E+00
    0.2900000000E+03    0.4345157174E+00    0.1223640859E+00    0.1163073093E+00    0.7639735783E-02    0.2535095693E+00
    0.3100000000E+03    0.4445327148E+00    0.1217500723E+00    0.1185634138E+00    0.7816306172E-02    0.2585064811E+00
    0.3300000000E+03    0.4537845324E+00    0.1210653988E+00    0.1206454942E+00    0.7979425336E-02    0.2631236487E+00
    0.3500000000E+03    0.4623546306E+00    0.1203306816E+00    0.1225753261E+00    0.8130558975E-02    0.2674083451E+00
    0.3700000000E+03    0.4703144261E+00    0.1195615347E+00    0.1243710428E+00    0.8270961384E-02    0.2713999560E+00
    0.3900000000E+03    0.4777254954E+00    0.1187698386E+00    0.1260478806E+00    0.8401714130E-02    0.2751315918E+00
    0.4100000000E+03    0.4846412868E+00    0.1179646623E+00    0.1276187467E+00    0.8523756089E-02    0.2786313162E+00
    0.4300000000E+03    0.4911084689E+00    0.1171529398E+00    0.1290946573E+00    0.8637907113E-02    0.2819230931E+00
    0.4500000000E+03    0.4971680065E+00    0.1163399738E+00    0.1304850791E+00    0.8744886915E-02    0.2850275261E+00
    0.4700000000E+03    0.5028560291E+00    0.1155298121E+00    0.1317981987E+00    0.8845330309E-02    0.2879624416E+00
    0.4900000000E+03    0.5082045393E+00    0.1147255322E+00    0.1330411368E+00    0.8939799644E-02    0.2907433526E+00
    0.1000000000E+03    0.2694066648E+00    0.1116416527E+00    0.7681628852E-01    0.4733435915E-02    0.1667867623E+00
    0.3000000000E+03    0.4396256234E+00    0.1220674395E+00    0.1174586429E+00    0.7729803529E-02    0.2560588100E+00
    0.5000000000E+03    0.5107604951E+00    0.1143263490E+00    0.1336382647E+00    0.8984952514E-02    0.2920803652E+00
    0.7000000000E+03    0.5495379690E+00    0.1069702812E+00    0.1430646407E+00    0.9670738926E-02    0.3132842663E+00
    0.9000000000E+03    0.5736098538E+00    0.1008949576E+00    0.1494808660E+00    0.1009745434E-01    0.3278407988E+00
    0.1100000000E+04    0.5898606657E+00    0.9586671168E-01    0.1542360899E+00    0.1038622156E-01    0.3387089145E+00
    0.1300000000E+04    0.6015028270E+00    0.9162830991E-01    0.1579549211E+00    0.1059360465E-01    0.3472642681E+00
    0.1500000000E+04    0.6102209106E+00    0.8799007639E-01    0.1609730819E+00    0.1074928935E-01    0.3542490720E+00
    0.1700000000E+04    0.6169766344E+00    0.8481791426E-01    0.1634899778E+00    0.1087023679E-01    0.3601057051E+00
    0.1900000000E+04    0.6223560551E+00    0.8201591979E-01    0.1656328596E+00    0.1096679117E-01    0.3651173826E+00
    0.2100000000E+04    0.6267352977E+00    0.7951392808E-01    0.1674874489E+00    0.1104559665E-01    0.3694754650E+00
    0.2300000000E+04    0.6303661513E+00    0.7725937258E-01    0.1691139875E+00    0.1111110471E-01    0.3733148135E+00
    0.2500000000E+04    0.6334231702E+00    0.7521199614E-01    0.1705562755E+00    0.1116640387E-01    0.3767337438E+00
    0.2700000000E+04    0.6360309858E+00    0.7334035827E-01    0.1718470608E+00    0.1121370117E-01    0.3798059502E+00
    0.2900000000E+04    0.6382808519E+00    0.7161947628E-01    0.1730114069E+00    0.1125461395E-01    0.3825879705E+00
    0.3100000000E+04    0.6402410519E+00    0.7002919481E-01    0.1740688803E+00    0.1129035343E-01    0.3851240448E+00
    0.3300000000E+04    0.6419636581E+00    0.6855303363E-01    0.1750350191E+00    0.1132184407E-01    0.3874493827E+00
    0.3500000000E+04    0.6434890474E+00    0.6717735659E-01    0.1759223465E+00    0.1134980332E-01    0.3895924225E+00
    0.3700000000E+04    0.6448489940E+00    0.6589076094E-01    0.1767410880E+00    0.1137479622E-01    0.3915764324E+00
    0.3900000000E+04    0.6460688337E+00    0.6468362102E-01    0.1774996895E+00    0.1139727374E-01    0.3934206694E+00
    0.4100000000E+04    0.6471690084E+00    0.6354774194E-01    0.1782051990E+00    0.1141760004E-01    0.3951412340E+00
    0.4300000000E+04    0.6481661885E+00    0.6247609309E-01    0.1788635522E+00    0.1143607234E-01    0.3967517111E+00
    0.4500000000E+04    0.6490741005E+00    0.6146260060E-01    0.1794797896E+00    0.1145293561E-01    0.3982636575E+00
    0.4700000000E+04    0.6499041470E+00    0.6050198365E-01    0.1800582240E+00    0.1146839350E-01    0.3996869788E+00
    0.4900000000E+04    0.6506658766E+00    0.5958962416E-01    0.1806025706E+00    0.1148261671E-01    0.4010302231E+00
    0.1000000000E+04    0.5824614456E+00    0.9826756634E-01    0.1520174275E+00    0.1025465499E-01    0.3336288226E+00
    0.3000000000E+04    0.6392935872E+00    0.7080911561E-01    0.1735524507E+00    0.1127306693E-01    0.3838843690E+00
    0.5000000000E+04    0.6510236900E+00    0.5915025282E-01    0.1808629844E+00    0.1148931125E-01    0.4016741745E+00
    0.7000000000E+04    0.6560162898E+00    0.5212692934E-01    0.1848776506E+00    0.1158388279E-01    0.4117268375E+00
    0.9000000000E+04    0.6587723154E+00    0.4726101937E-01    0.1875016697E+00    0.1163748597E-01    0.4184522276E+00
    0.1100000000E+05    0.6605174789E+00    0.4361747703E-01    0.1893846866E+00    0.1167231474E-01    0.4233770194E+00
    0.1300000000E+05    0.6617209771E+00    0.4074950999E-01    0.1908178767E+00    0.1169694560E-01    0.4271939751E+00
    0.1500000000E+05    0.6626007742E+00    0.3841168943E-01    0.1919539638E+00    0.1171539991E-01    0.4302703637E+00
    0.1700000000E+05    0.6632718093E+00    0.3645599206E-01    0.1928818141E+00    0.1172981780E-01    0.4328219507E+00
    0.1900000000E+05    0.6638004025E+00    0.3478691061E-01    0.1936571185E+00    0.1174144536E-01    0.4349851447E+00
    0.2100000000E+05    0.6642274914E+00    0.3333958539E-01    0.1943167829E+00    0.1175105871E-01    0.4368510810E+00
    0.2300000000E+05    0.6645797079E+00    0.3206816021E-01    0.1948863560E+00    0.1175916727E-01    0.4384833336E+00
    0.2500000000E+05    0.6648751227E+00    0.3093914235E-01    0.1953841575E+00    0.1176611977E-01    0.4399278163E+00
    0.2700000000E+05    0.6651264280E+00    0.2992740310E-01    0.1958237079E+00    0.1177216328E-01    0.4412186490E+00
    0.2900000000E+05    0.6653427991E+00    0.2901365858E-01    0.1962152311E+00    0.1177747798E-01    0.4423818000E+00
    0.3100000000E+05    0.6655310332E+00    0.2818282276E-01    0.1965666182E+00    0.1178219848E-01    0.4434374394E+00
    0.3300000000E+05    0.6656962727E+00    0.2742289605E-01    0.1968840692E+00    0.1178642752E-01    0.4444015096E+00
    0.3500000000E+05    0.6658424796E+00    0.2672419459E-01    0.1971725308E+00    0.1179024491E-01    0.4452868048E+00
    0.3700000000E+05    0.6659727558E+00    0.2607880321E-01    0.1974360036E+00    0.1179371367E-01    0.4461037303E+00
    0.3900000000E+05    0.6660895644E+00    0.2548017885E-01    0.1976777622E+00    0.1179688425E-01    0.4468608493E+00
    0.4100000000E+05    0.6661948858E+00    0.2492285789E-01    0.1979005155E+00    0.1179979756E-01    0.4475652837E+00
    0.4300000000E+05    0.6662903307E+00    0.2440223650E-01    0.1981065262E+00    0.1180248714E-01    0.4482230129E+00
    0.4500000000E+05    0.6663772223E+00    0.2391440344E-01    0.1982977008E+00    0.1180498078E-01    0.4488390998E+00
    0.4700000000E+05    0.6664566578E+00    0.2345601106E-01    0.1984756582E+00    0.1180730170E-01    0.4494178650E+00
    0.4900000000E+05    0.6665295543E+00    0.2302417462E-01    0.1986417831E+00    0.1180946946E-01    0.4499630212E+00
    0.1000000000E+05    0.6597330853E+00    0.4532102568E-01    0.1885129437E+00    0.1165655115E-01    0.4210854800E+00
    0.3000000000E+05    0.6654400796E+00    0.2858868905E-01    0.1963955204E+00    0.1177990546E-01    0.4429219777E+00
    0.5000000000E+05    0.6665637970E+00    0.2281742004E-01    0.1987207873E+00    0.1181050121E-01    0.4502240166E+00
    0.7000000000E+05    0.6670416945E+00    0.1961347516E-01    0.1998975940E+00    0.1182607013E-01    0.4542715422E+00
    0.9000000000E+05    0.6673055780E+00    0.1749670963E-01    0.2006198662E+00    0.1183607325E-01    0.4569563347E+00
    0.1100000000E+06    0.6674725818E+00    0.1596158922E-01    0.2011110203E+00    0.1184329774E-01    0.4589146640E+00
    0.1300000000E+06    0.6675875967E+00    0.1478115071E-01    0.2014671046E+00    0.1184889308E-01    0.4604302026E+00
    0.1500000000E+06    0.6676715128E+00    0.1383609307E-01    0.2017368430E+00    0.1185343146E-01    0.4616515626E+00
    0.1700000000E+06    0.6677353630E+00    0.1305682085E-01    0.2019477971E+00    0.1185723461E-01    0.4626653162E+00
    0.1900000000E+06    0.6677855208E+00    0.1239959694E-01    0.2021168171E+00    0.1186049963E-01    0.4635258555E+00
    0.2100000000E+06    0.6678259239E+00    0.1183535055E-01    0.2022548237E+00    0.1186335525E-01    0.4642693503E+00
    0.2300000000E+06    0.6678591353E+00    0.1134389425E-01    0.2023692246E+00    0.1186588979E-01    0.4649209420E+00
    0.2500000000E+06    0.6678868947E+00    0.1091070714E-01    0.2024652323E+00    0.1186816626E-01    0.4654987383E+00
    0.2700000000E+06    0.6679104242E+00    0.1052503760E-01    0.2025466260E+00    0.1187023109E-01    0.4660161672E+00
    0.2900000000E+06    0.6679306073E+00    0.1017872970E-01    0.2026162159E+00    0.1187211940E-01    0.4664834322E+00
    0.3100000000E+06    0.6679480982E+00    0.9865467940E-02    0.2026761369E+00    0.1187385838E-01    0.4669084489E+00
    0.3300000000E+06    0.6679633918E+00    0.9580274537E-02    0.2027280403E+00    0.1187546947E-01    0.4672974678E+00
    0.3500000000E+06    0.6679768692E+00    0.9319165234E-02    0.2027732248E+00    0.1187696985E-01    0.4676555022E+00
    0.3700000000E+06    0.6679888286E+00    0.9078907595E-02    0.2028127254E+00    0.1187837352E-01    0.4679866271E+00
    0.3900000000E+06    0.6679995067E+00    0.8856847582E-02    0.2028473777E+00    0.1187969200E-01    0.4682941956E+00
    0.4100000000E+06    0.6680090937E+00    0.8650782711E-02    0.2028778637E+00    0.1188093489E-01    0.4685809959E+00
    0.4300000000E+06    0.6680177440E+00    0.8458867659E-02    0.2029047455E+00    0.1188211027E-01    0.4688493687E+00
    0.4500000000E+06    0.6680255846E+00    0.8279542961E-02    0.2029284905E+00    0.1188322502E-01    0.4691012965E+00
    0.4700000000E+06    0.6680327205E+00    0.8111480376E-02    0.2029494907E+00    0.1188428500E-01    0.4693384711E+00
    0.4900000000E+06    0.6680392395E+00    0.7953540516E-02    0.2029680771E+00    0.1188529529E-01    0.4695623471E+00
    0.1000000000E+06    0.6673975396E+00    0.1667425257E-01    0.2008867177E+00    0.1183994105E-01    0.4580040217E+00
    0.3000000000E+06    0.6679396552E+00    0.1001830588E-01    0.2026472722E+00    0.1187300610E-01    0.4667007977E+00
    0.5000000000E+06    0.6680422913E+00    0.7878053862E-02    0.2029765548E+00    0.1188578320E-01    0.4696696979E+00
    0.7000000000E+06    0.6680839530E+00    0.6718922756E-02    0.2030697017E+00    0.1189375147E-01    0.4713507385E+00
    0.9000000000E+06    0.6681058181E+00    0.5963691998E-02    0.2030855687E+00    0.1189954440E-01    0.4724865082E+00
    0.1100000000E+07    0.6681189184E+00    0.5421018357E-02    0.2030692058E+00    0.1190409569E-01    0.4733283614E+00
    0.1300000000E+07    0.6681274237E+00    0.5006516169E-02    0.2030377951E+00    0.1190784392E-01    0.4739891991E+00
    0.1500000000E+07    0.6681332467E+00    0.4676372879E-02    0.2029990570E+00    0.1191103010E-01    0.4745286109E+00
    0.1700000000E+07    0.6681373823E+00    0.4405264726E-02    0.2029568350E+00    0.1191380090E-01    0.4749815606E+00
    0.1900000000E+07    0.6681403963E+00    0.4177391995E-02    0.2029131750E+00    0.1191625219E-01    0.4753701663E+00
    0.2100000000E+07    0.6681426329E+00    0.3982314804E-02    0.2028692136E+00    0.1191845008E-01    0.4757092325E+00
    0.2300000000E+07    0.6681443123E+00    0.3812819029E-02    0.2028255970E+00    0.1192044209E-01    0.4760091139E+00
    0.2500000000E+07    0.6681455814E+00    0.3663737200E-02    0.2027826942E+00    0.1192226351E-01    0.4762773124E+00
    0.2700000000E+07    0.6681465419E+00    0.3531257030E-02    0.2027407119E+00    0.1192394127E-01    0.4765194224E+00
    0.2900000000E+07    0.6681472658E+00    0.3412495764E-02    0.2026997590E+00    0.1192549640E-01    0.4767397182E+00
    0.3100000000E+07    0.6681478055E+00    0.3305227406E-02    0.2026598845E+00    0.1192694560E-01    0.4769415325E+00
    0.3300000000E+07    0.6681482000E+00    0.3207701865E-02    0.2026211007E+00    0.1192830241E-01    0.4771275102E+00
    0.3500000000E+07    0.6681484786E+00    0.3118521511E-02    0.2025833968E+00    0.1192957791E-01    0.4772997827E+00
    0.3700000000E+07    0.6681486639E+00    0.3036554768E-02    0.2025467486E+00    0.1193078130E-01    0.4774600905E+00
    0.3900000000E+07    0.6681487735E+00    0.2960874272E-02    0.2025111233E+00    0.1193192031E-01    0.4776098719E+00
    0.4100000000E+07    0.6681488212E+00    0.2890711761E-02    0.2024764838E+00    0.1193300148E-01    0.4777503283E+00
    0.4300000000E+07    0.6681488180E+00    0.2825424569E-02    0.2024427908E+00    0.1193403040E-01    0.4778824722E+00
    0.4500000000E+07    0.6681487726E+00    0.2764470380E-02    0.2024100044E+00    0.1193501190E-01    0.4780071646E+00
    0.4700000000E+07    0.6681486923E+00    0.2707387916E-02    0.2023780850E+00    0.1193595016E-01    0.4781251433E+00
    0.4900000000E+07    0.6681485830E+00    0.2653781983E-02    0.2023469941E+00    0.1193684883E-01    0.4782370447E+00
    0.1000000000E+07    0.6681131235E+00    0.5672432470E-02    0.2030800099E+00    0.1190194127E-01    0.4729353232E+00
    0.3000000000E+07    0.6681475560E+00    0.3357543840E-02    0.2026796855E+00    0.1192623333E-01    0.4768427564E+00
    0.5000000000E+07    0.6681485189E+00    0.2628174354E-02    0.2023317476E+00    0.1193728434E-01    0.4782908920E+00
    0.7000000000E+07    0.6681465195E+00    0.2236011464E-02    0.2020621881E+00    0.1194452429E-01    0.4791514411E+00
    0.9000000000E+07    0.6681440820E+00    0.1981549104E-02    0.2018434336E+00    0.1194991904E-01    0.4797535888E+00
    0.1100000000E+08    0.6681416891E+00    0.1799208389E-02    0.2016593845E+00    0.1195422116E-01    0.4802123854E+00
    0.1300000000E+08    0.6681394502E+00    0.1660214757E-02    0.2015004405E+00    0.1195779986E-01    0.4805808045E+00
    0.1500000000E+08    0.6681373814E+00    0.1549681591E-02    0.2013604881E+00    0.1196086395E-01    0.4808873850E+00
    0.1700000000E+08    0.6681354729E+00    0.1459027389E-02    0.2012354072E+00    0.1196354312E-01    0.4811491689E+00
    0.1900000000E+08    0.6681337083E+00    0.1382909390E-02    0.2011222919E+00    0.1196592346E-01    0.4813771054E+00
    0.2100000000E+08    0.6681320709E+00    0.1317803395E-02    0.2010190164E+00    0.1196806506E-01    0.4815786247E+00
    0.2300000000E+08    0.6681305458E+00    0.1261277657E-02    0.2009239781E+00    0.1197001152E-01    0.4817589893E+00
    0.2500000000E+08    0.6681291196E+00    0.1211592475E-02    0.2008359390E+00    0.1197179549E-01    0.4819220552E+00
    0.2700000000E+08    0.6681277812E+00    0.1167465771E-02    0.2007539224E+00    0.1197344205E-01    0.4820707287E+00
