  Pressure (Pa) 22mC5-400 (mol/kg) 3mC6-400 (mol/kg) 33mC5-400 (mol/kg) 23mC5-400 (mol/kg) C7-400 (mol/kg)
    0.1000000000E+01    0.5314937595E-03    0.1586091082E-02    0.2597185034E-03    0.9332429077E-03    0.3431634529E-02
    0.3000000000E+01    0.1586835516E-02    0.4686460192E-02    0.7672156409E-03    0.2786315162E-02    0.1014026417E-01
    0.5000000000E+01    0.2632111569E-02    0.7694655023E-02    0.1259357876E-02    0.4621728306E-02    0.1665039727E-01
    0.7000000000E+01    0.3667473548E-02    0.1061474593E-01    0.1736788853E-02    0.6439748292E-02    0.2297078542E-01
    0.9000000000E+01    0.4693070016E-02    0.1345056680E-01    0.2200115609E-02    0.8240635689E-02    0.2910967218E-01
    0.1100000000E+02    0.5709046542E-02    0.1620573195E-01    0.2649911197E-02    0.1002464582E-01    0.3507482938E-01
    0.1300000000E+02    0.6715545784E-02    0.1888365166E-01    0.3086717073E-02    0.1179202890E-01    0.4087359047E-01
    0.1500000000E+02    0.7712707550E-02    0.2148754636E-01    0.3511045289E-02    0.1354303016E-01    0.4651288097E-01
    0.1700000000E+02    0.8700668881E-02    0.2402045966E-01    0.3923380509E-02    0.1527788994E-01    0.5199924649E-01
    0.1900000000E+02    0.9679564107E-02    0.2648527034E-01    0.4324181848E-02    0.1699684388E-01    0.5733887842E-01
    0.2100000000E+02    0.1064952492E-01    0.2888470334E-01    0.4713884579E-02    0.1870012295E-01    0.6253763762E-01
    0.2300000000E+02    0.1161068045E-01    0.3122133992E-01    0.5092901689E-02    0.2038795362E-01    0.6760107616E-01
    0.2500000000E+02    0.1256315729E-01    0.3349762702E-01    0.5461625324E-02    0.2206055798E-01    0.7253445746E-01
    0.2700000000E+02    0.1350707959E-01    0.3571588587E-01    0.5820428119E-02    0.2371815377E-01    0.7734277476E-01
    0.2900000000E+02    0.1444256913E-01    0.3787831995E-01    0.6169664422E-02    0.2536095457E-01    0.8203076829E-01
    0.3100000000E+02    0.1536974533E-01    0.3998702243E-01    0.6509671437E-02    0.2698916987E-01    0.8660294111E-01
    0.3300000000E+02    0.1628872534E-01    0.4204398290E-01    0.6840770265E-02    0.2860300512E-01    0.9106357373E-01
    0.3500000000E+02    0.1719962407E-01    0.4405109378E-01    0.7163266887E-02    0.3020266191E-01    0.9541673777E-01
    0.3700000000E+02    0.1810255428E-01    0.4601015612E-01    0.7477453061E-02    0.3178833800E-01    0.9966630849E-01
    0.3900000000E+02    0.1899762659E-01    0.4792288513E-01    0.7783607167E-02    0.3336022743E-01    0.1038159765E+00
    0.4100000000E+02    0.1988494955E-01    0.4979091514E-01    0.8081994977E-02    0.3491852060E-01    0.1078692588E+00
    0.4300000000E+02    0.2076462969E-01    0.5161580440E-01    0.8372870388E-02    0.3646340436E-01    0.1118295085E+00
    0.4500000000E+02    0.2163677157E-01    0.5339903939E-01    0.8656476092E-02    0.3799506211E-01    0.1156999248E+00
    0.4700000000E+02    0.2250147779E-01    0.5514203898E-01    0.8933044208E-02    0.3951367383E-01    0.1194835612E+00
    0.4900000000E+02    0.2335884910E-01    0.5684615816E-01    0.9202796864E-02    0.4101941622E-01    0.1231833341E+00
    0.1000000000E+02    0.5202251788E-02    0.1483801359E-01    0.2426670244E-02    0.9134734657E-02    0.3211349873E-01
    0.3000000000E+02    0.1490718903E-01    0.3893926094E-01    0.6340801156E-02    0.2617687247E-01    0.8433105970E-01
    0.5000000000E+02    0.2378481514E-01    0.5768404445E-01    0.9335184213E-02    0.4176751575E-01    0.1250026475E+00
    0.7000000000E+02    0.3194224182E-01    0.7268657908E-01    0.1167233260E-01    0.5609454131E-01    0.1576017917E+00
    0.9000000000E+02    0.3946857659E-01    0.8497085932E-01    0.1352230107E-01    0.6931425016E-01    0.1843330483E+00
    0.1100000000E+03    0.4643855274E-01    0.9521793760E-01    0.1500079805E-01    0.8155773316E-01    0.2066633738E+00
    0.1300000000E+03    0.5291531851E-01    0.1038984786E+00    0.1618969400E-01    0.9293576236E-01    0.2256070565E+00
    0.1500000000E+03    0.5895260334E-01    0.1113482311E+00    0.1714877837E-01    0.1035425900E+00    0.2418879936E+00
    0.1700000000E+03    0.6459641704E-01    0.1178131772E+00    0.1792286128E-01    0.1134589285E+00    0.2560367989E+00
    0.1900000000E+03    0.6988639498E-01    0.1234776819E+00    0.1854625550E-01    0.1227543095E+00    0.2684513647E+00
    0.2100000000E+03    0.7485687189E-01    0.1284826702E+00    0.1904571270E-01    0.1314889673E+00    0.2794359812E+00
    0.2300000000E+03    0.7953774611E-01    0.1329377252E+00    0.1944240939E-01    0.1397153546E+00    0.2892273792E+00
    0.2500000000E+03    0.8395518013E-01    0.1369293537E+00    0.1975332782E-01    0.1474793708E+00    0.2980125290E+00
    0.2700000000E+03    0.8813217253E-01    0.1405267653E+00    0.1999223966E-01    0.1548213656E+00    0.3059410894E+00
    0.2900000000E+03    0.9208902777E-01    0.1437859969E+00    0.2017042151E-01    0.1617769630E+00    0.3131342925E+00
    0.3100000000E+03    0.9584374475E-01    0.1467529087E+00    0.2029718513E-01    0.1683777424E+00    0.3196914031E+00
    0.3300000000E+03    0.9941233965E-01    0.1494653989E+00    0.2038027692E-01    0.1746518052E+00    0.3256944909E+00
    0.3500000000E+03    0.1028091160E+00    0.1519550621E+00    0.2042618322E-01    0.1806242484E+00    0.3312120089E+00
    0.3700000000E+03    0.1060468915E+00    0.1542484505E+00    0.2044036675E-01    0.1863175623E+00    0.3363015127E+00
    0.3900000000E+03    0.1091371896E+00    0.1563680430E+00    0.2042745180E-01    0.1917519670E+00    0.3410117521E+00
    0.4100000000E+03    0.1120904021E+00    0.1583329991E+00    0.2039137091E-01    0.1969456970E+00    0.3453842980E+00
    0.4300000000E+03    0.1149159271E+00    0.1601597509E+00    0.2033548201E-01    0.2019152440E+00    0.3494548212E+00
    0.4500000000E+03    0.1176222884E+00    0.1618624732E+00    0.2026266291E-01    0.2066755651E+00    0.3532541066E+00
    0.4700000000E+03    0.1202172364E+00    0.1634534585E+00    0.2017538800E-01    0.2112402612E+00    0.3568088644E+00
    0.4900000000E+03    0.1227078361E+00    0.1649434207E+00    0.2007579107E-01    0.2156217306E+00    0.3601423854E+00
    0.1000000000E+03    0.4301891919E-01    0.9031577903E-01    0.1430224096E-01    0.7555066951E-01    0.1959766422E+00
    0.3000000000E+03    0.9399060946E-01    0.1453034592E+00    0.2023971372E-01    0.1651198731E+00    0.3164868738E+00
    0.5000000000E+03    0.1239160447E+00    0.1656534959E+00    0.2002195843E-01    0.2177473342E+00    0.3617326584E+00
    0.7000000000E+03    0.1439087424E+00    0.1763108744E+00    0.1863309625E-01    0.2529334460E+00    0.3857537410E+00
    0.9000000000E+03    0.1583074042E+00    0.1828820770E+00    0.1709843942E-01    0.2782929614E+00    0.4007621151E+00
    0.1100000000E+04    0.1692017916E+00    0.1873424559E+00    0.1567702486E-01    0.2974944621E+00    0.4110821904E+00
    0.1300000000E+04    0.1777403917E+00    0.1905687370E+00    0.1442498321E-01    0.3125546188E+00    0.4186425729E+00
    0.1500000000E+04    0.1846135021E+00    0.1930103568E+00    0.1333908004E-01    0.3246858531E+00    0.4244365774E+00
    0.1700000000E+04    0.1902636424E+00    0.1949218008E+00    0.1239982163E-01    0.3346655903E+00    0.4290292418E+00
    0.1900000000E+04    0.1949886272E+00    0.1964580931E+00    0.1158529616E-01    0.3430171660E+00    0.4327663270E+00
    0.2100000000E+04    0.1989966705E+00    0.1977191209E+00    0.1087549713E-01    0.3501065557E+00    0.4358716119E+00
    0.2300000000E+04    0.2024378947E+00    0.1987721736E+00    0.1025338568E-01    0.3561976934E+00    0.4384965107E+00
    0.2500000000E+04    0.2054233331E+00    0.1996642523E+00    0.9704844501E-02    0.3614858368E+00    0.4407472455E+00
    0.2700000000E+04    0.2080368945E+00    0.2004291875E+00    0.9218297404E-02    0.3661185806E+00    0.4427006034E+00
    0.2900000000E+04    0.2103431720E+00    0.2010919544E+00    0.8784273460E-02    0.3702095704E+00    0.4444135146E+00
    0.3100000000E+04    0.2123926940E+00    0.2016713946E+00    0.8395010051E-02    0.3738477281E+00    0.4459291106E+00
    0.3300000000E+04    0.2142255486E+00    0.2021819911E+00    0.8044119577E-02    0.3771036194E+00    0.4472806852E+00
    0.3500000000E+04    0.2158739417E+00    0.2026350605E+00    0.7726319332E-02    0.3800339485E+00    0.4484943622E+00
    0.3700000000E+04    0.2173640378E+00    0.2030395735E+00    0.7437216016E-02    0.3826847941E+00    0.4495909367E+00
    0.3900000000E+04    0.2187173087E+00    0.2034027331E+00    0.7173134912E-02    0.3850939796E+00    0.4505871750E+00
    0.4100000000E+04    0.2199515369E+00    0.2037303894E+00    0.6930984611E-02    0.3872928368E+00    0.4514967510E+00
    0.4300000000E+04    0.2210815720E+00    0.2040273431E+00    0.6708149710E-02    0.3893075363E+00    0.4523309312E+00
    0.4500000000E+04    0.2221199093E+00    0.2042975703E+00    0.6502405376E-02    0.3911601049E+00    0.4530990860E+00
    0.4700000000E+04    0.2230771365E+00    0.2045443924E+00    0.6311849045E-02    0.3928692110E+00    0.4538090742E+00
    0.4900000000E+04    0.2239622828E+00    0.2047706055E+00    0.6134845525E-02    0.3944507790E+00    0.4544675386E+00
    0.1000000000E+04    0.1641064481E+00    0.1853069095E+00    0.1636779722E-01    0.2885121410E+00    0.4063561415E+00
    0.3000000000E+04    0.2113973114E+00    0.2013910992E+00    0.8584474684E-02    0.3720804727E+00    0.4451937017E+00
    0.5000000000E+04    0.2243802901E+00    0.2048767387E+00    0.6050977089E-02    0.3951980836E+00    0.4547792498E+00
    0.7000000000E+04    0.2303605600E+00    0.2063394406E+00    0.4826798940E-02    0.4059269386E+00    0.4593226589E+00
    0.9000000000E+04    0.2337764618E+00    0.2071139496E+00    0.4097601307E-02    0.4121016948E+00    0.4620401124E+00
    0.1100000000E+05    0.2359773616E+00    0.2075762955E+00    0.3607793066E-02    0.4161105191E+00    0.4638779641E+00
    0.1300000000E+05    0.2375094351E+00    0.2078726705E+00    0.3252531124E-02    0.4189225302E+00    0.4652195823E+00
    0.1500000000E+05    0.2386350177E+00    0.2080713574E+00    0.2980871207E-02    0.4210043905E+00    0.4662513425E+00
    0.1700000000E+05    0.2394955053E+00    0.2082083291E+00    0.2765006744E-02    0.4226082639E+00    0.4670753816E+00
    0.1900000000E+05    0.2401737322E+00    0.2083042289E+00    0.2588419662E-02    0.4238822506E+00    0.4677526534E+00
    0.2100000000E+05    0.2407213932E+00    0.2083716875E+00    0.2440645935E-02    0.4249190105E+00    0.4683219372E+00
    0.2300000000E+05    0.2411723927E+00    0.2084188278E+00    0.2314713607E-02    0.4257794703E+00    0.4688091658E+00
    0.2500000000E+05    0.2415498776E+00    0.2084510862E+00    0.2205784834E-02    0.4265053311E+00    0.4692323893E+00
    0.2700000000E+05    0.2418701820E+00    0.2084722217E+00    0.2110388698E-02    0.4271260949E+00    0.4696045899E+00
    0.2900000000E+05    0.2421451564E+00    0.2084849051E+00    0.2025964543E-02    0.4276632207E+00    0.4699353643E+00
    0.3100000000E+05    0.2423836044E+00    0.2084910778E+00    0.1950578053E-02    0.4281326907E+00    0.4702319736E+00
    0.3300000000E+05    0.2425922003E+00    0.2084921789E+00    0.1882738102E-02    0.4285466528E+00    0.4705000225E+00
    0.3500000000E+05    0.2427760948E+00    0.2084892932E+00    0.1821274800E-02    0.4289145057E+00    0.4707439128E+00
    0.3700000000E+05    0.2429393251E+00    0.2084832508E+00    0.1765256053E-02    0.4292436351E+00    0.4709671545E+00
    0.3900000000E+05    0.2430850996E+00    0.2084746948E+00    0.1713929068E-02    0.4295399258E+00    0.4711725844E+00
    0.4100000000E+05    0.2432159997E+00    0.2084641289E+00    0.1666678479E-02    0.4298081246E+00    0.4713625227E+00
    0.4300000000E+05    0.2433341251E+00    0.2084519522E+00    0.1622995800E-02    0.4300521027E+00    0.4715388876E+00
    0.4500000000E+05    0.2434412012E+00    0.2084384830E+00    0.1582456766E-02    0.4302750492E+00    0.4717032801E+00
    0.4700000000E+05    0.2435386585E+00    0.2084239776E+00    0.1544704258E-02    0.4304796150E+00    0.4718570486E+00
    0.4900000000E+05    0.2436276926E+00    0.2084086437E+00    0.1509435271E-02    0.4306680219E+00    0.4720013372E+00
    0.1000000000E+05    0.2349848121E+00    0.2073722765E+00    0.3831189437E-02    0.4142988732E+00    0.4630381988E+00
    0.3000000000E+05    0.2422684874E+00    0.2084887056E+00    0.1987243513E-02    0.4279055784E+00    0.4700875566E+00
    0.5000000000E+05    0.2436693721E+00    0.2084007202E+00    0.1492649679E-02    0.4307567636E+00    0.4720702380E+00
    0.7000000000E+05    0.2442382234E+00    0.2082267305E+00    0.1240497004E-02    0.4320154178E+00    0.4731275798E+00
    0.9000000000E+05    0.2445364506E+00    0.2080531888E+00    0.1081646946E-02    0.4327338495E+00    0.4738235781E+00
    0.1100000000E+06    0.2447148789E+00    0.2078932873E+00    0.9700567324E-03    0.4332030148E+00    0.4743332866E+00
    0.1300000000E+06    0.2448305462E+00    0.2077480584E+00    0.8862391642E-03    0.4335360531E+00    0.4747313786E+00
    0.1500000000E+06    0.2449096068E+00    0.2076160756E+00    0.8203557045E-03    0.4337862943E+00    0.4750559313E+00
    0.1700000000E+06    0.2449656597E+00    0.2074955627E+00    0.7668365123E-03    0.4339822429E+00    0.4753287473E+00
    0.1900000000E+06    0.2450064351E+00    0.2073848949E+00    0.7222626803E-03    0.4341405556E+00    0.4755633742E+00
    0.2100000000E+06    0.2450366295E+00    0.2072826943E+00    0.6844049471E-03    0.4342716377E+00    0.4757687589E+00
    0.2300000000E+06    0.2450592481E+00    0.2071878180E+00    0.6517399481E-03    0.4343823367E+00    0.4759510951E+00
    0.2500000000E+06    0.2450762951E+00    0.2070993219E+00    0.6231868929E-03    0.4344773498E+00    0.4761148352E+00
    0.2700000000E+06    0.2450891534E+00    0.2070164233E+00    0.5979550632E-03    0.4345600118E+00    0.4762632796E+00
    0.2900000000E+06    0.2450988041E+00    0.2069384697E+00    0.5754509423E-03    0.4346327583E+00    0.4763989380E+00
    0.3100000000E+06    0.2451059607E+00    0.2068649127E+00    0.5552192528E-03    0.4346974119E+00    0.4765237606E+00
    0.3300000000E+06    0.2451111522E+00    0.2067952884E+00    0.5369041883E-03    0.4347553652E+00    0.4766392909E+00
    0.3500000000E+06    0.2451147781E+00    0.2067292012E+00    0.5202231453E-03    0.4348077015E+00    0.4767467703E+00
    0.3700000000E+06    0.2451171448E+00    0.2066663114E+00    0.5049484577E-03    0.4348552768E+00    0.4768472112E+00
    0.3900000000E+06    0.2451184905E+00    0.2066063255E+00    0.4908944066E-03    0.4348987775E+00    0.4769414497E+00
    0.4100000000E+06    0.2451190025E+00    0.2065489880E+00    0.4779077925E-03    0.4349387602E+00    0.4770301834E+00
    0.4300000000E+06    0.2451188297E+00    0.2064940756E+00    0.4658609738E-03    0.4349756819E+00    0.4771140007E+00
    0.4500000000E+06    0.2451180917E+00    0.2064413918E+00    0.4546466411E-03    0.4350099213E+00    0.4771934015E+00
    0.4700000000E+06    0.2451168854E+00    0.2063907630E+00    0.4441738409E-03    0.4350417952E+00    0.4772688147E+00
    0.4900000000E+06    0.2451152896E+00    0.2063420350E+00    0.4343649085E-03    0.4350715706E+00    0.4773406104E+00
    0.1000000000E+06    0.2446359844E+00    0.2079713632E+00    0.1021492700E-02    0.4329904224E+00    0.4740958003E+00
    0.3000000000E+06    0.2451026576E+00    0.2069011724E+00    0.5650752574E-03    0.4346660013E+00    0.4764625992E+00
    0.5000000000E+06    0.2451143665E+00    0.2063183402E+00    0.4296881566E-03    0.4350857437E+00    0.4773752538E+00
    0.7000000000E+06    0.2450863753E+00    0.2059175032E+00    0.3588208386E-03    0.4352996974E+00    0.4779380538E+00
    0.9000000000E+06    0.2450527276E+00    0.2056115988E+00    0.3136421407E-03    0.4354371826E+00    0.4783433450E+00
    0.1100000000E+07    0.2450198562E+00    0.2053640965E+00    0.2816933824E-03    0.4355364409E+00    0.4786593231E+00
    0.1300000000E+07    0.2449891838E+00    0.2051561918E+00    0.2575957786E-03    0.4356132735E+00    0.4789178989E+00
    0.1500000000E+07    0.2449608932E+00    0.2049769206E+00    0.2386005627E-03    0.4356755541E+00    0.4791365306E+00
    0.1700000000E+07    0.2449348287E+00    0.2048193269E+00    0.2231388395E-03    0.4357277124E+00    0.4793257927E+00
    0.1900000000E+07    0.2449107552E+00    0.2046787193E+00    0.2102419475E-03    0.4357724635E+00    0.4794925674E+00
    0.2100000000E+07    0.2448884374E+00    0.2045517831E+00    0.1992755225E-03    0.4358115805E+00    0.4796415814E+00
    0.2300000000E+07    0.2448676637E+00    0.2044360891E+00    0.1898046103E-03    0.4358462800E+00    0.4797762186E+00
    0.2500000000E+07    0.2448482506E+00    0.2043298036E+00    0.1815197964E-03    0.4358774301E+00    0.4798989839E+00
    0.2700000000E+07    0.2448300413E+00    0.2042315082E+00    0.1741942203E-03    0.4359056703E+00    0.4800117825E+00
    0.2900000000E+07    0.2448129020E+00    0.2041400834E+00    0.1676572959E-03    0.4359314843E+00    0.4801160970E+00
    0.3100000000E+07    0.2447967187E+00    0.2040546297E+00    0.1617779745E-03    0.4359552465E+00    0.4802131032E+00
    0.3300000000E+07    0.2447813935E+00    0.2039744137E+00    0.1564537105E-03    0.4359772520E+00    0.4803037496E+00
    0.3500000000E+07    0.2447668426E+00    0.2038988293E+00    0.1516029678E-03    0.4359977373E+00    0.4803888115E+00
    0.3700000000E+07    0.2447529930E+00    0.2038273702E+00    0.1471599998E-03    0.4360168951E+00    0.4804689316E+00
    0.3900000000E+07    0.2447397816E+00    0.2037596086E+00    0.1430711298E-03    0.4360348838E+00    0.4805446478E+00
    0.4100000000E+07    0.2447271531E+00    0.2036951803E+00    0.1392920489E-03    0.4360518355E+00    0.4806164151E+00
    0.4300000000E+07    0.2447150590E+00    0.2036337723E+00    0.1357858165E-03    0.4360678614E+00    0.4806846218E+00
    0.4500000000E+07    0.2447034565E+00    0.2035751138E+00    0.1325213593E-03    0.4360830559E+00    0.4807496017E+00
    0.4700000000E+07    0.2446923076E+00    0.2035189688E+00    0.1294723269E-03    0.4360974997E+00    0.4808116439E+00
    0.4900000000E+07    0.2446815786E+00    0.2034651306E+00    0.1266162088E-03    0.4361112626E+00    0.4808710007E+00
    0.1000000000E+07    0.2450360573E+00    0.2054819758E+00    0.2964397309E-03    0.4354903290E+00    0.4785100227E+00
    0.3000000000E+07    0.2448046973E+00    0.2040966594E+00    0.1646424107E-03    0.4359436019E+00    0.4801654498E+00
    0.5000000000E+07    0.2446763620E+00    0.2034390188E+00    0.1252543353E-03    0.4361179080E+00    0.4808997421E+00
    0.7000000000E+07    0.2445881918E+00    0.2030031517E+00    0.1046094662E-03    0.4362263124E+00    0.4813753703E+00
    0.9000000000E+07    0.2445210320E+00    0.2026765859E+00    0.9144163654E-04    0.4363049769E+00    0.4817272715E+00
    0.1100000000E+08    0.2444667887E+00    0.2024153394E+00    0.8212765556E-04    0.4363666969E+00    0.4820064865E+00
    0.1300000000E+08    0.2444212912E+00    0.2021975862E+00    0.7510164897E-04    0.4364174726E+00    0.4822378542E+00
    0.1500000000E+08    0.2443821090E+00    0.2020108911E+00    0.6956293598E-04    0.4364605972E+00    0.4824353387E+00
    0.1700000000E+08    0.2443477015E+00    0.2018474919E+00    0.6505435683E-04    0.4364980725E+00    0.4826075715E+00
    0.1900000000E+08    0.2443170307E+00    0.2017022159E+00    0.6129358840E-04    0.4365312060E+00    0.4827602603E+00
    0.2100000000E+08    0.2442893642E+00    0.2015714425E+00    0.5809571144E-04    0.4365608984E+00    0.4828973755E+00
    0.2300000000E+08    0.2442641656E+00    0.2014525385E+00    0.5533392098E-04    0.4365877965E+00    0.4830217901E+00
    0.2500000000E+08    0.2442410306E+00    0.2013435283E+00    0.5291800402E-04    0.4366123808E+00    0.4831356503E+00
    0.2700000000E+08    0.2442196465E+00    0.2012428921E+00    0.5078181293E-04    0.4366350174E+00    0.4832406010E+00
