  Pressure (Pa) 22mC5-400 (mol/kg) 3mC6-400 (mol/kg) 33mC5-400 (mol/kg) 23mC5-400 (mol/kg) C7-400 (mol/kg)
    0.1000000000E+01    0.5318285553E-03    0.2632174769E-02    0.4531422675E-03    0.3735320648E-03    0.5125534617E-02
    0.3000000000E+01    0.1589824250E-02    0.7712866901E-02    0.1330909392E-02    0.1116623045E-02    0.1502067481E-01
    0.5000000000E+01    0.2640346642E-02    0.1256267687E-01    0.2172808140E-02    0.1854469294E-02    0.2446832238E-01
    0.7000000000E+01    0.3683484753E-02    0.1719708244E-01    0.2981217569E-02    0.2587133275E-02    0.3349842914E-01
    0.9000000000E+01    0.4719326165E-02    0.2163020616E-01    0.3758304167E-02    0.3314676439E-02    0.4213832630E-01
    0.1100000000E+02    0.5747957051E-02    0.2587496049E-01    0.4506045044E-02    0.4037159252E-02    0.5041300516E-01
    0.1300000000E+02    0.6769462201E-02    0.2994317479E-01    0.5226248170E-02    0.4754641207E-02    0.5834536238E-01
    0.1500000000E+02    0.7783925051E-02    0.3384570655E-01    0.5920570091E-02    0.5467180850E-02    0.6595641511E-01
    0.1700000000E+02    0.8791427713E-02    0.3759253929E-01    0.6590531468E-02    0.6174835792E-02    0.7326549011E-01
    0.1900000000E+02    0.9792050993E-02    0.4119286874E-01    0.7237530754E-02    0.6877662736E-02    0.8029039046E-01
    0.2100000000E+02    0.1078587443E-01    0.4465517910E-01    0.7862856256E-02    0.7575717486E-02    0.8704754291E-01
    0.2300000000E+02    0.1177297629E-01    0.4798731062E-01    0.8467696809E-02    0.8269054970E-02    0.9355212854E-01
    0.2500000000E+02    0.1275343365E-01    0.5119651953E-01    0.9053151230E-02    0.8957729258E-02    0.9981819866E-01
    0.2700000000E+02    0.1372732236E-01    0.5428953153E-01    0.9620236727E-02    0.9641793574E-02    0.1058587782E+00
    0.2900000000E+02    0.1469471708E-01    0.5727258937E-01    0.1016989638E-01    0.1032130032E-01    0.1116859576E+00
    0.3100000000E+02    0.1565569135E-01    0.6015149548E-01    0.1070300582E-01    0.1099630107E-01    0.1173109756E+00
    0.3300000000E+02    0.1661031754E-01    0.6293165018E-01    0.1122037921E-01    0.1166684663E-01    0.1227442926E+00
    0.3500000000E+02    0.1755866694E-01    0.6561808591E-01    0.1172277458E-01    0.1233298700E-01    0.1279956574E+00
    0.3700000000E+02    0.1850080972E-01    0.6821549806E-01    0.1221089864E-01    0.1299477143E-01    0.1330741663E+00
    0.3900000000E+02    0.1943681500E-01    0.7072827273E-01    0.1268541110E-01    0.1365224842E-01    0.1379883172E+00
    0.4100000000E+02    0.2036675083E-01    0.7316051186E-01    0.1314692857E-01    0.1430546573E-01    0.1427460581E+00
    0.4300000000E+02    0.2129068427E-01    0.7551605583E-01    0.1359602805E-01    0.1495447038E-01    0.1473548305E+00
    0.4500000000E+02    0.2220868132E-01    0.7779850403E-01    0.1403325013E-01    0.1559930871E-01    0.1518216097E+00
    0.4700000000E+02    0.2312080702E-01    0.8001123350E-01    0.1445910186E-01    0.1624002635E-01    0.1561529404E+00
    0.4900000000E+02    0.2402712542E-01    0.8215741582E-01    0.1487405934E-01    0.1687666825E-01    0.1603549699E+00
    0.1000000000E+02    0.5234537592E-02    0.2377536615E-01    0.4135726077E-02    0.3676546649E-02    0.4631984054E-01
    0.3000000000E+02    0.1517600222E-01    0.5872471486E-01    0.1043846762E-01    0.1065936075E-01    0.1145230655E+00
    0.5000000000E+02    0.2447812665E-01    0.8320649057E-01    0.1507759366E-01    0.1719347466E-01    0.1624093162E+00
    0.7000000000E+02    0.3320818504E-01    0.1013311719E+00    0.1867197072E-01    0.2332609325E-01    0.1979426568E+00
    0.9000000000E+02    0.4142410283E-01    0.1153030362E+00    0.2155318044E-01    0.2909786227E-01    0.2253971306E+00
    0.1100000000E+03    0.4917602632E-01    0.1264109423E+00    0.2391695648E-01    0.3454396950E-01    0.2472736969E+00
    0.1300000000E+03    0.5650758755E-01    0.1354591999E+00    0.2588782815E-01    0.3969503215E-01    0.2651342527E+00
    0.1500000000E+03    0.6345693105E-01    0.1429759346E+00    0.2754987904E-01    0.4457781718E-01    0.2800051458E+00
    0.1700000000E+03    0.7005755290E-01    0.1493224003E+00    0.2896267420E-01    0.4921583001E-01    0.2925889591E+00
    0.1900000000E+03    0.7633899093E-01    0.1547541516E+00    0.3017009130E-01    0.5362979871E-01    0.3033830825E+00
    0.2100000000E+03    0.8232739579E-01    0.1594571262E+00    0.3120550406E-01    0.5783807467E-01    0.3127496840E+00
    0.2300000000E+03    0.8804600609E-01    0.1635698802E+00    0.3209497542E-01    0.6185696596E-01    0.3209588458E+00
    0.2500000000E+03    0.9351554596E-01    0.1671978040E+00    0.3285930838E-01    0.6570101630E-01    0.3282161582E+00
    0.2700000000E+03    0.9875455927E-01    0.1704225060E+00    0.3351541213E-01    0.6938323952E-01    0.3346809386E+00
    0.2900000000E+03    0.1037796920E+00    0.1733081759E+00    0.3407724157E-01    0.7291531768E-01    0.3404785954E+00
    0.3100000000E+03    0.1086059318E+00    0.1759060078E+00    0.3455646207E-01    0.7630776919E-01    0.3457092225E+00
    0.3300000000E+03    0.1132468122E+00    0.1782573375E+00    0.3496293171E-01    0.7957009208E-01    0.3504537011E+00
    0.3500000000E+03    0.1177145874E+00    0.1803959129E+00    0.3530505902E-01    0.8271088663E-01    0.3547781145E+00
    0.3700000000E+03    0.1220203824E+00    0.1823495624E+00    0.3559007369E-01    0.8573796067E-01    0.3587369971E+00
    0.3900000000E+03    0.1261743224E+00    0.1841414422E+00    0.3582423507E-01    0.8865842044E-01    0.3623757610E+00
    0.4100000000E+03    0.1301856446E+00    0.1857909794E+00    0.3601299522E-01    0.9147874911E-01    0.3657325344E+00
    0.4300000000E+03    0.1340627958E+00    0.1873145961E+00    0.3616112834E-01    0.9420487508E-01    0.3688395720E+00
    0.4500000000E+03    0.1378135167E+00    0.1887262699E+00    0.3627283474E-01    0.9684223133E-01    0.3717243482E+00
    0.4700000000E+03    0.1414449164E+00    0.1900379742E+00    0.3635182527E-01    0.9939580741E-01    0.3744104154E+00
    0.4900000000E+03    0.1449635364E+00    0.1912600256E+00    0.3640139066E-01    0.1018701948E+00    0.3769180826E+00
    0.1000000000E+03    0.4535519724E-01    0.1211564692E+00    0.2279075699E-01    0.3185961207E-01    0.2369190484E+00
    0.3000000000E+03    0.1062167957E+00    0.1746402871E+00    0.3432652414E-01    0.7462838075E-01    0.3431593408E+00
    0.5000000000E+03    0.1466824575E+00    0.1918402719E+00    0.3641606671E-01    0.1030790288E+00    0.3781106117E+00
    0.7000000000E+03    0.1763818450E+00    0.2003859904E+00    0.3572796464E-01    0.1239699937E+00    0.3958456307E+00
    0.9000000000E+03    0.1994914292E+00    0.2055063534E+00    0.3406154478E-01    0.1402328249E+00    0.4066881924E+00
    0.1100000000E+04    0.2181656486E+00    0.2089179336E+00    0.3208427947E-01    0.1533799368E+00    0.4140546550E+00
    0.1300000000E+04    0.2336561596E+00    0.2113527000E+00    0.3007228070E-01    0.1642900924E+00    0.4194129457E+00
    0.1500000000E+04    0.2467550540E+00    0.2131761908E+00    0.2814276719E-01    0.1735194705E+00    0.4235015646E+00
    0.1700000000E+04    0.2579963976E+00    0.2145915694E+00    0.2634259456E-01    0.1814431204E+00    0.4267339327E+00
    0.1900000000E+04    0.2677580080E+00    0.2157208751E+00    0.2468600800E-01    0.1883264010E+00    0.4293601498E+00
    0.2100000000E+04    0.2763172846E+00    0.2166418829E+00    0.2317197370E-01    0.1943641693E+00    0.4315407114E+00
    0.2300000000E+04    0.2838839489E+00    0.2174065222E+00    0.2179252847E-01    0.1997037628E+00    0.4333835132E+00
    0.2500000000E+04    0.2906203278E+00    0.2180507985E+00    0.2053691616E-01    0.2044592386E+00    0.4349638690E+00
    0.2700000000E+04    0.2966545017E+00    0.2186004661E+00    0.1939365286E-01    0.2087206036E+00    0.4363360086E+00
    0.2900000000E+04    0.3020891583E+00    0.2190744357E+00    0.1835154022E-01    0.2125600304E+00    0.4375400129E+00
    0.3100000000E+04    0.3070077472E+00    0.2194869065E+00    0.1740013334E-01    0.2160361785E+00    0.4386061719E+00
    0.3300000000E+04    0.3114788742E+00    0.2198487473E+00    0.1652992404E-01    0.2191972803E+00    0.4395578202E+00
    0.3500000000E+04    0.3155595142E+00    0.2201684189E+00    0.1573237684E-01    0.2220833963E+00    0.4404132374E+00
    0.3700000000E+04    0.3192974035E+00    0.2204526056E+00    0.1499989120E-01    0.2247280963E+00    0.4411869555E+00
    0.3900000000E+04    0.3227328555E+00    0.2207066576E+00    0.1432572991E-01    0.2271597335E+00    0.4418906789E+00
    0.4100000000E+04    0.3259001564E+00    0.2209349080E+00    0.1370393480E-01    0.2294024255E+00    0.4425339450E+00
    0.4300000000E+04    0.3288286536E+00    0.2211409030E+00    0.1312924112E-01    0.2314768188E+00    0.4431246072E+00
    0.4500000000E+04    0.3315436144E+00    0.2213275729E+00    0.1259699624E-01    0.2334006917E+00    0.4436691935E+00
    0.4700000000E+04    0.3340669099E+00    0.2214973592E+00    0.1210308525E-01    0.2351894350E+00    0.4441731772E+00
    0.4900000000E+04    0.3364175650E+00    0.2216523132E+00    0.1164386425E-01    0.2368564383E+00    0.4446411828E+00
    0.1000000000E+04    0.2092905038E+00    0.2073674820E+00    0.3308915369E-01    0.1471309367E+00    0.4106893358E+00
    0.3000000000E+04    0.3046083678E+00    0.2192876136E+00    0.1786511569E-01    0.2143402852E+00    0.4380887274E+00
    0.5000000000E+04    0.3375334310E+00    0.2217247810E+00    0.1142623791E-01    0.2376480030E+00    0.4448629470E+00
    0.7000000000E+04    0.3538920811E+00    0.2227033133E+00    0.8279769644E-02    0.2492740586E+00    0.4481152941E+00
    0.9000000000E+04    0.3635428422E+00    0.2231966069E+00    0.6483804313E-02    0.2561605858E+00    0.4500856559E+00
    0.1100000000E+05    0.3698609876E+00    0.2234741031E+00    0.5343388520E-02    0.2606876864E+00    0.4514342701E+00
    0.1300000000E+05    0.3742977414E+00    0.2236391187E+00    0.4562558641E-02    0.2638800939E+00    0.4524296623E+00
    0.1500000000E+05    0.3775744058E+00    0.2237393011E+00    0.3997394690E-02    0.2662478215E+00    0.4532029754E+00
    0.1700000000E+05    0.3800879139E+00    0.2237994391E+00    0.3570604226E-02    0.2680719113E+00    0.4538264208E+00
    0.1900000000E+05    0.3820738922E+00    0.2238335783E+00    0.3237384812E-02    0.2695194237E+00    0.4543432984E+00
    0.2100000000E+05    0.3836806674E+00    0.2238501993E+00    0.2970153560E-02    0.2706956679E+00    0.4547812858E+00
    0.2300000000E+05    0.3850060872E+00    0.2238546813E+00    0.2751081275E-02    0.2716702108E+00    0.4551589771E+00
    0.2500000000E+05    0.3861172161E+00    0.2238505722E+00    0.2568171345E-02    0.2724907998E+00    0.4554893725E+00
    0.2700000000E+05    0.3870615063E+00    0.2238402874E+00    0.2413075563E-02    0.2731912669E+00    0.4557818626E+00
    0.2900000000E+05    0.3878734486E+00    0.2238255148E+00    0.2279816176E-02    0.2737962378E+00    0.4560434189E+00
    0.3100000000E+05    0.3885786968E+00    0.2238074599E+00    0.2164006341E-02    0.2743240551E+00    0.4562793376E+00
    0.3300000000E+05    0.3891967165E+00    0.2237869994E+00    0.2062357290E-02    0.2747886563E+00    0.4564937232E+00
    0.3500000000E+05    0.3897425373E+00    0.2237647809E+00    0.1972356925E-02    0.2752008187E+00    0.4566898117E+00
    0.3700000000E+05    0.3902279437E+00    0.2237412890E+00    0.1892054442E-02    0.2755690045E+00    0.4568701931E+00
    0.3900000000E+05    0.3906623029E+00    0.2237168901E+00    0.1819912496E-02    0.2758999500E+00    0.4570369682E+00
    0.4100000000E+05    0.3910531517E+00    0.2236918639E+00    0.1754703531E-02    0.2761990829E+00    0.4571918616E+00
    0.4300000000E+05    0.3914066215E+00    0.2236664256E+00    0.1695435690E-02    0.2764708256E+00    0.4573363037E+00
    0.4500000000E+05    0.3917277502E+00    0.2236407417E+00    0.1641298927E-02    0.2767188167E+00    0.4574714925E+00
    0.4700000000E+05    0.3920207142E+00    0.2236149415E+00    0.1591625218E-02    0.2769460773E+00    0.4575984402E+00
    0.4900000000E+05    0.3922890049E+00    0.2235891257E+00    0.1545858748E-02    0.2771551365E+00    0.4577180084E+00
    0.1000000000E+05    0.3670029368E+00    0.2233539152E+00    0.5855344829E-02    0.2586374989E+00    0.4508161407E+00
    0.3000000000E+05    0.3882380718E+00    0.2238168365E+00    0.2219956942E-02    0.2740688333E+00    0.4561643029E+00
    0.5000000000E+05    0.3924148352E+00    0.2235762372E+00    0.1524292035E-02    0.2772535206E+00    0.4577752603E+00
    0.7000000000E+05    0.3941542402E+00    0.2233294648E+00    0.1216366123E-02    0.2786425533E+00    0.4586673153E+00
    0.9000000000E+05    0.3950956398E+00    0.2231116643E+00    0.1036781737E-02    0.2794294606E+00    0.4592695290E+00
    0.1100000000E+06    0.3956801719E+00    0.2229212446E+00    0.9165697224E-03    0.2799407304E+00    0.4597187858E+00
    0.1300000000E+06    0.3960753518E+00    0.2227532905E+00    0.8291937541E-03    0.2803023269E+00    0.4600747098E+00
    0.1500000000E+06    0.3963584583E+00    0.2226034864E+00    0.7621210322E-03    0.2805732769E+00    0.4603682220E+00
    0.1700000000E+06    0.3965699760E+00    0.2224684697E+00    0.7085983457E-03    0.2807849858E+00    0.4606172793E+00
    0.1900000000E+06    0.3967331147E+00    0.2223456651E+00    0.6646350686E-03    0.2809557387E+00    0.4608331746E+00
    0.2100000000E+06    0.3968621105E+00    0.2222330868E+00    0.6277064244E-03    0.2810969240E+00    0.4610234447E+00
    0.2300000000E+06    0.3969661662E+00    0.2221291833E+00    0.5961287874E-03    0.2812160173E+00    0.4611933554E+00
    0.2500000000E+06    0.3970514867E+00    0.2220327239E+00    0.5687315645E-03    0.2813181360E+00    0.4613467233E+00
    0.2700000000E+06    0.3971224022E+00    0.2219427189E+00    0.5446727425E-03    0.2814069066E+00    0.4614863982E+00
    0.2900000000E+06    0.3971820233E+00    0.2218583614E+00    0.5233293548E-03    0.2814849736E+00    0.4616145618E+00
    0.3100000000E+06    0.3972326395E+00    0.2217789855E+00    0.5042294254E-03    0.2815543132E+00    0.4617329195E+00
    0.3300000000E+06    0.3972759718E+00    0.2217040361E+00    0.4870080502E-03    0.2816164334E+00    0.4618428289E+00
    0.3500000000E+06    0.3973133374E+00    0.2216330453E+00    0.4713781216E-03    0.2816725062E+00    0.4619453872E+00
    0.3700000000E+06    0.3973457611E+00    0.2215656154E+00    0.4571102635E-03    0.2817234569E+00    0.4620414934E+00
    0.3900000000E+06    0.3973740510E+00    0.2215014057E+00    0.4440187406E-03    0.2817700264E+00    0.4621318931E+00
    0.4100000000E+06    0.3973988528E+00    0.2214401220E+00    0.4319513502E-03    0.2818128155E+00    0.4622172113E+00
    0.4300000000E+06    0.3974206879E+00    0.2213815085E+00    0.4207820321E-03    0.2818523168E+00    0.4622979767E+00
    0.4500000000E+06    0.3974399819E+00    0.2213253418E+00    0.4104053740E-03    0.2818889384E+00    0.4623746404E+00
    0.4700000000E+06    0.3974570853E+00    0.2212714250E+00    0.4007324641E-03    0.2819230215E+00    0.4624475905E+00
    0.4900000000E+06    0.3974722892E+00    0.2212195844E+00    0.3916877172E-03    0.2819548535E+00    0.4625171629E+00
    0.1000000000E+06    0.3954188614E+00    0.2230133400E+00    0.9714052978E-03    0.2797093255E+00    0.4595085749E+00
    0.3000000000E+06    0.3972083384E+00    0.2218180877E+00    0.5135238755E-03    0.2815206309E+00    0.4616748746E+00
    0.5000000000E+06    0.3974792565E+00    0.2211943937E+00    0.3873803119E-03    0.2819700031E+00    0.4625507755E+00
    0.7000000000E+06    0.3975612918E+00    0.2207697505E+00    0.3224738732E-03    0.2821985227E+00    0.4631004741E+00
    0.9000000000E+06    0.3975882710E+00    0.2204471936E+00    0.2814098970E-03    0.2823452111E+00    0.4635002546E+00
    0.1100000000E+07    0.3975936702E+00    0.2201869330E+00    0.2524948614E-03    0.2824510463E+00    0.4638139682E+00
    0.1300000000E+07    0.3975892746E+00    0.2199687066E+00    0.2307445759E-03    0.2825329337E+00    0.4640718938E+00
    0.1500000000E+07    0.3975800889E+00    0.2197807774E+00    0.2136315775E-03    0.2825992890E+00    0.4642907536E+00
    0.1700000000E+07    0.3975685044E+00    0.2196157321E+00    0.1997207535E-03    0.2826548443E+00    0.4644807485E+00
    0.1900000000E+07    0.3975557570E+00    0.2194685867E+00    0.1881293303E-03    0.2827024983E+00    0.4646485553E+00
    0.2100000000E+07    0.3975425203E+00    0.2193358284E+00    0.1782808002E-03    0.2827441440E+00    0.4647987805E+00
    0.2300000000E+07    0.3975291742E+00    0.2192148875E+00    0.1697807335E-03    0.2827810796E+00    0.4649347347E+00
    0.2500000000E+07    0.3975159366E+00    0.2191038276E+00    0.1623490276E-03    0.2828142312E+00    0.4650588765E+00
    0.2700000000E+07    0.3975029325E+00    0.2190011527E+00    0.1557806015E-03    0.2828442810E+00    0.4651730814E+00
    0.2900000000E+07    0.3974902320E+00    0.2189056832E+00    0.1499214262E-03    0.2828717452E+00    0.4652788121E+00
    0.3100000000E+07    0.3974778717E+00    0.2188164722E+00    0.1446532884E-03    0.2828970227E+00    0.4653772314E+00
    0.3300000000E+07    0.3974658678E+00    0.2187327484E+00    0.1398837634E-03    0.2829204284E+00    0.4654692789E+00
    0.3500000000E+07    0.3974542240E+00    0.2186538747E+00    0.1355394157E-03    0.2829422147E+00    0.4655557245E+00
    0.3700000000E+07    0.3974429362E+00    0.2185793191E+00    0.1315610673E-03    0.2829625866E+00    0.4656372067E+00
    0.3900000000E+07    0.3974319955E+00    0.2185086328E+00    0.1279004312E-03    0.2829817132E+00    0.4657142612E+00
    0.4100000000E+07    0.3974213904E+00    0.2184414334E+00    0.1245176662E-03    0.2829997353E+00    0.4657873415E+00
    0.4300000000E+07    0.3974111079E+00    0.2183773927E+00    0.1213795715E-03    0.2830167715E+00    0.4658568352E+00
    0.4500000000E+07    0.3974011341E+00    0.2183162266E+00    0.1184582298E-03    0.2830329222E+00    0.4659230758E+00
    0.4700000000E+07    0.3973914553E+00    0.2182576880E+00    0.1157299756E-03    0.2830482737E+00    0.4659863525E+00
    0.4900000000E+07    0.3973820577E+00    0.2182015601E+00    0.1131745981E-03    0.2830629001E+00    0.4660469176E+00
    0.1000000000E+07    0.3975926879E+00    0.2203108189E+00    0.2658292237E-03    0.2824018858E+00    0.4636655280E+00
    0.3000000000E+07    0.3974840079E+00    0.2188603472E+00    0.1472197666E-03    0.2828846359E+00    0.4653288724E+00
    0.5000000000E+07    0.3973774603E+00    0.2181743397E+00    0.1119562112E-03    0.2830699619E+00    0.4660762537E+00
    0.7000000000E+07    0.3972973651E+00    0.2177201311E+00    0.9349258069E-04    0.2831851181E+00    0.4665625597E+00
    0.9000000000E+07    0.3972339538E+00    0.2173799883E+00    0.8172105799E-04    0.2832686312E+00    0.4669232770E+00
    0.1100000000E+08    0.3971816098E+00    0.2171079583E+00    0.7339656757E-04    0.2833341256E+00    0.4672099701E+00
    0.1300000000E+08    0.3971370815E+00    0.2168812591E+00    0.6711778970E-04    0.2833879868E+00    0.4674478259E+00
    0.1500000000E+08    0.3970983514E+00    0.2166869195E+00    0.6216852359E-04    0.2834337185E+00    0.4676510400E+00
    0.1700000000E+08    0.3970640883E+00    0.2165168460E+00    0.5813996913E-04    0.2834734494E+00    0.4678284037E+00
    0.1900000000E+08    0.3970333706E+00    0.2163656470E+00    0.5477972132E-04    0.2835085696E+00    0.4679857392E+00
    0.2100000000E+08    0.3970055341E+00    0.2162295497E+00    0.5192248218E-04    0.2835400364E+00    0.4681271016E+00
    0.2300000000E+08    0.3969800851E+00    0.2161058106E+00    0.4945491461E-04    0.2835685373E+00    0.4682554281E+00
    0.2500000000E+08    0.3969566463E+00    0.2159923718E+00    0.4729639415E-04    0.2835945826E+00    0.4683729145E+00
    0.2700000000E+08    0.3969349234E+00    0.2158876503E+00    0.4538780787E-04    0.2836185612E+00    0.4684812454E+00
