  Pressure (Pa) 22mC5-400 (mol/kg) 3mC6-400 (mol/kg) 33mC5-400 (mol/kg) 23mC5-400 (mol/kg) C7-400 (mol/kg)
    0.1000000000E+01    0.5315612236E-03    0.1578409046E-02    0.1293580002E-03    0.9333613089E-03    0.6830190583E-02
    0.3000000000E+01    0.1587435383E-02    0.4620012776E-02    0.3792893659E-03    0.2787367949E-02    0.1999439150E-01
    0.5000000000E+01    0.2633757886E-02    0.7517117042E-02    0.6181861581E-03    0.4624617663E-02    0.3253623172E-01
    0.7000000000E+01    0.3670661793E-02    0.1027977707E-01    0.8467953962E-03    0.6445343820E-02    0.4449894980E-01
    0.9000000000E+01    0.4698277685E-02    0.1291713633E-01    0.1065795555E-02    0.8249775444E-02    0.5592186678E-01
    0.1100000000E+02    0.5716733722E-02    0.1543752760E-01    0.1275804282E-02    0.1003813731E-01    0.6684082012E-01
    0.1300000000E+02    0.6726155700E-02    0.1784856081E-01    0.1477385101E-02    0.1181065006E-01    0.7728854116E-01
    0.1500000000E+02    0.7726667104E-02    0.2015719981E-01    0.1671053245E-02    0.1356753026E-01    0.8729498461E-01
    0.1700000000E+02    0.8718389159E-02    0.2236982946E-01    0.1857280762E-02    0.1530899053E-01    0.9688761693E-01
    0.1900000000E+02    0.9701440886E-02    0.2449231459E-01    0.2036500980E-02    0.1703523963E-01    0.1060916695E+00
    0.2100000000E+02    0.1067593915E-01    0.2653005190E-01    0.2209112435E-02    0.1874648251E-01    0.1149303615E+00
    0.2300000000E+02    0.1164199870E-01    0.2848801571E-01    0.2375482333E-02    0.2044292045E-01    0.1234250966E+00
    0.2500000000E+02    0.1259973223E-01    0.3037079853E-01    0.2535949602E-02    0.2212475111E-01    0.1315956371E+00
    0.2700000000E+02    0.1354925042E-01    0.3218264698E-01    0.2690827601E-02    0.2379216859E-01    0.1394602584E+00
    0.2900000000E+02    0.1449066198E-01    0.3392749374E-01    0.2840406518E-02    0.2544536356E-01    0.1470358861E+00
    0.3100000000E+02    0.1542407368E-01    0.3560898607E-01    0.2984955511E-02    0.2708452332E-01    0.1543382188E+00
    0.3300000000E+02    0.1634959043E-01    0.3723051119E-01    0.3124724605E-02    0.2870983183E-01    0.1613818368E+00
    0.3500000000E+02    0.1726731527E-01    0.3879521910E-01    0.3259946402E-02    0.3032146985E-01    0.1681803004E+00
    0.3700000000E+02    0.1817734946E-01    0.4030604294E-01    0.3390837596E-02    0.3191961497E-01    0.1747462376E+00
    0.3900000000E+02    0.1907979248E-01    0.4176571739E-01    0.3517600342E-02    0.3350444167E-01    0.1810914224E+00
    0.4100000000E+02    0.1997474210E-01    0.4317679512E-01    0.3640423482E-02    0.3507612143E-01    0.1872268466E+00
    0.4300000000E+02    0.2086229438E-01    0.4454166172E-01    0.3759483652E-02    0.3663482275E-01    0.1931627830E+00
    0.4500000000E+02    0.2174254375E-01    0.4586254914E-01    0.3874946278E-02    0.3818071125E-01    0.1989088436E+00
    0.4700000000E+02    0.2261558301E-01    0.4714154786E-01    0.3986966472E-02    0.3971394969E-01    0.2044740321E+00
    0.4900000000E+02    0.2348150338E-01    0.4838061794E-01    0.4095689851E-02    0.4123469807E-01    0.2098667909E+00
    0.1000000000E+02    0.5208642768E-02    0.1419146135E-01    0.1171887431E-02    0.9145951212E-02    0.6144222448E-01
    0.3000000000E+02    0.1495836121E-01    0.3477594169E-01    0.2913293701E-02    0.2626668627E-01    0.1507202781E+00
    0.5000000000E+02    0.2391182207E-01    0.4898575907E-01    0.4148858327E-02    0.4199043775E-01    0.2125010046E+00
    0.7000000000E+02    0.3216554842E-01    0.5938401729E-01    0.5068391699E-02    0.5648650241E-01    0.2578202556E+00
    0.9000000000E+02    0.3980092889E-01    0.6732207877E-01    0.5773365666E-02    0.6989763546E-01    0.2925012836E+00
    0.1100000000E+03    0.4688707138E-01    0.7357996745E-01    0.6323880880E-02    0.8234505490E-01    0.3199080828E+00
    0.1300000000E+03    0.5348303645E-01    0.7863945825E-01    0.6758402377E-02    0.9393235781E-01    0.3421200875E+00
    0.1500000000E+03    0.5963960162E-01    0.8281419497E-01    0.7103067216E-02    0.1047486144E+00    0.3604921503E+00
    0.1700000000E+03    0.6540066742E-01    0.8631715334E-01    0.7376487475E-02    0.1148708336E+00    0.3759450182E+00
    0.1900000000E+03    0.7080438695E-01    0.8929803245E-01    0.7592416037E-02    0.1243659442E+00    0.3891264080E+00
    0.2100000000E+03    0.7588408028E-01    0.9186513177E-01    0.7761318557E-02    0.1332923979E+00    0.4005052935E+00
    0.2300000000E+03    0.8066897982E-01    0.9409873829E-01    0.7891349137E-02    0.1417014772E+00    0.4104296308E+00
    0.2500000000E+03    0.8518484193E-01    0.9605963416E-01    0.7988983048E-02    0.1496383674E+00    0.4191630609E+00
    0.2700000000E+03    0.8945445200E-01    0.9779468102E-01    0.8059442821E-02    0.1571430430E+00    0.4269090123E+00
    0.2900000000E+03    0.9349804389E-01    0.9934058956E-01    0.8106994716E-02    0.1642510025E+00    0.4338269794E+00
    0.3100000000E+03    0.9733365015E-01    0.1007265270E+00    0.8135160921E-02    0.1709938836E+00    0.4400437875E+00
    0.3300000000E+03    0.1009773961E+00    0.1019759598E+00    0.8146875194E-02    0.1773999781E+00    0.4456615589E+00
    0.3500000000E+03    0.1044437477E+00    0.1031079821E+00    0.8144599498E-02    0.1834946676E+00    0.4507634549E+00
    0.3700000000E+03    0.1077457221E+00    0.1041382878E+00    0.8130413029E-02    0.1893007917E+00    0.4554178867E+00
    0.3900000000E+03    0.1108950663E+00    0.1050798961E+00    0.8106081271E-02    0.1948389619E+00    0.4596816508E+00
    0.4100000000E+03    0.1139024100E+00    0.1059436972E+00    0.8073110340E-02    0.2001278302E+00    0.4636022964E+00
    0.4300000000E+03    0.1167773973E+00    0.1067388706E+00    0.8032790257E-02    0.2051843191E+00    0.4672199366E+00
    0.4500000000E+03    0.1195287995E+00    0.1074732085E+00    0.7986229800E-02    0.2100238202E+00    0.4705686493E+00
    0.4700000000E+03    0.1221646129E+00    0.1081533680E+00    0.7934384835E-02    0.2146603654E+00    0.4736775723E+00
    0.4900000000E+03    0.1246921438E+00    0.1087850703E+00    0.7878081537E-02    0.2191067763E+00    0.4765717691E+00
    0.1000000000E+03    0.4340875077E-01    0.7062589382E-01    0.6065159269E-02    0.7623496131E-01    0.3069622822E+00
    0.3000000000E+03    0.9544079580E-01    0.1000519720E+00    0.8123305403E-02    0.1676662366E+00    0.4370161428E+00
    0.5000000000E+03    0.1259174163E+00    0.1090843219E+00    0.7848485524E-02    0.2212623892E+00    0.4779452358E+00
    0.7000000000E+03    0.1460967683E+00    0.1134328438E+00    0.7152538688E-02    0.2567771383E+00    0.4981262500E+00
    0.9000000000E+03    0.1604944097E+00    0.1159729420E+00    0.6432000715E-02    0.2821355710E+00    0.5101952635E+00
    0.1100000000E+04    0.1712993640E+00    0.1176284013E+00    0.5783545252E-02    0.3011805428E+00    0.5182476399E+00
    0.1300000000E+04    0.1797111594E+00    0.1187865003E+00    0.5223546088E-02    0.3160183797E+00    0.5240147568E+00
    0.1500000000E+04    0.1864457894E+00    0.1196378873E+00    0.4745692504E-02    0.3279066628E+00    0.5283559300E+00
    0.1700000000E+04    0.1919584516E+00    0.1202871984E+00    0.4338298846E-02    0.3376451130E+00    0.5317465918E+00
    0.1900000000E+04    0.1965529326E+00    0.1207965812E+00    0.3989676583E-02    0.3457675790E+00    0.5344713679E+00
    0.2100000000E+04    0.2004399508E+00    0.1212052344E+00    0.3689648568E-02    0.3526444537E+00    0.5367111966E+00
    0.2300000000E+04    0.2037703484E+00    0.1215390808E+00    0.3429783733E-02    0.3585409498E+00    0.5385866736E+00
    0.2500000000E+04    0.2066549813E+00    0.1218159338E+00    0.3203230258E-02    0.3636520245E+00    0.5401813125E+00
    0.2700000000E+04    0.2091771548E+00    0.1220484275E+00    0.3004453313E-02    0.3681242199E+00    0.5415548060E+00
    0.2900000000E+04    0.2114006826E+00    0.1222457642E+00    0.2828980729E-02    0.3720698191E+00    0.5427509703E+00
    0.3100000000E+04    0.2133752702E+00    0.1224148010E+00    0.2673186460E-02    0.3755763028E+00    0.5438027055E+00
    0.3300000000E+04    0.2151402060E+00    0.1225607475E+00    0.2534115510E-02    0.3787128355E+00    0.5447352030E+00
    0.3500000000E+04    0.2167269512E+00    0.1226876307E+00    0.2409345563E-02    0.3815348160E+00    0.5455680843E+00
    0.3700000000E+04    0.2181609936E+00    0.1227986099E+00    0.2296878614E-02    0.3840871362E+00    0.5463168633E+00
    0.3900000000E+04    0.2194631988E+00    0.1228961970E+00    0.2195056311E-02    0.3864065558E+00    0.5469939706E+00
    0.4100000000E+04    0.2206508102E+00    0.1229824132E+00    0.2102493703E-02    0.3885234612E+00    0.5476094857E+00
    0.4300000000E+04    0.2217382011E+00    0.1230589020E+00    0.2018027236E-02    0.3904631869E+00    0.5481716691E+00
    0.4500000000E+04    0.2227374466E+00    0.1231270130E+00    0.1940673716E-02    0.3922470221E+00    0.5486873562E+00
    0.4700000000E+04    0.2236587641E+00    0.1231878639E+00    0.1869597768E-02    0.3938929854E+00    0.5491622531E+00
    0.4900000000E+04    0.2245108568E+00    0.1232423880E+00    0.1804085876E-02    0.3954164285E+00    0.5496011615E+00
    0.1000000000E+04    0.1662558001E+00    0.1168803006E+00    0.6096852177E-02    0.2922889118E+00    0.5145854678E+00
    0.3000000000E+04    0.2124164289E+00    0.1223334622E+00    0.2748822435E-02    0.3738732592E+00    0.5432931655E+00
    0.5000000000E+04    0.2249133170E+00    0.1232675278E+00    0.1773221587E-02    0.3961363923E+00    0.5498084165E+00
    0.7000000000E+04    0.2306785921E+00    0.1235759699E+00    0.1337194450E-02    0.4064870573E+00    0.5527891034E+00
    0.9000000000E+04    0.2339821448E+00    0.1236933945E+00    0.1092552559E-02    0.4124640844E+00    0.5545327498E+00
    0.1100000000E+05    0.2361171697E+00    0.1237329934E+00    0.9358256767E-03    0.4163569242E+00    0.5556935660E+00
    0.1300000000E+05    0.2376073817E+00    0.1237357756E+00    0.8264232693E-03    0.4190952041E+00    0.5565309214E+00
    0.1500000000E+05    0.2387047540E+00    0.1237196034E+00    0.7453634741E-03    0.4211273612E+00    0.5571688928E+00
    0.1700000000E+05    0.2395453661E+00    0.1236932297E+00    0.6826276329E-03    0.4226962054E+00    0.5576746074E+00
    0.1900000000E+05    0.2402090948E+00    0.1236613039E+00    0.6324387792E-03    0.4239446325E+00    0.5580877004E+00
    0.2100000000E+05    0.2407458817E+00    0.1236264407E+00    0.5912332165E-03    0.4249622170E+00    0.5584331598E+00
    0.2300000000E+05    0.2411885386E+00    0.1235901717E+00    0.5566925307E-03    0.4258079613E+00    0.5587275651E+00
    0.2500000000E+05    0.2415595018E+00    0.1235534185E+00    0.5272422665E-03    0.4265223152E+00    0.5589823759E+00
    0.2700000000E+05    0.2418746268E+00    0.1235167454E+00    0.5017746842E-03    0.4271339382E+00    0.5592057838E+00
    0.2900000000E+05    0.2421454329E+00    0.1234804989E+00    0.4794869606E-03    0.4276637056E+00    0.5594038109E+00
    0.3100000000E+05    0.2423804878E+00    0.1234448903E+00    0.4597824198E-03    0.4281271840E+00    0.5595809909E+00
    0.3300000000E+05    0.2425862946E+00    0.1234100445E+00    0.4422078961E-03    0.4285362196E+00    0.5597408073E+00
    0.3500000000E+05    0.2427678771E+00    0.1233760310E+00    0.4264126880E-03    0.4288999873E+00    0.5598859846E+00
    0.3700000000E+05    0.2429291767E+00    0.1233428827E+00    0.4121208850E-03    0.4292257046E+00    0.5600186873E+00
    0.3900000000E+05    0.2430733290E+00    0.1233106089E+00    0.3991122396E-03    0.4295191272E+00    0.5601406585E+00
    0.4100000000E+05    0.2432028585E+00    0.1232792033E+00    0.3872086508E-03    0.4297849021E+00    0.5602533192E+00
    0.4300000000E+05    0.2433198207E+00    0.1232486495E+00    0.3762644245E-03    0.4300268222E+00    0.5603578407E+00
    0.4500000000E+05    0.2434259055E+00    0.1232189251E+00    0.3661591311E-03    0.4302480144E+00    0.5604551980E+00
    0.4700000000E+05    0.2435225154E+00    0.1231900035E+00    0.3567922840E-03    0.4304510798E+00    0.5605462100E+00
    0.4900000000E+05    0.2436108231E+00    0.1231618563E+00    0.3480793181E-03    0.4306382000E+00    0.5606315701E+00
    0.1000000000E+05    0.2351535732E+00    0.1237195337E+00    0.1006492948E-02    0.4145962607E+00    0.5551650828E+00
    0.3000000000E+05    0.2422669824E+00    0.1234626054E+00    0.4693429171E-03    0.4279029177E+00    0.5594947684E+00
    0.5000000000E+05    0.2436521789E+00    0.1231480639E+00    0.3439451947E-03    0.4307263680E+00    0.5606723189E+00
    0.7000000000E+05    0.2442178101E+00    0.1229059150E+00    0.2827818397E-03    0.4319793007E+00    0.5612971910E+00
    0.9000000000E+05    0.2445154979E+00    0.1227124106E+00    0.2450901942E-03    0.4326967537E+00    0.5617090088E+00
    0.1100000000E+06    0.2446941752E+00    0.1225518962E+00    0.2189592753E-03    0.4331663389E+00    0.5620115585E+00
    0.1300000000E+06    0.2448103457E+00    0.1224149471E+00    0.1995032948E-03    0.4335002503E+00    0.5622487582E+00
    0.1500000000E+06    0.2448899807E+00    0.1222956016E+00    0.1843055709E-03    0.4337514937E+00    0.5624429038E+00
    0.1700000000E+06    0.2449466107E+00    0.1221898823E+00    0.1720176519E-03    0.4339484510E+00    0.5626067316E+00
    0.1900000000E+06    0.2449879389E+00    0.1220950135E+00    0.1618207274E-03    0.4341077313E+00    0.5627481471E+00
    0.2100000000E+06    0.2450186528E+00    0.1220089846E+00    0.1531853551E-03    0.4342397234E+00    0.5628723697E+00
    0.2300000000E+06    0.2450417553E+00    0.1219302945E+00    0.1457521505E-03    0.4343512705E+00    0.5629830139E+00
    0.2500000000E+06    0.2450592519E+00    0.1218577932E+00    0.1392675254E-03    0.4344470717E+00    0.5630826797E+00
    0.2700000000E+06    0.2450725274E+00    0.1217905809E+00    0.1335467912E-03    0.4345304655E+00    0.5631732963E+00
    0.2900000000E+06    0.2450825661E+00    0.1217279401E+00    0.1284518494E-03    0.4346038923E+00    0.5632563324E+00
    0.3100000000E+06    0.2450900838E+00    0.1216692899E+00    0.1238771134E-03    0.4346691795E+00    0.5633329305E+00
    0.3300000000E+06    0.2450956122E+00    0.1216141534E+00    0.1197402992E-03    0.4347277240E+00    0.5634039964E+00
    0.3500000000E+06    0.2450995533E+00    0.1215621341E+00    0.1159762132E-03    0.4347806131E+00    0.5634702593E+00
    0.3700000000E+06    0.2451022154E+00    0.1215128990E+00    0.1125324502E-03    0.4348287067E+00    0.5635323150E+00
    0.3900000000E+06    0.2451038385E+00    0.1214661658E+00    0.1093663429E-03    0.4348726942E+00    0.5635906561E+00
    0.4100000000E+06    0.2451046117E+00    0.1214216929E+00    0.1064427565E-03    0.4349131353E+00    0.5636456944E+00
    0.4300000000E+06    0.2451046854E+00    0.1213792722E+00    0.1037324628E-03    0.4349504895E+00    0.5636977775E+00
    0.4500000000E+06    0.2451041804E+00    0.1213387228E+00    0.1012109241E-03    0.4349851378E+00    0.5637472014E+00
    0.4700000000E+06    0.2451031948E+00    0.1212998870E+00    0.9885736963E-04    0.4350173989E+00    0.5637942201E+00
    0.4900000000E+06    0.2451018085E+00    0.1212626260E+00    0.9665408366E-04    0.4350475419E+00    0.5638390533E+00
    0.1000000000E+06    0.2446151044E+00    0.1226287243E+00    0.2309703158E-03    0.4329534444E+00    0.5618704562E+00
    0.3000000000E+06    0.2450866033E+00    0.1216981481E+00    0.1261050604E-03    0.4346374576E+00    0.5632953749E+00
    0.5000000000E+06    0.2451009861E+00    0.1212445472E+00    0.9560395195E-04    0.4350618918E+00    0.5638607110E+00
    0.7000000000E+06    0.2450745955E+00    0.1209422103E+00    0.7971853667E-04    0.4352786534E+00    0.5642147932E+00
    0.9000000000E+06    0.2450420416E+00    0.1207151754E+00    0.6961653260E-04    0.4354180564E+00    0.5644723759E+00
    0.1100000000E+07    0.2450099797E+00    0.1205333482E+00    0.6248370318E-04    0.4355187330E+00    0.5646746632E+00
    0.1300000000E+07    0.2449799388E+00    0.1203817000E+00    0.5710943768E-04    0.4355966713E+00    0.5648411246E+00
    0.1500000000E+07    0.2449521594E+00    0.1202516366E+00    0.5287648186E-04    0.4356598461E+00    0.5649824953E+00
    0.1700000000E+07    0.2449265203E+00    0.1201377805E+00    0.4943309568E-04    0.4357127480E+00    0.5651053197E+00
    0.1900000000E+07    0.2449028083E+00    0.1200365422E+00    0.4656237062E-04    0.4357581304E+00    0.5652138804E+00
    0.2100000000E+07    0.2448808028E+00    0.1199454063E+00    0.4412239016E-04    0.4357977925E+00    0.5653111323E+00
    0.2300000000E+07    0.2448603027E+00    0.1198625416E+00    0.4201592315E-04    0.4358329692E+00    0.5653991995E+00
    0.2500000000E+07    0.2448411321E+00    0.1197865734E+00    0.4017384605E-04    0.4358645418E+00    0.5654796600E+00
    0.2700000000E+07    0.2448231397E+00    0.1197164435E+00    0.3854550532E-04    0.4358931596E+00    0.5655537181E+00
    0.2900000000E+07    0.2448061960E+00    0.1196513197E+00    0.3709283014E-04    0.4359193140E+00    0.5656223133E+00
    0.3100000000E+07    0.2447901904E+00    0.1195905362E+00    0.3578658542E-04    0.4359433850E+00    0.5656861928E+00
    0.3300000000E+07    0.2447750276E+00    0.1195335515E+00    0.3460390291E-04    0.4359656724E+00    0.5657459606E+00
    0.3500000000E+07    0.2447606258E+00    0.1194799194E+00    0.3352660549E-04    0.4359864167E+00    0.5658021120E+00
    0.3700000000E+07    0.2447469139E+00    0.1194292680E+00    0.3254004026E-04    0.4360058133E+00    0.5658550576E+00
    0.3900000000E+07    0.2447338302E+00    0.1193812842E+00    0.3163224753E-04    0.4360240233E+00    0.5659051424E+00
    0.4100000000E+07    0.2447213205E+00    0.1193357015E+00    0.3079335714E-04    0.4360411808E+00    0.5659526584E+00
    0.4300000000E+07    0.2447093374E+00    0.1192922915E+00    0.3001514215E-04    0.4360573987E+00    0.5659978551E+00
    0.4500000000E+07    0.2446978389E+00    0.1192508569E+00    0.2929068370E-04    0.4360727730E+00    0.5660409475E+00
    0.4700000000E+07    0.2446867877E+00    0.1192112261E+00    0.2861411564E-04    0.4360873857E+00    0.5660821220E+00
    0.4900000000E+07    0.2446761508E+00    0.1191732490E+00    0.2798042758E-04    0.4361013076E+00    0.5661215414E+00
    0.1000000000E+07    0.2450258034E+00    0.1206197600E+00    0.6577485597E-04    0.4354719599E+00    0.5645789248E+00
    0.3000000000E+07    0.2447980822E+00    0.1196204218E+00    0.3642295980E-04    0.4359315896E+00    0.5656548018E+00
    0.5000000000E+07    0.2446709782E+00    0.1191548386E+00    0.2767829323E-04    0.4361080289E+00    0.5661406383E+00
    0.7000000000E+07    0.2445834917E+00    0.1188483120E+00    0.2310023305E-04    0.4362176092E+00    0.5664575002E+00
    0.9000000000E+07    0.2445167851E+00    0.1186195222E+00    0.2018234232E-04    0.4362970478E+00    0.5666928583E+00
    0.1100000000E+08    0.2444628719E+00    0.1184369616E+00    0.1811951419E-04    0.4363593280E+00    0.5668800912E+00
    0.1300000000E+08    0.2444176295E+00    0.1182850803E+00    0.1656405447E-04    0.4364105335E+00    0.5670355328E+00
    0.1500000000E+08    0.2443786522E+00    0.1181550526E+00    0.1533827155E-04    0.4364540017E+00    0.5671684020E+00
    0.1700000000E+08    0.2443444144E+00    0.1180413848E+00    0.1434075254E-04    0.4364917598E+00    0.5672844142E+00
    0.1900000000E+08    0.2443138874E+00    0.1179404243E+00    0.1350889055E-04    0.4365251313E+00    0.5673873579E+00
    0.2100000000E+08    0.2442863447E+00    0.1178496191E+00    0.1280169060E-04    0.4365550276E+00    0.5674798736E+00
    0.2300000000E+08    0.2442612544E+00    0.1177671160E+00    0.1219104822E-04    0.4365821031E+00    0.5675638753E+00
    0.2500000000E+08    0.2442382151E+00    0.1176915264E+00    0.1165697349E-04    0.4366068433E+00    0.5676407943E+00
    0.2700000000E+08    0.2442169166E+00    0.1176217834E+00    0.1118481194E-04    0.4366296183E+00    0.5677117294E+00
