  Pressure (Pa) 22mC5-400 (mol/kg) 3mC6-400 (mol/kg) 33mC5-400 (mol/kg) 23mC5-400 (mol/kg) C7-400 (mol/kg)
    0.1000000000E+01    0.5317994836E-03    0.2112167388E-02    0.6489429709E-03    0.2801337260E-03    0.3427401519E-02
    0.3000000000E+01    0.1589566024E-02    0.6225816645E-02    0.1915044270E-02    0.8373311808E-03    0.1010344052E-01
    0.5000000000E+01    0.2639638708E-02    0.1019830106E-01    0.3140560167E-02    0.1390478836E-02    0.1655147376E-01
    0.7000000000E+01    0.3682115282E-02    0.1403685762E-01    0.4327513420E-02    0.1939628133E-02    0.2278317224E-01
    0.9000000000E+01    0.4717091804E-02    0.1774823535E-01    0.5477789441E-02    0.2484829625E-02    0.2880942066E-01
    0.1100000000E+02    0.5744662674E-02    0.2133873582E-01    0.6593147840E-02    0.3026132993E-02    0.3464038260E-01
    0.1300000000E+02    0.6764920676E-02    0.2481424960E-01    0.7675232826E-02    0.3563587066E-02    0.4028555933E-01
    0.1500000000E+02    0.7777957007E-02    0.2818028933E-01    0.8725582594E-02    0.4097239842E-02    0.4575384297E-01
    0.1700000000E+02    0.8783861316E-02    0.3144201950E-01    0.9745637811E-02    0.4627138498E-02    0.5105356458E-01
    0.1900000000E+02    0.9782721733E-02    0.3460428360E-01    0.1073674930E-01    0.5153329418E-02    0.5619253776E-01
    0.2100000000E+02    0.1077462490E-01    0.3767162866E-01    0.1170018501E-01    0.5675858199E-02    0.6117809833E-01
    0.2300000000E+02    0.1175965601E-01    0.4064832764E-01    0.1263713635E-01    0.6194769676E-02    0.6601714028E-01
    0.2500000000E+02    0.1273789882E-01    0.4353839979E-01    0.1354872395E-01    0.6710107933E-02    0.7071614863E-01
    0.2700000000E+02    0.1370943572E-01    0.4634562921E-01    0.1443600289E-01    0.7221916320E-02    0.7528122935E-01
    0.2900000000E+02    0.1467434769E-01    0.4907358184E-01    0.1529996752E-01    0.7730237470E-02    0.7971813666E-01
    0.3100000000E+02    0.1563271441E-01    0.5172562096E-01    0.1614155580E-01    0.8235113310E-02    0.8403229812E-01
    0.3300000000E+02    0.1658461424E-01    0.5430492143E-01    0.1696165333E-01    0.8736585078E-02    0.8822883744E-01
    0.3500000000E+02    0.1753012424E-01    0.5681448269E-01    0.1776109700E-01    0.9234693338E-02    0.9231259553E-01
    0.3700000000E+02    0.1846932025E-01    0.5925714076E-01    0.1854067834E-01    0.9729477992E-02    0.9628814979E-01
    0.3900000000E+02    0.1940227683E-01    0.6163557920E-01    0.1930114661E-01    0.1022097829E-01    0.1001598318E+00
    0.4100000000E+02    0.2032906738E-01    0.6395233925E-01    0.2004321167E-01    0.1070923286E-01    0.1039317436E+00
    0.4300000000E+02    0.2124976409E-01    0.6620982919E-01    0.2076754654E-01    0.1119427970E-01    0.1076077729E+00
    0.4500000000E+02    0.2216443800E-01    0.6841033286E-01    0.2147478984E-01    0.1167615618E-01    0.1111916067E+00
    0.4700000000E+02    0.2307315901E-01    0.7055601769E-01    0.2216554798E-01    0.1215489910E-01    0.1146867441E+00
    0.4900000000E+02    0.2397599592E-01    0.7264894199E-01    0.2284039724E-01    0.1263054468E-01    0.1180965086E+00
    0.1000000000E+02    0.5231797109E-02    0.1955821785E-01    0.6039727990E-02    0.2755965503E-02    0.3174870373E-01
    0.3000000000E+02    0.1515434428E-01    0.5040888790E-01    0.1572350217E-01    0.7983103460E-02    0.8189023353E-01
    0.5000000000E+02    0.2442522903E-01    0.7367623401E-01    0.2317202835E-01    0.1286721711E-01    0.1197703690E+00
    0.7000000000E+02    0.3311694362E-01    0.9187934137E-01    0.2908935368E-01    0.1744645859E-01    0.1494553437E+00
    0.9000000000E+02    0.4129131370E-01    0.1065293289E+00    0.3390093486E-01    0.2175336684E-01    0.1733857192E+00
    0.1100000000E+03    0.4900139449E-01    0.1185881949E+00    0.3788107859E-01    0.2581586537E-01    0.1931160487E+00
    0.1300000000E+03    0.5629297722E-01    0.1286978277E+00    0.4121599030E-01    0.2965805496E-01    0.2096841707E+00
    0.1500000000E+03    0.6320579586E-01    0.1373031633E+00    0.4403746240E-01    0.3330084868E-01    0.2238098770E+00
    0.1700000000E+03    0.6977450144E-01    0.1447225034E+00    0.4644203452E-01    0.3676248455E-01    0.2360083793E+00
    0.1900000000E+03    0.7602945430E-01    0.1511896851E+00    0.4850247144E-01    0.4005894251E-01    0.2466583809E+00
    0.2100000000E+03    0.8199737277E-01    0.1568804336E+00    0.5027494752E-01    0.4320428576E-01    0.2560446268E+00
    0.2300000000E+03    0.8770186774E-01    0.1619294139E+00    0.5180371647E-01    0.4621094203E-01    0.2643854478E+00
    0.2500000000E+03    0.9316388566E-01    0.1664416025E+00    0.5312424757E-01    0.4908993679E-01    0.2718511340E+00
    0.2700000000E+03    0.9840207790E-01    0.1705000721E+00    0.5426539312E-01    0.5185108757E-01    0.2785765171E+00
    0.2900000000E+03    0.1034331103E+00    0.1741714437E+00    0.5525092450E-01    0.5450316687E-01    0.2846697858E+00
    0.3100000000E+03    0.1082719237E+00    0.1775097843E+00    0.5610064563E-01    0.5705403934E-01    0.2902187894E+00
    0.3300000000E+03    0.1129319549E+00    0.1805594440E+00    0.5683121598E-01    0.5951077789E-01    0.2952956287E+00
    0.3500000000E+03    0.1174253237E+00    0.1833571559E+00    0.5745677007E-01    0.6187976241E-01    0.2999600528E+00
    0.3700000000E+03    0.1217629935E+00    0.1859336111E+00    0.5798939106E-01    0.6416676397E-01    0.3042620112E+00
    0.3900000000E+03    0.1259549080E+00    0.1883146592E+00    0.5843947817E-01    0.6637701710E-01    0.3082435958E+00
    0.4100000000E+03    0.1300101099E+00    0.1905222312E+00    0.5881603525E-01    0.6851528189E-01    0.3119405373E+00
    0.4300000000E+03    0.1339368423E+00    0.1925750592E+00    0.5912690030E-01    0.7058589772E-01    0.3153833711E+00
    0.4500000000E+03    0.1377426375E+00    0.1944892425E+00    0.5937892974E-01    0.7259282971E-01    0.3185983547E+00
    0.4700000000E+03    0.1414343935E+00    0.1962786969E+00    0.5957814795E-01    0.7453970924E-01    0.3216081971E+00
    0.4900000000E+03    0.1450184415E+00    0.1979555151E+00    0.5972986957E-01    0.7642986919E-01    0.3244326422E+00
    0.1000000000E+03    0.4520137347E-01    0.1128368190E+00    0.3598172340E-01    0.2381357954E-01    0.1837017973E+00
    0.3000000000E+03    0.1058756717E+00    0.1758792708E+00    0.5569165452E-01    0.5579079458E-01    0.2875074900E+00
    0.5000000000E+03    0.1467719129E+00    0.1987550389E+00    0.5978941111E-01    0.7735464691E-01    0.3257808183E+00
    0.7000000000E+03    0.1773798847E+00    0.2108051133E+00    0.5938468948E-01    0.9350058968E-01    0.3462373825E+00
    0.9000000000E+03    0.2016986072E+00    0.2183150174E+00    0.5734157984E-01    0.1063339355E+00    0.3591619710E+00
    0.1100000000E+04    0.2217564129E+00    0.2234722623E+00    0.5470291497E-01    0.1169226072E+00    0.3681539934E+00
    0.1300000000E+04    0.2387206002E+00    0.2272457622E+00    0.5190679434E-01    0.1258812413E+00    0.3748162093E+00
    0.1500000000E+04    0.2533272099E+00    0.2301332438E+00    0.4914916316E-01    0.1335974304E+00    0.3799761606E+00
    0.1700000000E+04    0.2660731665E+00    0.2324176501E+00    0.4651785057E-01    0.1403328743E+00    0.3841066158E+00
    0.1900000000E+04    0.2773119164E+00    0.2342721765E+00    0.4404908981E-01    0.1462737301E+00    0.3874983661E+00
    0.2100000000E+04    0.2873052167E+00    0.2358090048E+00    0.4175357128E-01    0.1515578771E+00    0.3903406525E+00
    0.2300000000E+04    0.2962531638E+00    0.2371041160E+00    0.3962922673E-01    0.1562907269E+00    0.3927622422E+00
    0.2500000000E+04    0.3043126215E+00    0.2382108702E+00    0.3766778004E-01    0.1605549250E+00    0.3948539767E+00
    0.2700000000E+04    0.3116090825E+00    0.2391678816E+00    0.3585819705E-01    0.1644165968E+00    0.3966818861E+00
    0.2900000000E+04    0.3182446206E+00    0.2400038071E+00    0.3418852404E-01    0.1679295337E+00    0.3982951890E+00
    0.3100000000E+04    0.3243034088E+00    0.2407403774E+00    0.3264686134E-01    0.1711380989E+00    0.3997313683E+00
    0.3300000000E+04    0.3298556632E+00    0.2413943800E+00    0.3122186210E-01    0.1740793042E+00    0.4010195037E+00
    0.3500000000E+04    0.3349605356E+00    0.2419789960E+00    0.2990296713E-01    0.1767843327E+00    0.4021825231E+00
    0.3700000000E+04    0.3396682803E+00    0.2425047243E+00    0.2868049260E-01    0.1792796805E+00    0.4032387634E+00
    0.3900000000E+04    0.3440219100E+00    0.2429800333E+00    0.2754563671E-01    0.1815880278E+00    0.4042030759E+00
    0.4100000000E+04    0.3480584801E+00    0.2434118322E+00    0.2649044333E-01    0.1837289163E+00    0.4050876253E+00
    0.4300000000E+04    0.3518101005E+00    0.2438058152E+00    0.2550774425E-01    0.1857192812E+00    0.4059024772E+00
    0.4500000000E+04    0.3553047417E+00    0.2441667187E+00    0.2459109278E-01    0.1875738766E+00    0.4066560366E+00
    0.4700000000E+04    0.3585668852E+00    0.2444985159E+00    0.2373469561E-01    0.1893056173E+00    0.4073553810E+00
    0.4900000000E+04    0.3616180516E+00    0.2448045644E+00    0.2293334696E-01    0.1909258578E+00    0.4080065148E+00
    0.1000000000E+04    0.2121737430E+00    0.2211112556E+00    0.5606114211E-01    0.1118633729E+00    0.3640232428E+00
    0.3000000000E+04    0.3213414309E+00    0.2403833647E+00    0.3340241722E-01    0.1695693973E+00    0.3990334352E+00
    0.5000000000E+04    0.3630705426E+00    0.2449488430E+00    0.2255183444E-01    0.1916973440E+00    0.4083156355E+00
    0.7000000000E+04    0.3846520643E+00    0.2469949670E+00    0.1690048778E-01    0.2031775063E+00    0.4128929243E+00
    0.9000000000E+04    0.3976071260E+00    0.2481449494E+00    0.1354690813E-01    0.2100912834E+00    0.4157059217E+00
    0.1100000000E+05    0.4061539762E+00    0.2488731482E+00    0.1135980320E-01    0.2146678193E+00    0.4176475422E+00
    0.1300000000E+05    0.4121745492E+00    0.2493695423E+00    0.9832178208E-02    0.2179027254E+00    0.4190879160E+00
    0.1500000000E+05    0.4166245611E+00    0.2497251991E+00    0.8708927889E-02    0.2203021650E+00    0.4202102884E+00
    0.1700000000E+05    0.4200368331E+00    0.2499892420E+00    0.7849617609E-02    0.2221486394E+00    0.4211166075E+00
    0.1900000000E+05    0.4227302069E+00    0.2501904920E+00    0.7171287738E-02    0.2236113865E+00    0.4218685033E+00
    0.2100000000E+05    0.4249063891E+00    0.2503469588E+00    0.6622083829E-02    0.2247975900E+00    0.4225056277E+00
    0.2300000000E+05    0.4266988378E+00    0.2504704640E+00    0.6168065184E-02    0.2257782479E+00    0.4230547619E+00
    0.2500000000E+05    0.4281991777E+00    0.2505690788E+00    0.5786150008E-02    0.2266021593E+00    0.4235347126E+00
    0.2700000000E+05    0.4294722903E+00    0.2506484954E+00    0.5460127194E-02    0.2273039201E+00    0.4239591153E+00
    0.2900000000E+05    0.4305653439E+00    0.2507128382E+00    0.5178293829E-02    0.2279087104E+00    0.4243381235E+00
    0.3100000000E+05    0.4315134139E+00    0.2507651645E+00    0.4931998800E-02    0.2284352770E+00    0.4246794713E+00
    0.3300000000E+05    0.4323431005E+00    0.2508077859E+00    0.4714713570E-02    0.2288978538E+00    0.4249891652E+00
    0.3500000000E+05    0.4330749278E+00    0.2508424803E+00    0.4521421255E-02    0.2293074364E+00    0.4252719496E+00
    0.3700000000E+05    0.4337249745E+00    0.2508706356E+00    0.4348204266E-02    0.2296726493E+00    0.4255316277E+00
    0.3900000000E+05    0.4343060086E+00    0.2508933496E+00    0.4191959416E-02    0.2300003494E+00    0.4257712886E+00
    0.4100000000E+05    0.4348282935E+00    0.2509115011E+00    0.4050196948E-02    0.2302960554E+00    0.4259934704E+00
    0.4300000000E+05    0.4353001697E+00    0.2509258008E+00    0.3920896111E-02    0.2305642573E+00    0.4262002805E+00
    0.4500000000E+05    0.4357284825E+00    0.2509368289E+00    0.3802399597E-02    0.2308086450E+00    0.4263934852E+00
    0.4700000000E+05    0.4361189014E+00    0.2509450632E+00    0.3693335218E-02    0.2310322782E+00    0.4265745775E+00
    0.4900000000E+05    0.4364761603E+00    0.2509509004E+00    0.3592556969E-02    0.2312377150E+00    0.4267448291E+00
    0.1000000000E+05    0.4022827853E+00    0.2485464603E+00    0.1234770427E-01    0.2125930136E+00    0.4167560835E+00
    0.3000000000E+05    0.4310556734E+00    0.2507403443E+00    0.5051153450E-02    0.2281807937E+00    0.4245130954E+00
    0.5000000000E+05    0.4366436247E+00    0.2509530258E+00    0.3544967587E-02    0.2313342967E+00    0.4268262367E+00
    0.7000000000E+05    0.4389525628E+00    0.2509271442E+00    0.2858115675E-02    0.2326905073E+00    0.4280837752E+00
    0.9000000000E+05    0.4401982311E+00    0.2508429024E+00    0.2450674168E-02    0.2334518097E+00    0.4289188459E+00
    0.1100000000E+06    0.4409712468E+00    0.2507429297E+00    0.2174907257E-02    0.2339432429E+00    0.4295330616E+00
    0.1300000000E+06    0.4414944150E+00    0.2506406960E+00    0.1972906377E-02    0.2342891194E+00    0.4300137845E+00
    0.1500000000E+06    0.4418700454E+00    0.2505410001E+00    0.1816952151E-02    0.2345473025E+00    0.4304060401E+00
    0.1700000000E+06    0.4421515567E+00    0.2504455497E+00    0.1691954175E-02    0.2347484155E+00    0.4307358079E+00
    0.1900000000E+06    0.4423695012E+00    0.2503548306E+00    0.1588922511E-02    0.2349102100E+00    0.4310193231E+00
    0.2100000000E+06    0.4425425858E+00    0.2502688223E+00    0.1502131830E-02    0.2350437022E+00    0.4312673538E+00
    0.2300000000E+06    0.4426828894E+00    0.2501872964E+00    0.1427743355E-02    0.2351561006E+00    0.4314873793E+00
    0.2500000000E+06    0.4427985493E+00    0.2501099481E+00    0.1363075768E-02    0.2352523268E+00    0.4316847903E+00
    0.2700000000E+06    0.4428952422E+00    0.2500364562E+00    0.1306192816E-02    0.2353358599E+00    0.4318635903E+00
    0.2900000000E+06    0.4429770446E+00    0.2499665091E+00    0.1255657100E-02    0.2354092320E+00    0.4320268289E+00
    0.3100000000E+06    0.4430469575E+00    0.2498998166E+00    0.1210376402E-02    0.2354743317E+00    0.4321768785E+00
    0.3300000000E+06    0.4431072370E+00    0.2498361136E+00    0.1169504091E-02    0.2355325975E+00    0.4323156184E+00
    0.3500000000E+06    0.4431596108E+00    0.2497751601E+00    0.1132372507E-02    0.2355851460E+00    0.4324445614E+00
    0.3700000000E+06    0.4432054235E+00    0.2497167400E+00    0.1098447152E-02    0.2356328573E+00    0.4325649420E+00
    0.3900000000E+06    0.4432457363E+00    0.2496606593E+00    0.1067294427E-02    0.2356764354E+00    0.4326777795E+00
    0.4100000000E+06    0.4432813976E+00    0.2496067436E+00    0.1038558428E-02    0.2357164504E+00    0.4327839254E+00
    0.4300000000E+06    0.4433130935E+00    0.2495548359E+00    0.1011943938E-02    0.2357533693E+00    0.4328840973E+00
    0.4500000000E+06    0.4433413843E+00    0.2495047949E+00    0.9872037590E-03    0.2357875786E+00    0.4329789055E+00
    0.4700000000E+06    0.4433667318E+00    0.2494564931E+00    0.9641291263E-03    0.2358194009E+00    0.4330688730E+00
    0.4900000000E+06    0.4433895201E+00    0.2494098150E+00    0.9425423640E-03    0.2358491082E+00    0.4331544515E+00
    0.1000000000E+06    0.4406256366E+00    0.2507937225E+00    0.2301007237E-02    0.2337211501E+00    0.4292466597E+00
    0.3000000000E+06    0.4430133317E+00    0.2499327732E+00    0.1232417639E-02    0.2354427172E+00    0.4321033750E+00
    0.5000000000E+06    0.4434000572E+00    0.2493870518E+00    0.9322584811E-03    0.2358632422E+00    0.4331957195E+00
    0.7000000000E+06    0.4435326196E+00    0.2489961687E+00    0.7770295266E-03    0.2360761100E+00    0.4338636420E+00
    0.9000000000E+06    0.4435884787E+00    0.2486915570E+00    0.6785819548E-03    0.2362124604E+00    0.4343415628E+00
    0.1100000000E+07    0.4436128549E+00    0.2484418181E+00    0.6091591370E-03    0.2363107245E+00    0.4347123147E+00
    0.1300000000E+07    0.4436220430E+00    0.2482300715E+00    0.5568869155E-03    0.2363867041E+00    0.4350145034E+00
    0.1500000000E+07    0.4436231596E+00    0.2480462040E+00    0.5157300459E-03    0.2364482486E+00    0.4352691693E+00
    0.1700000000E+07    0.4436197212E+00    0.2478836769E+00    0.4822561637E-03    0.2364997646E+00    0.4354890128E+00
    0.1900000000E+07    0.4436136204E+00    0.2477380170E+00    0.4543514213E-03    0.2365439485E+00    0.4356822737E+00
    0.2100000000E+07    0.4436059413E+00    0.2476060285E+00    0.4306340689E-03    0.2365825592E+00    0.4358545950E+00
    0.2300000000E+07    0.4435973339E+00    0.2474853478E+00    0.4101580561E-03    0.2366168026E+00    0.4360100065E+00
    0.2500000000E+07    0.4435882020E+00    0.2473741776E+00    0.3922511432E-03    0.2366475383E+00    0.4361514840E+00
    0.2700000000E+07    0.4435788026E+00    0.2472711188E+00    0.3764208918E-03    0.2366753992E+00    0.4362812863E+00
    0.2900000000E+07    0.4435693026E+00    0.2471750607E+00    0.3622972888E-03    0.2367008640E+00    0.4364011675E+00
    0.3100000000E+07    0.4435598112E+00    0.2470851069E+00    0.3495962537E-03    0.2367243028E+00    0.4365125165E+00
    0.3300000000E+07    0.4435504002E+00    0.2470005234E+00    0.3380956066E-03    0.2367460073E+00    0.4366164511E+00
    0.3500000000E+07    0.4435411168E+00    0.2469207014E+00    0.3276187650E-03    0.2367662114E+00    0.4367138846E+00
    0.3700000000E+07    0.4435319913E+00    0.2468451302E+00    0.3180233941E-03    0.2367851052E+00    0.4368055722E+00
    0.3900000000E+07    0.4435230425E+00    0.2467733775E+00    0.3091933269E-03    0.2368028453E+00    0.4368921455E+00
    0.4100000000E+07    0.4435142814E+00    0.2467050740E+00    0.3010326960E-03    0.2368195622E+00    0.4369741380E+00
    0.4300000000E+07    0.4435057134E+00    0.2466399015E+00    0.2934615966E-03    0.2368353657E+00    0.4370520042E+00
    0.4500000000E+07    0.4434973404E+00    0.2465775840E+00    0.2864128288E-03    0.2368503490E+00    0.4371261347E+00
    0.4700000000E+07    0.4434891614E+00    0.2465178807E+00    0.2798294179E-03    0.2368645918E+00    0.4371968674E+00
    0.4900000000E+07    0.4434811737E+00    0.2464605799E+00    0.2736626997E-03    0.2368781628E+00    0.4372644966E+00
    0.1000000000E+07    0.4436032558E+00    0.2485610988E+00    0.6411839004E-03    0.2362650908E+00    0.4345373368E+00
    0.3000000000E+07    0.4435645506E+00    0.2471293700E+00    0.3557840667E-03    0.2367128169E+00    0.4364578332E+00
    0.5000000000E+07    0.4434772504E+00    0.2464327713E+00    0.2707222909E-03    0.2368847154E+00    0.4372972292E+00
    0.7000000000E+07    0.4434076009E+00    0.2459670170E+00    0.2261503372E-03    0.2369916020E+00    0.4378375993E+00
    0.9000000000E+07    0.4433512082E+00    0.2456163232E+00    0.1977210936E-03    0.2370691611E+00    0.4382359418E+00
    0.1100000000E+08    0.4433041034E+00    0.2453348446E+00    0.1776108464E-03    0.2371300130E+00    0.4385512184E+00
    0.1300000000E+08    0.4432637378E+00    0.2450996600E+00    0.1624393134E-03    0.2371800744E+00    0.4388119888E+00
    0.1500000000E+08    0.4432284531E+00    0.2448976432E+00    0.1504782486E-03    0.2372225924E+00    0.4390342535E+00
    0.1700000000E+08    0.4431971254E+00    0.2447205690E+00    0.1407409239E-03    0.2372595406E+00    0.4392278765E+00
    0.1900000000E+08    0.4431689625E+00    0.2445629397E+00    0.1326179771E-03    0.2372922082E+00    0.4393993665E+00
    0.2100000000E+08    0.4431433865E+00    0.2444208976E+00    0.1257102731E-03    0.2373214831E+00    0.4395532431E+00
    0.2300000000E+08    0.4431199638E+00    0.2442916313E+00    0.1197441041E-03    0.2373480032E+00    0.4396927720E+00
    0.2500000000E+08    0.4430983607E+00    0.2441730279E+00    0.1145247384E-03    0.2373722420E+00    0.4398203890E+00
    0.2700000000E+08    0.4430783155E+00    0.2440634594E+00    0.1099093856E-03    0.2373945606E+00    0.4399379593E+00
