  Pressure (Pa) 22mC5-400 (mol/kg) 3mC6-400 (mol/kg) 33mC5-400 (mol/kg) 23mC5-400 (mol/kg) C7-400 (mol/kg)
    0.1000000000E+01    0.5319011716E-03    0.2625611144E-02    0.4522708541E-03    0.2801872656E-03    0.6817088003E-02
    0.3000000000E+01    0.1590473008E-02    0.7656783040E-02    0.1323514609E-02    0.8378087171E-03    0.1988265353E-01
    0.5000000000E+01    0.2642135603E-02    0.1241457251E-01    0.2153414506E-02    0.1391793479E-02    0.3224171899E-01
    0.7000000000E+01    0.3686965646E-02    0.1692076531E-01    0.2945284053E-02    0.1942181911E-02    0.4395049660E-01
    0.9000000000E+01    0.4725038672E-02    0.2119488971E-01    0.3702083749E-02    0.2489013762E-02    0.5505937837E-01
    0.1100000000E+02    0.5756429079E-02    0.2525450163E-01    0.4426466582E-02    0.3032328185E-02    0.6561367075E-01
    0.1300000000E+02    0.6781210155E-02    0.2911542757E-01    0.5120816714E-02    0.3572163748E-02    0.7565422077E-01
    0.1500000000E+02    0.7799454093E-02    0.3279197250E-01    0.5787282511E-02    0.4108558443E-02    0.8521795179E-01
    0.1700000000E+02    0.8811232013E-02    0.3629709844E-01    0.6427804846E-02    0.4641549698E-02    0.9433832393E-01
    0.1900000000E+02    0.9816613985E-02    0.3964257857E-01    0.7044141455E-02    0.5171174386E-02    0.1030457310E+00
    0.2100000000E+02    0.1081566904E-01    0.4283913045E-01    0.7637887961E-02    0.5697468839E-02    0.1113678443E+00
    0.2300000000E+02    0.1180846521E-01    0.4589653182E-01    0.8210496085E-02    0.6220468852E-02    0.1193299108E+00
    0.2500000000E+02    0.1279506950E-01    0.4882372146E-01    0.8763289476E-02    0.6740209697E-02    0.1269550132E+00
    0.2700000000E+02    0.1377554797E-01    0.5162888730E-01    0.9297477511E-02    0.7256726133E-02    0.1342642973E+00
    0.2900000000E+02    0.1474996571E-01    0.5431954369E-01    0.9814167355E-02    0.7770052413E-02    0.1412771710E+00
    0.3100000000E+02    0.1571838686E-01    0.5690259932E-01    0.1031437454E-01    0.8280222294E-02    0.1480114796E+00
    0.3300000000E+02    0.1668087464E-01    0.5938441704E-01    0.1079903228E-01    0.8787269044E-02    0.1544836598E+00
    0.3500000000E+02    0.1763749136E-01    0.6177086677E-01    0.1126899964E-01    0.9291225457E-02    0.1607088766E+00
    0.3700000000E+02    0.1858829844E-01    0.6406737236E-01    0.1172506880E-01    0.9792123853E-02    0.1667011435E+00
    0.3900000000E+02    0.1953335642E-01    0.6627895321E-01    0.1216797147E-01    0.1028999609E-01    0.1724734303E+00
    0.4100000000E+02    0.2047272497E-01    0.6841026128E-01    0.1259838458E-01    0.1078487358E-01    0.1780377587E+00
    0.4300000000E+02    0.2140646293E-01    0.7046561416E-01    0.1301693534E-01    0.1127678729E-01    0.1834052869E+00
    0.4500000000E+02    0.2233462831E-01    0.7244902456E-01    0.1342420579E-01    0.1176576773E-01    0.1885863863E+00
    0.4700000000E+02    0.2325727829E-01    0.7436422685E-01    0.1382073681E-01    0.1225184501E-01    0.1935907099E+00
    0.4900000000E+02    0.2417446924E-01    0.7621470072E-01    0.1420703173E-01    0.1273504879E-01    0.1984272530E+00
    0.1000000000E+02    0.5241564597E-02    0.2325048263E-01    0.4068172375E-02    0.2761108228E-02    0.6040319746E-01
    0.3000000000E+02    0.1523492189E-01    0.5562411178E-01    0.1006627113E-01    0.8025529813E-02    0.1446780873E+00
    0.5000000000E+02    0.2463103500E-01    0.7711668758E-01    0.1439648850E-01    0.1297558228E-01    0.2007852518E+00
    0.7000000000E+02    0.3348892261E-01    0.9244122613E-01    0.1774673909E-01    0.1764232514E-01    0.2409029873E+00
    0.9000000000E+02    0.4185988051E-01    0.1039292880E+00    0.2045324726E-01    0.2205275401E-01    0.2710615565E+00
    0.1100000000E+03    0.4978870515E-01    0.1128670936E+00    0.2270188433E-01    0.2623044445E-01    0.2945906525E+00
    0.1300000000E+03    0.5731469259E-01    0.1200226795E+00    0.2460548909E-01    0.3019607755E-01    0.3134803480E+00
    0.1500000000E+03    0.6447245929E-01    0.1258831825E+00    0.2623781028E-01    0.3396787187E-01    0.3289940299E+00
    0.1700000000E+03    0.7129262064E-01    0.1307726260E+00    0.2764998855E-01    0.3756194043E-01    0.3419728223E+00
    0.1900000000E+03    0.7780235511E-01    0.1349149946E+00    0.2887922559E-01    0.4099258757E-01    0.3529986961E+00
    0.2100000000E+03    0.8402587577E-01    0.1384701239E+00    0.2995365345E-01    0.4427255711E-01    0.3624873294E+00
    0.2300000000E+03    0.8998482647E-01    0.1415551639E+00    0.3089522551E-01    0.4741324076E-01    0.3707436698E+00
    0.2500000000E+03    0.9569861620E-01    0.1442579574E+00    0.3172151687E-01    0.5042485411E-01    0.3779965891E+00
    0.2700000000E+03    0.1011847027E+00    0.1466456805E+00    0.3244689344E-01    0.5331658587E-01    0.3844212738E+00
    0.2900000000E+03    0.1064588340E+00    0.1487705926E+00    0.3308329959E-01    0.5609672494E-01    0.3901541364E+00
    0.3100000000E+03    0.1115352550E+00    0.1506739663E+00    0.3364080652E-01    0.5877276911E-01    0.3953030107E+00
    0.3300000000E+03    0.1164268844E+00    0.1523888360E+00    0.3412800524E-01    0.6135151837E-01    0.3999542861E+00
    0.3500000000E+03    0.1211454683E+00    0.1539419591E+00    0.3455229561E-01    0.6383915531E-01    0.4041780024E+00
    0.3700000000E+03    0.1257017114E+00    0.1553552426E+00    0.3492010389E-01    0.6624131464E-01    0.4080315559E+00
    0.3900000000E+03    0.1301053923E+00    0.1566467963E+00    0.3523704980E-01    0.6856314357E-01    0.4115624383E+00
    0.4100000000E+03    0.1343654630E+00    0.1578317230E+00    0.3550807721E-01    0.7080935426E-01    0.4148102929E+00
    0.4300000000E+03    0.1384901361E+00    0.1589227191E+00    0.3573755795E-01    0.7298426974E-01    0.4178084773E+00
    0.4500000000E+03    0.1424869612E+00    0.1599305364E+00    0.3592937553E-01    0.7509186404E-01    0.4205852660E+00
    0.4700000000E+03    0.1463628917E+00    0.1608643415E+00    0.3608699340E-01    0.7713579748E-01    0.4231647872E+00
    0.4900000000E+03    0.1501243443E+00    0.1617319979E+00    0.3621351132E-01    0.7911944775E-01    0.4255677589E+00
    0.1000000000E+03    0.4587698496E-01    0.1086604326E+00    0.2162655504E-01    0.2416933659E-01    0.2835083275E+00
    0.3000000000E+03    0.1090209217E+00    0.1497477401E+00    0.3337134762E-01    0.5744731854E-01    0.3927957379E+00
    0.5000000000E+03    0.1519640126E+00    0.1621431776E+00    0.3626598873E-01    0.8008965175E-01    0.4267087268E+00
    0.7000000000E+03    0.1839744780E+00    0.1681362830E+00    0.3622730648E-01    0.9697488439E-01    0.4435410659E+00
    0.9000000000E+03    0.2091934289E+00    0.1716647038E+00    0.3501445364E-01    0.1102830248E+00    0.4537040067E+00
    0.1100000000E+04    0.2297927816E+00    0.1739843437E+00    0.3333608140E-01    0.1211575487E+00    0.4605512558E+00
    0.1300000000E+04    0.2470467765E+00    0.1756214139E+00    0.3151047583E-01    0.1302693863E+00    0.4655013435E+00
    0.1500000000E+04    0.2617670477E+00    0.1768354459E+00    0.2968740711E-01    0.1380459330E+00    0.4692603587E+00
    0.1700000000E+04    0.2745036537E+00    0.1777693039E+00    0.2793735305E-01    0.1447768731E+00    0.4722204927E+00
    0.1900000000E+04    0.2856476085E+00    0.1785081339E+00    0.2629143808E-01    0.1506681538E+00    0.4746175640E+00
    0.2100000000E+04    0.2954874428E+00    0.1791058384E+00    0.2476066805E-01    0.1558717622E+00    0.4766021643E+00
    0.2300000000E+04    0.3042424708E+00    0.1795981987E+00    0.2334568811E-01    0.1605032384E+00    0.4782751221E+00
    0.2500000000E+04    0.3120834229E+00    0.1800098952E+00    0.2204191661E-01    0.1646525387E+00    0.4797065771E+00
    0.2700000000E+04    0.3191458283E+00    0.1803584989E+00    0.2084230946E-01    0.1683910806E+00    0.4809468846E+00
    0.2900000000E+04    0.3255390284E+00    0.1806568555E+00    0.1973886408E-01    0.1717764893E+00    0.4820331662E+00
    0.3100000000E+04    0.3313524464E+00    0.1809145719E+00    0.1872343374E-01    0.1748558985E+00    0.4829934114E+00
    0.3300000000E+04    0.3366600698E+00    0.1811389736E+00    0.1778815717E-01    0.1776683109E+00    0.4838491385E+00
    0.3500000000E+04    0.3415237315E+00    0.1813357429E+00    0.1692567098E-01    0.1802463257E+00    0.4846171734E+00
    0.3700000000E+04    0.3459955607E+00    0.1815093535E+00    0.1612919939E-01    0.1826174299E+00    0.4853108697E+00
    0.3900000000E+04    0.3501198477E+00    0.1816633749E+00    0.1539257508E-01    0.1848049797E+00    0.4859409662E+00
    0.4100000000E+04    0.3539344822E+00    0.1818006886E+00    0.1471022264E-01    0.1868289587E+00    0.4865162010E+00
    0.4300000000E+04    0.3574720806E+00    0.1819236458E+00    0.1407712260E-01    0.1887065710E+00    0.4870437597E+00
    0.4500000000E+04    0.3607608776E+00    0.1820341835E+00    0.1348876690E-01    0.1904527118E+00    0.4875296079E+00
    0.4700000000E+04    0.3638254409E+00    0.1821339112E+00    0.1294111163E-01    0.1920803428E+00    0.4879787411E+00
    0.4900000000E+04    0.3666872482E+00    0.1822241770E+00    0.1243053058E-01    0.1936007973E+00    0.4883953759E+00
    0.1000000000E+04    0.2199766448E+00    0.1729335814E+00    0.3420800378E-01    0.1159750434E+00    0.4574290463E+00
    0.3000000000E+04    0.3285132674E+00    0.1807902911E+00    0.1922064832E-01    0.1733518384E+00    0.4825275709E+00
    0.5000000000E+04    0.3680481028E+00    0.1822661243E+00    0.1218811305E-01    0.1943239914E+00    0.4885926480E+00
    0.7000000000E+04    0.3881717431E+00    0.1828091663E+00    0.8656118497E-02    0.2050356149E+00    0.4914737330E+00
    0.9000000000E+04    0.4001934139E+00    0.1830537029E+00    0.6627287318E-02    0.2114571006E+00    0.4932067984E+00
    0.1100000000E+05    0.4081205191E+00    0.1831705360E+00    0.5342290181E-02    0.2157066473E+00    0.4943868169E+00
    0.1300000000E+05    0.4137119740E+00    0.1832235284E+00    0.4468479398E-02    0.2187150739E+00    0.4952542853E+00
    0.1500000000E+05    0.4178535635E+00    0.1832414018E+00    0.3841715654E-02    0.2209516921E+00    0.4959260827E+00
    0.1700000000E+05    0.4210370430E+00    0.1832387163E+00    0.3373191900E-02    0.2226773555E+00    0.4964663028E+00
    0.1900000000E+05    0.4235561260E+00    0.1832234983E+00    0.3011268309E-02    0.2240480513E+00    0.4969132436E+00
    0.2100000000E+05    0.4255965254E+00    0.1832004534E+00    0.2724137667E-02    0.2251625278E+00    0.4972913110E+00
    0.2300000000E+05    0.4272811541E+00    0.1831724725E+00    0.2491267424E-02    0.2260862201E+00    0.4976168574E+00
    0.2500000000E+05    0.4286944651E+00    0.1831413964E+00    0.2298877192E-02    0.2268641430E+00    0.4979012879E+00
    0.2700000000E+05    0.4298963280E+00    0.1831084303E+00    0.2137410157E-02    0.2275282477E+00    0.4981528243E+00
    0.2900000000E+05    0.4309303242E+00    0.1830743807E+00    0.2000050641E-02    0.2281018210E+00    0.4983775581E+00
    0.3100000000E+05    0.4318289073E+00    0.1830397955E+00    0.1881819157E-02    0.2286022258E+00    0.4985801092E+00
    0.3300000000E+05    0.4326167255E+00    0.1830050515E+00    0.1779000420E-02    0.2290426654E+00    0.4987640521E+00
    0.3500000000E+05    0.4333128248E+00    0.1829704090E+00    0.1688770677E-02    0.2294333550E+00    0.4989322012E+00
    0.3700000000E+05    0.4339321481E+00    0.1829360484E+00    0.1608948344E-02    0.2297823192E+00    0.4990868060E+00
    0.3900000000E+05    0.4344865793E+00    0.1829020938E+00    0.1537823188E-02    0.2300959481E+00    0.4992296888E+00
    0.4100000000E+05    0.4349856844E+00    0.1828686296E+00    0.1474036809E-02    0.2303793920E+00    0.4993623440E+00
    0.4300000000E+05    0.4354372483E+00    0.1828357117E+00    0.1416497444E-02    0.2306368476E+00    0.4994860097E+00
    0.4500000000E+05    0.4358476692E+00    0.1828033755E+00    0.1364318181E-02    0.2308717684E+00    0.4996017221E+00
    0.4700000000E+05    0.4362222532E+00    0.1827716417E+00    0.1316771463E-02    0.2310870221E+00    0.4997103555E+00
    0.4900000000E+05    0.4365654367E+00    0.1827405200E+00    0.1273255118E-02    0.2312850096E+00    0.4998126539E+00
    0.1000000000E+05    0.4045293157E+00    0.1831228477E+00    0.5918306209E-02    0.2137795817E+00    0.4938466190E+00
    0.3000000000E+05    0.4313948490E+00    0.1830571282E+00    0.1938800618E-02    0.2283602628E+00    0.4984813624E+00
    0.5000000000E+05    0.4367264447E+00    0.1827251896E+00    0.1252847984E-02    0.2313781740E+00    0.4998616303E+00
    0.7000000000E+05    0.4389568020E+00    0.1824490198E+00    0.9690218102E-03    0.2326927734E+00    0.5006243979E+00
    0.9000000000E+05    0.4401698649E+00    0.1822211103E+00    0.8106859135E-03    0.2334367911E+00    0.5011392833E+00
    0.1100000000E+06    0.4409271546E+00    0.1820285278E+00    0.7079391453E-03    0.2339198776E+00    0.5015235936E+00
    0.1300000000E+06    0.4414421111E+00    0.1818621817E+00    0.6349387776E-03    0.2342613889E+00    0.5018282888E+00
    0.1500000000E+06    0.4418133066E+00    0.1817159162E+00    0.5798630458E-03    0.2345172098E+00    0.5020797571E+00
    0.1700000000E+06    0.4420924446E+00    0.1815854587E+00    0.5365055524E-03    0.2347170545E+00    0.5022933099E+00
    0.1900000000E+06    0.4423092078E+00    0.1814677481E+00    0.5012770831E-03    0.2348782138E+00    0.5024785721E+00
    0.2100000000E+06    0.4424818294E+00    0.1813605248E+00    0.4719476404E-03    0.2350114526E+00    0.5026419657E+00
    0.2300000000E+06    0.4426221147E+00    0.1812620771E+00    0.4470529408E-03    0.2351238343E+00    0.5027879779E+00
    0.2500000000E+06    0.4427380366E+00    0.1811710784E+00    0.4255883144E-03    0.2352201931E+00    0.5029198606E+00
    0.2700000000E+06    0.4428351689E+00    0.1810864810E+00    0.4068393711E-03    0.2353039538E+00    0.5030400430E+00
    0.2900000000E+06    0.4429175227E+00    0.1810074430E+00    0.3902828654E-03    0.2353776132E+00    0.5031503847E+00
    0.3100000000E+06    0.4429880557E+00    0.1809332781E+00    0.3755258783E-03    0.2354430371E+00    0.5032523400E+00
    0.3300000000E+06    0.4430489954E+00    0.1808634195E+00    0.3622670127E-03    0.2355016489E+00    0.5033470665E+00
    0.3500000000E+06    0.4431020503E+00    0.1807973939E+00    0.3502707908E-03    0.2355545548E+00    0.5034355005E+00
    0.3700000000E+06    0.4431485516E+00    0.1807348017E+00    0.3393502693E-03    0.2356026279E+00    0.5035184091E+00
    0.3900000000E+06    0.4431895519E+00    0.1806753029E+00    0.3293549321E-03    0.2356465673E+00    0.5035964288E+00
    0.4100000000E+06    0.4432258935E+00    0.1806186056E+00    0.3201620721E-03    0.2356869401E+00    0.5036700933E+00
    0.4300000000E+06    0.4432582583E+00    0.1805644572E+00    0.3116705346E-03    0.2357242110E+00    0.5037398543E+00
    0.4500000000E+06    0.4432872040E+00    0.1805126380E+00    0.3037960955E-03    0.2357587651E+00    0.5038060971E+00
    0.4700000000E+06    0.4433131908E+00    0.1804629555E+00    0.2964679934E-03    0.2357909241E+00    0.5038691535E+00
    0.4900000000E+06    0.4433366017E+00    0.1804152399E+00    0.2896262898E-03    0.2358209594E+00    0.5039293108E+00
    0.1000000000E+06    0.4405880901E+00    0.1821210551E+00    0.7544776285E-03    0.2337012603E+00    0.5013437395E+00
    0.3000000000E+06    0.4429541134E+00    0.1809697893E+00    0.3827000650E-03    0.2354112570E+00    0.5032023324E+00
    0.5000000000E+06    0.4433474437E+00    0.1803920722E+00    0.2863715558E-03    0.2358352540E+00    0.5039583817E+00
    0.7000000000E+06    0.4434852382E+00    0.1800031565E+00    0.2375850282E-03    0.2360508808E+00    0.5044344638E+00
    0.9000000000E+06    0.4435450042E+00    0.1797094721E+00    0.2069457198E-03    0.2361892934E+00    0.5047814708E+00
    0.1100000000E+07    0.4435723995E+00    0.1794733920E+00    0.1854625874E-03    0.2362891517E+00    0.5050542069E+00
    0.1300000000E+07    0.4435840027E+00    0.1792759617E+00    0.1693472597E-03    0.2363664071E+00    0.5052787162E+00
    0.1500000000E+07    0.4435871066E+00    0.1791062783E+00    0.1566923904E-03    0.2364290014E+00    0.5054694068E+00
    0.1700000000E+07    0.4435853407E+00    0.1789574895E+00    0.1464202737E-03    0.2364814010E+00    0.5056350805E+00
    0.1900000000E+07    0.4435806731E+00    0.1788250059E+00    0.1378703490E-03    0.2365263421E+00    0.5057815050E+00
    0.2100000000E+07    0.4435742405E+00    0.1787056022E+00    0.1306123989E-03    0.2365656114E+00    0.5059126637E+00
    0.2300000000E+07    0.4435667307E+00    0.1785969253E+00    0.1243527091E-03    0.2366004347E+00    0.5060314222E+00
    0.2500000000E+07    0.4435585751E+00    0.1784972050E+00    0.1188830590E-03    0.2366316862E+00    0.5061399100E+00
    0.2700000000E+07    0.4435500521E+00    0.1784050763E+00    0.1140512135E-03    0.2366600101E+00    0.5062397528E+00
    0.2900000000E+07    0.4435413446E+00    0.1783194645E+00    0.1097429700E-03    0.2366858936E+00    0.5063322194E+00
    0.3100000000E+07    0.4435325746E+00    0.1782395082E+00    0.1058707698E-03    0.2367097134E+00    0.5064183190E+00
    0.3300000000E+07    0.4435238242E+00    0.1781645061E+00    0.1023662149E-03    0.2367317669E+00    0.5064988673E+00
    0.3500000000E+07    0.4435151488E+00    0.1780938801E+00    0.9917500095E-04    0.2367522920E+00    0.5065745332E+00
    0.3700000000E+07    0.4435065854E+00    0.1780271474E+00    0.9625339632E-04    0.2367714827E+00    0.5066458718E+00
    0.3900000000E+07    0.4434981585E+00    0.1779639014E+00    0.9356573830E-04    0.2367894984E+00    0.5067133487E+00
    0.4100000000E+07    0.4434898836E+00    0.1779037956E+00    0.9108261759E-04    0.2368064721E+00    0.5067773584E+00
    0.4300000000E+07    0.4434817703E+00    0.1778465331E+00    0.8877953782E-04    0.2368225156E+00    0.5068382381E+00
    0.4500000000E+07    0.4434738236E+00    0.1777918570E+00    0.8663590992E-04    0.2368377239E+00    0.5068962781E+00
    0.4700000000E+07    0.4434660456E+00    0.1777395439E+00    0.8463428702E-04    0.2368521783E+00    0.5069517303E+00
    0.4900000000E+07    0.4434584358E+00    0.1776893979E+00    0.8275977456E-04    0.2368659489E+00    0.5070048145E+00
    0.1000000000E+07    0.4435613809E+00    0.1795856780E+00    0.1953608967E-03    0.2362427684E+00    0.5049251095E+00
    0.3000000000E+07    0.4435369615E+00    0.1782788265E+00    0.1077570199E-03    0.2366980413E+00    0.5063760102E+00
    0.5000000000E+07    0.4434546936E+00    0.1776650829E+00    0.8186611278E-04    0.2368725970E+00    0.5070305298E+00
    0.7000000000E+07    0.4433878598E+00    0.1772597550E+00    0.6833050560E-04    0.2369809688E+00    0.5074570657E+00
    0.9000000000E+07    0.4433333396E+00    0.1769566627E+00    0.5970744961E-04    0.2370595147E+00    0.5077737253E+00
    0.1100000000E+08    0.4432876011E+00    0.1767145053E+00    0.5361240462E-04    0.2371210856E+00    0.5080255478E+00
    0.1300000000E+08    0.4432482916E+00    0.1765128500E+00    0.4901676425E-04    0.2371717021E+00    0.5082345598E+00
    0.1500000000E+08    0.4432138566E+00    0.1763400796E+00    0.4539517874E-04    0.2372146663E+00    0.5084131873E+00
    0.1700000000E+08    0.4431832327E+00    0.1761889534E+00    0.4244792950E-04    0.2372519837E+00    0.5085691306E+00
    0.1900000000E+08    0.4431556659E+00    0.1760546520E+00    0.3999002961E-04    0.2372849636E+00    0.5087074923E+00
    0.2100000000E+08    0.4431306037E+00    0.1759338056E+00    0.3790036787E-04    0.2373145074E+00    0.5088318275E+00
    0.2300000000E+08    0.4431076300E+00    0.1758239648E+00    0.3609592372E-04    0.2373412623E+00    0.5089447128E+00
    0.2500000000E+08    0.4430864241E+00    0.1757232935E+00    0.3451765070E-04    0.2373657084E+00    0.5090480745E+00
    0.2700000000E+08    0.4430667336E+00    0.1756303799E+00    0.3312226405E-04    0.2373882120E+00    0.5091433911E+00
