  Pressure (Pa) 22mC5-400 (mol/kg) 3mC6-400 (mol/kg) 33mC5-400 (mol/kg) 23mC5-400 (mol/kg) C7-400 (mol/kg)
    0.1000000000E+01    0.5316776587E-03    0.1578045422E-02    0.3233942839E-03    0.6534958465E-03    0.6828623602E-02
    0.3000000000E+01    0.1588476056E-02    0.4616912675E-02    0.9482420069E-03    0.1952435049E-02    0.1998103101E-01
    0.5000000000E+01    0.2636628764E-02    0.7508949424E-02    0.1545580339E-02    0.3240756537E-02    0.3250102894E-01
    0.7000000000E+01    0.3676250203E-02    0.1026457546E-01    0.2117326792E-02    0.4518600795E-02    0.4443342509E-01
    0.9000000000E+01    0.4707452749E-02    0.1289324673E-01    0.2665218451E-02    0.5786105804E-02    0.5581888554E-01
    0.1100000000E+02    0.5730346784E-02    0.1540356424E-01    0.3190832723E-02    0.7043407091E-02    0.6669440271E-01
    0.1300000000E+02    0.6745040733E-02    0.1780336858E-01    0.3695605306E-02    0.8290637783E-02    0.7709370117E-01
    0.1500000000E+02    0.7751641114E-02    0.2009982217E-01    0.4180845791E-02    0.9527928665E-02    0.8704759085E-01
    0.1700000000E+02    0.8750252573E-02    0.2229948099E-01    0.4647751259E-02    0.1075540822E-01    0.9658427544E-01
    0.1900000000E+02    0.9740977931E-02    0.2440835752E-01    0.5097418159E-02    0.1197320271E-01    0.1057296224E+00
    0.2100000000E+02    0.1072391822E-01    0.2643197585E-01    0.5530852726E-02    0.1318143616E-01    0.1145074000E+00
    0.2300000000E+02    0.1169917271E-01    0.2837542036E-01    0.5948980126E-02    0.1438023049E-01    0.1229394863E+00
    0.2500000000E+02    0.1266683899E-01    0.3024337859E-01    0.6352652526E-02    0.1556970549E-01    0.1310460533E+00
    0.2700000000E+02    0.1362701294E-01    0.3204017924E-01    0.6742656211E-02    0.1674997890E-01    0.1388457305E+00
    0.2900000000E+02    0.1457978881E-01    0.3376982587E-01    0.7119717894E-02    0.1792116645E-01    0.1463557492E+00
    0.3100000000E+02    0.1552525925E-01    0.3543602687E-01    0.7484510319E-02    0.1908338190E-01    0.1535920718E+00
    0.3300000000E+02    0.1646351535E-01    0.3704222221E-01    0.7837657234E-02    0.2023673707E-01    0.1605695062E+00
    0.3500000000E+02    0.1739464663E-01    0.3859160724E-01    0.8179737837E-02    0.2138134191E-01    0.1673018088E+00
    0.3700000000E+02    0.1831874114E-01    0.4008715414E-01    0.8511290741E-02    0.2251730451E-01    0.1738017759E+00
    0.3900000000E+02    0.1923588542E-01    0.4153163101E-01    0.8832817528E-02    0.2364473115E-01    0.1800813262E+00
    0.4100000000E+02    0.2014616460E-01    0.4292761914E-01    0.9144785931E-02    0.2476372634E-01    0.1861515751E+00
    0.4300000000E+02    0.2104966238E-01    0.4427752850E-01    0.9447632696E-02    0.2587439285E-01    0.1920229008E+00
    0.4500000000E+02    0.2194646107E-01    0.4558361172E-01    0.9741766163E-02    0.2697683175E-01    0.1977050050E+00
    0.4700000000E+02    0.2283664164E-01    0.4684797674E-01    0.1002756859E-01    0.2807114247E-01    0.2032069669E+00
    0.4900000000E+02    0.2372028372E-01    0.4807259825E-01    0.1030539824E-01    0.2915742276E-01    0.2085372924E+00
    0.1000000000E+02    0.5219931508E-02    0.1416269286E-01    0.2930717401E-02    0.6416023537E-02    0.6131820704E-01
    0.3000000000E+02    0.1505343148E-01    0.3461063608E-01    0.7303607686E-02    0.1850338865E-01    0.1500071712E+00
    0.5000000000E+02    0.2415967735E-01    0.4867058843E-01    0.1044142914E-01    0.2969758162E-01    0.2111406039E+00
    0.7000000000E+02    0.3262273290E-01    0.5893747943E-01    0.1281508139E-01    0.4010182089E-01    0.2558918645E+00
    0.9000000000E+02    0.4051393913E-01    0.6676728416E-01    0.1467217730E-01    0.4980370496E-01    0.2901043667E+00
    0.1100000000E+03    0.4789423243E-01    0.7293781773E-01    0.1615740413E-01    0.5887805819E-01    0.3171327567E+00
    0.1300000000E+03    0.5481597597E-01    0.7792732673E-01    0.1736236816E-01    0.6738917910E-01    0.3390413560E+00
    0.1500000000E+03    0.6132441903E-01    0.8204612131E-01    0.1834881208E-01    0.7539263191E-01    0.3571706954E+00
    0.1700000000E+03    0.6745886913E-01    0.8550438870E-01    0.1916046082E-01    0.8293668554E-01    0.3724295217E+00
    0.1900000000E+03    0.7325364066E-01    0.8844959146E-01    0.1982952599E-01    0.9006347822E-01    0.3854559141E+00
    0.2100000000E+03    0.7873882783E-01    0.9098826130E-01    0.2038050174E-01    0.9680996649E-01    0.3967112207E+00
    0.2300000000E+03    0.8394093874E-01    0.9319929240E-01    0.2083249734E-01    0.1032087036E+00    0.4065373833E+00
    0.2500000000E+03    0.8888341868E-01    0.9514236720E-01    0.2120073524E-01    0.1092884821E+00    0.4151932896E+00
    0.2700000000E+03    0.9358708449E-01    0.9686347501E-01    0.2149755105E-01    0.1150748669E+00    0.4228785946E+00
    0.2900000000E+03    0.9807048707E-01    0.9839863058E-01    0.2173308340E-01    0.1205906408E+00    0.4297497792E+00
    0.3100000000E+03    0.1023502156E+00    0.9977644235E-01    0.2191576419E-01    0.1258561775E+00    0.4359312475E+00
    0.3300000000E+03    0.1064411538E+00    0.1010199256E+00    0.2205267589E-01    0.1308897566E+00    0.4415231641E+00
    0.3500000000E+03    0.1103566973E+00    0.1021478073E+00    0.2214981779E-01    0.1357078302E+00    0.4466070979E+00
    0.3700000000E+03    0.1141089380E+00    0.1031754816E+00    0.2221230838E-01    0.1403252498E+00    0.4512501568E+00
    0.3900000000E+03    0.1177088225E+00    0.1041157210E+00    0.2224454193E-01    0.1447554599E+00    0.4555080649E+00
    0.4100000000E+03    0.1211662866E+00    0.1049792117E+00    0.2225031131E-01    0.1490106643E+00    0.4594274846E+00
    0.4300000000E+03    0.1244903725E+00    0.1057749642E+00    0.2223290576E-01    0.1531019691E+00    0.4630477914E+00
    0.4500000000E+03    0.1276893291E+00    0.1065106291E+00    0.2219518964E-01    0.1570395063E+00    0.4664024474E+00
    0.4700000000E+03    0.1307706994E+00    0.1071927452E+00    0.2213966640E-01    0.1608325409E+00    0.4695200745E+00
    0.4900000000E+03    0.1337413962E+00    0.1078269343E+00    0.2206853121E-01    0.1644895642E+00    0.4724253010E+00
    0.1000000000E+03    0.4426449495E-01    0.7002502538E-01    0.1545465480E-01    0.5441508051E-01    0.3043658216E+00
    0.3000000000E+03    0.1002348431E+00    0.9910565221E-01    0.2183055944E-01    0.1232535006E+00    0.4329199743E+00
    0.5000000000E+03    0.1351872467E+00    0.1081276013E+00    0.2202772169E-01    0.1662695339E+00    0.4738050377E+00
    0.7000000000E+03    0.1595916687E+00    0.1125175893E+00    0.2075400996E-01    0.1963224938E+00    0.4941693723E+00
    0.9000000000E+03    0.1777885959E+00    0.1151062039E+00    0.1914151682E-01    0.2187443579E+00    0.5064529028E+00
    0.1100000000E+04    0.1919537750E+00    0.1168076251E+00    0.1754466746E-01    0.2362083535E+00    0.5147085742E+00
    0.1300000000E+04    0.2033221701E+00    0.1180071488E+00    0.1607630170E-01    0.2502320974E+00    0.5206588931E+00
    0.1500000000E+04    0.2126577937E+00    0.1188954007E+00    0.1476399288E-01    0.2617546444E+00    0.5251630122E+00
    0.1700000000E+04    0.2204636915E+00    0.1195774943E+00    0.1360415552E-01    0.2713944126E+00    0.5286984512E+00
    0.1900000000E+04    0.2270869464E+00    0.1201161328E+00    0.1258253908E-01    0.2795781713E+00    0.5315522930E+00
    0.2100000000E+04    0.2327758865E+00    0.1205510269E+00    0.1168230596E-01    0.2866113215E+00    0.5339077509E+00
    0.2300000000E+04    0.2377134095E+00    0.1209085389E+00    0.1088718084E-01    0.2927188404E+00    0.5358873783E+00
    0.2500000000E+04    0.2420374581E+00    0.1212068495E+00    0.1018256284E-01    0.2980704404E+00    0.5375763304E+00
    0.2700000000E+04    0.2458541558E+00    0.1214588982E+00    0.9555787337E-02    0.3027967114E+00    0.5390356646E+00
    0.2900000000E+04    0.2492465379E+00    0.1216741407E+00    0.8996044411E-02    0.3069998522E+00    0.5403103304E+00
    0.3100000000E+04    0.2522805312E+00    0.1218596450E+00    0.8494174259E-02    0.3107610200E+00    0.5414341722E+00
    0.3300000000E+04    0.2550091527E+00    0.1220207976E+00    0.8042434811E-02    0.3141454923E+00    0.5424331722E+00
    0.3500000000E+04    0.2574755231E+00    0.1221617740E+00    0.7634280937E-02    0.3172063719E+00    0.5433276173E+00
    0.3700000000E+04    0.2597150707E+00    0.1222858595E+00    0.7264169368E-02    0.3199872964E+00    0.5441335850E+00
    0.3900000000E+04    0.2617571695E+00    0.1223956736E+00    0.6927392372E-02    0.3225244534E+00    0.5448639861E+00
    0.4100000000E+04    0.2636263758E+00    0.1224933293E+00    0.6619938549E-02    0.3248481006E+00    0.5455293114E+00
    0.4300000000E+04    0.2653433729E+00    0.1225805497E+00    0.6338377461E-02    0.3269837285E+00    0.5461381757E+00
    0.4500000000E+04    0.2669257026E+00    0.1226587530E+00    0.6079764424E-02    0.3289529599E+00    0.5466977215E+00
    0.4700000000E+04    0.2683883369E+00    0.1227291170E+00    0.5841562083E-02    0.3307742533E+00    0.5472139221E+00
    0.4900000000E+04    0.2697441291E+00    0.1227926273E+00    0.5621575766E-02    0.3324634583E+00    0.5476918127E+00
    0.1000000000E+04    0.1852833093E+00    0.1160370638E+00    0.1833104336E-01    0.2279832301E+00    0.5109470535E+00
    0.3000000000E+04    0.2508047571E+00    0.1217702405E+00    0.8738389651E-02    0.3089312799E+00    0.5408893256E+00
    0.5000000000E+04    0.2703854870E+00    0.1228220773E+00    0.5517808152E-02    0.3332628782E+00    0.5479177534E+00
    0.7000000000E+04    0.2796343991E+00    0.1231977838E+00    0.4048055174E-02    0.3448223667E+00    0.5511890305E+00
    0.9000000000E+04    0.2849740996E+00    0.1233598802E+00    0.3228091056E-02    0.3515351341E+00    0.5531245869E+00
    0.1100000000E+05    0.2884339282E+00    0.1234318304E+00    0.2709874706E-02    0.3559103839E+00    0.5544238499E+00
    0.1300000000E+05    0.2908507477E+00    0.1234593963E+00    0.2353784173E-02    0.3589849028E+00    0.5553669701E+00
    0.1500000000E+05    0.2926307079E+00    0.1234629746E+00    0.2094078696E-02    0.3612628541E+00    0.5560890487E+00
    0.1700000000E+05    0.2939941047E+00    0.1234528075E+00    0.1896079892E-02    0.3630182329E+00    0.5566636646E+00
    0.1900000000E+05    0.2950705223E+00    0.1234344837E+00    0.1739879841E-02    0.3644125278E+00    0.5571345082E+00
    0.2100000000E+05    0.2959410550E+00    0.1234112430E+00    0.1613277555E-02    0.3655469984E+00    0.5575292594E+00
    0.2300000000E+05    0.2966589940E+00    0.1233850508E+00    0.1508395938E-02    0.3664883192E+00    0.5578663623E+00
    0.2500000000E+05    0.2972607735E+00    0.1233571410E+00    0.1419929303E-02    0.3672821649E+00    0.5581586145E+00
    0.2700000000E+05    0.2977721319E+00    0.1233283082E+00    0.1344176057E-02    0.3679608661E+00    0.5584151952E+00
    0.2900000000E+05    0.2982117589E+00    0.1232990739E+00    0.1278476073E-02    0.3685479462E+00    0.5586428734E+00
    0.3100000000E+05    0.2985935482E+00    0.1232697842E+00    0.1220868685E-02    0.3690609271E+00    0.5588467592E+00
    0.3300000000E+05    0.2989280391E+00    0.1232406703E+00    0.1169876867E-02    0.3695131273E+00    0.5590307891E+00
    0.3500000000E+05    0.2992233692E+00    0.1232118863E+00    0.1124366549E-02    0.3699148505E+00    0.5591980493E+00
    0.3700000000E+05    0.2994859195E+00    0.1231835340E+00    0.1083452289E-02    0.3702741929E+00    0.5593509963E+00
    0.3900000000E+05    0.2997207633E+00    0.1231556787E+00    0.1046432446E-02    0.3705976043E+00    0.5594916126E+00
    0.4100000000E+05    0.2999319836E+00    0.1231283608E+00    0.1012743633E-02    0.3708902863E+00    0.5596215173E+00
    0.4300000000E+05    0.3001229034E+00    0.1231016029E+00    0.9819280799E-03    0.3711564802E+00    0.5597420473E+00
    0.4500000000E+05    0.3002962537E+00    0.1230754154E+00    0.9536098454E-03    0.3713996793E+00    0.5598543168E+00
    0.4700000000E+05    0.3004542995E+00    0.1230497995E+00    0.9274771838E-03    0.3716227867E+00    0.5599592632E+00
    0.4900000000E+05    0.3005989350E+00    0.1230247508E+00    0.9032692993E-03    0.3718282349E+00    0.5600576812E+00
    0.1000000000E+05    0.2868718436E+00    0.1234033641E+00    0.2942560048E-02    0.3539317948E+00    0.5538312014E+00
    0.3000000000E+05    0.2984091589E+00    0.1232844193E+00    0.1248762525E-02    0.3688127844E+00    0.5587475212E+00
    0.5000000000E+05    0.3006667327E+00    0.1230124365E+00    0.8918170481E-03    0.3719249914E+00    0.5601046581E+00
    0.7000000000E+05    0.3016000444E+00    0.1227927373E+00    0.7249125113E-03    0.3732964896E+00    0.5608240517E+00
    0.9000000000E+05    0.3020994611E+00    0.1226135852E+00    0.6243496988E-03    0.3740786660E+00    0.5612962273E+00
    0.1100000000E+06    0.3024052140E+00    0.1224632322E+00    0.5555910720E-03    0.3745892486E+00    0.5616414780E+00
    0.1300000000E+06    0.3026085907E+00    0.1223339511E+00    0.5048710609E-03    0.3749516221E+00    0.5619108827E+00
    0.1500000000E+06    0.3027516722E+00    0.1222206508E+00    0.4655147294E-03    0.3752238921E+00    0.5621304064E+00
    0.1700000000E+06    0.3028564642E+00    0.1221198519E+00    0.4338514268E-03    0.3754370958E+00    0.5623148828E+00
    0.1900000000E+06    0.3029355508E+00    0.1220290865E+00    0.4076768426E-03    0.3756093616E+00    0.5624735132E+00
    0.2100000000E+06    0.3029966265E+00    0.1219465460E+00    0.3855780494E-03    0.3757520107E+00    0.5626123666E+00
    0.2300000000E+06    0.3030446476E+00    0.1218708679E+00    0.3666026671E-03    0.3758724912E+00    0.5627356398E+00
    0.2500000000E+06    0.3030829424E+00    0.1218010006E+00    0.3500825443E-03    0.3759759121E+00    0.5628463474E+00
    0.2700000000E+06    0.3031138240E+00    0.1217361166E+00    0.3355334024E-03    0.3760658996E+00    0.5629467223E+00
    0.2900000000E+06    0.3031389460E+00    0.1216755528E+00    0.3225946008E-03    0.3761451023E+00    0.5630384618E+00
    0.3100000000E+06    0.3031595199E+00    0.1216187702E+00    0.3109913629E-03    0.3762155020E+00    0.5631228841E+00
    0.3300000000E+06    0.3031764515E+00    0.1215653243E+00    0.3005101991E-03    0.3762786128E+00    0.5632010320E+00
    0.3500000000E+06    0.3031904308E+00    0.1215148449E+00    0.2909824068E-03    0.3763356128E+00    0.5632737443E+00
    0.3700000000E+06    0.3032019911E+00    0.1214670199E+00    0.2822726891E-03    0.3763874328E+00    0.5633417045E+00
    0.3900000000E+06    0.3032115511E+00    0.1214215840E+00    0.2742711164E-03    0.3764348190E+00    0.5634054772E+00
    0.4100000000E+06    0.3032194428E+00    0.1213783098E+00    0.2668873305E-03    0.3764783769E+00    0.5634655334E+00
    0.4300000000E+06    0.3032259332E+00    0.1213370009E+00    0.2600462874E-03    0.3765186034E+00    0.5635222702E+00
    0.4500000000E+06    0.3032312384E+00    0.1212974864E+00    0.2536850790E-03    0.3765559104E+00    0.5635760251E+00
    0.4700000000E+06    0.3032355356E+00    0.1212596170E+00    0.2477505247E-03    0.3765906425E+00    0.5636270876E+00
    0.4900000000E+06    0.3032389708E+00    0.1212232610E+00    0.2421973222E-03    0.3766230900E+00    0.5636757072E+00
    0.1000000000E+06    0.3022691048E+00    0.1225353693E+00    0.5871021984E-03    0.3743579055E+00    0.5614806660E+00
    0.3000000000E+06    0.3031497389E+00    0.1216467186E+00    0.3166405920E-03    0.3761812987E+00    0.5630815169E+00
    0.5000000000E+06    0.3032404038E+00    0.1212056136E+00    0.2395513646E-03    0.3766385358E+00    0.5636991699E+00
    0.7000000000E+06    0.3032446598E+00    0.1209098103E+00    0.1995848896E-03    0.3768717534E+00    0.5640805695E+00
    0.9000000000E+06    0.3032280152E+00    0.1206869347E+00    0.1742198549E-03    0.3770216548E+00    0.5643555247E+00
    0.1100000000E+07    0.3032053661E+00    0.1205080450E+00    0.1563299747E-03    0.3771298798E+00    0.5645700703E+00
    0.1300000000E+07    0.3031813467E+00    0.1203586099E+00    0.1428601753E-03    0.3772136452E+00    0.5647457599E+00
    0.1500000000E+07    0.3031576178E+00    0.1202302893E+00    0.1322559556E-03    0.3772815343E+00    0.5648943924E+00
    0.1700000000E+07    0.3031347951E+00    0.1201178506E+00    0.1236326963E-03    0.3773383782E+00    0.5650231185E+00
    0.1900000000E+07    0.3031130835E+00    0.1200177937E+00    0.1164454064E-03    0.3773871387E+00    0.5651365950E+00
    0.2100000000E+07    0.3030925160E+00    0.1199276616E+00    0.1103377734E-03    0.3774297506E+00    0.5652380215E+00
    0.2300000000E+07    0.3030730532E+00    0.1198456632E+00    0.1050658139E-03    0.3774675416E+00    0.5653296898E+00
    0.2500000000E+07    0.3030546269E+00    0.1197704525E+00    0.1004561523E-03    0.3775014593E+00    0.5654132970E+00
    0.2700000000E+07    0.3030371598E+00    0.1197009919E+00    0.9638178522E-04    0.3775322015E+00    0.5654901345E+00
    0.2900000000E+07    0.3030205751E+00    0.1196364652E+00    0.9274728640E-04    0.3775602966E+00    0.5655612075E+00
    0.3100000000E+07    0.3030048000E+00    0.1195762184E+00    0.8947939506E-04    0.3775861530E+00    0.5656273136E+00
    0.3300000000E+07    0.3029897675E+00    0.1195197195E+00    0.8652081732E-04    0.3776100929E+00    0.5656890961E+00
    0.3500000000E+07    0.3029754167E+00    0.1194665299E+00    0.8382602074E-04    0.3776323747E+00    0.5657470813E+00
    0.3700000000E+07    0.3029616929E+00    0.1194162837E+00    0.8135830662E-04    0.3776532085E+00    0.5658017055E+00
    0.3900000000E+07    0.3029485468E+00    0.1193686727E+00    0.7908772560E-04    0.3776727674E+00    0.5658533339E+00
    0.4100000000E+07    0.3029359341E+00    0.1193234343E+00    0.7698956394E-04    0.3776911955E+00    0.5659022755E+00
    0.4300000000E+07    0.3029238150E+00    0.1192803438E+00    0.7504322457E-04    0.3777086142E+00    0.5659487941E+00
    0.4500000000E+07    0.3029121538E+00    0.1192392065E+00    0.7323138697E-04    0.3777251265E+00    0.5659931164E+00
    0.4700000000E+07    0.3029009183E+00    0.1191998534E+00    0.7153936728E-04    0.3777408206E+00    0.5660354389E+00
    0.4900000000E+07    0.3028900793E+00    0.1191621362E+00    0.6995462463E-04    0.3777557725E+00    0.5660759331E+00
    0.1000000000E+07    0.3032170418E+00    0.1205931014E+00    0.1645826534E-03    0.3770796030E+00    0.5644686770E+00
    0.3000000000E+07    0.3030125907E+00    0.1196058425E+00    0.9107141301E-04    0.3775734827E+00    0.5655948381E+00
    0.5000000000E+07    0.3028848001E+00    0.1191438498E+00    0.6919905256E-04    0.3777629911E+00    0.5660955423E+00
    0.7000000000E+07    0.3027948047E+00    0.1188392007E+00    0.5775124390E-04    0.3778806709E+00    0.5664201506E+00
    0.9000000000E+07    0.3027254747E+00    0.1186116067E+00    0.5045558703E-04    0.3779659733E+00    0.5666604288E+00
    0.1100000000E+08    0.3026691069E+00    0.1184298913E+00    0.4529814100E-04    0.3780328462E+00    0.5668511304E+00
    0.1300000000E+08    0.3026216195E+00    0.1182786473E+00    0.4140933468E-04    0.3780878248E+00    0.5670091815E+00
    0.1500000000E+08    0.3025805946E+00    0.1181491217E+00    0.3834481778E-04    0.3781344939E+00    0.5671441033E+00
    0.1700000000E+08    0.3025444830E+00    0.1180358627E+00    0.3585100734E-04    0.3781750309E+00    0.5672617830E+00
    0.1900000000E+08    0.3025122329E+00    0.1179352431E+00    0.3377136271E-04    0.3782108574E+00    0.5673661153E+00
    0.2100000000E+08    0.3024830975E+00    0.1178447279E+00    0.3200338472E-04    0.3782429521E+00    0.5674598101E+00
    0.2300000000E+08    0.3024565277E+00    0.1177624752E+00    0.3047680614E-04    0.3782720177E+00    0.5675448285E+00
    0.2500000000E+08    0.3024321079E+00    0.1176871048E+00    0.2914164890E-04    0.3782985759E+00    0.5676226360E+00
    0.2700000000E+08    0.3024095158E+00    0.1176175556E+00    0.2796127507E-04    0.3783230241E+00    0.5676943557E+00
