  Pressure (Pa) 22mC5-400 (mol/kg) 3mC6-400 (mol/kg) 33mC5-400 (mol/kg) 23mC5-400 (mol/kg) C7-400 (mol/kg)
    0.1000000000E+01    0.5319643938E-03    0.3662190062E-02    0.1932551147E-03    0.3736274250E-03    0.8489837614E-02
    0.3000000000E+01    0.1591036393E-02    0.1060405080E-01    0.5623919590E-03    0.1117473986E-02    0.2458699210E-01
    0.5000000000E+01    0.2643685149E-02    0.1707879009E-01    0.9103569200E-03    0.1856812978E-02    0.3960628481E-01
    0.7000000000E+01    0.3689972909E-02    0.2313202683E-01    0.1239259633E-02    0.2591688072E-02    0.5365281171E-01
    0.9000000000E+01    0.4729961106E-02    0.2880362668E-01    0.1550934610E-02    0.3322142371E-02    0.6681842497E-01
    0.1100000000E+02    0.5763710374E-02    0.3412858125E-01    0.1846984214E-02    0.4048218416E-02    0.7918375592E-01
    0.1300000000E+02    0.6791280561E-02    0.3913773086E-01    0.2128813885E-02    0.4769958196E-02    0.9081987817E-01
    0.1500000000E+02    0.7812730740E-02    0.4385836240E-01    0.2397661184E-02    0.5487403156E-02    0.1017896834E+00
    0.1700000000E+02    0.8828119222E-02    0.4831470681E-01    0.2654619888E-02    0.6200594209E-02    0.1121490261E+00
    0.1900000000E+02    0.9837503570E-02    0.5252835519E-01    0.2900660089E-02    0.6909571738E-02    0.1219476814E+00
    0.2100000000E+02    0.1084094061E-01    0.5651860878E-01    0.3136645033E-02    0.7614375614E-02    0.1312301506E+00
    0.2300000000E+02    0.1183848643E-01    0.6030277468E-01    0.3363345310E-02    0.8315045194E-02    0.1400363418E+00
    0.2500000000E+02    0.1283019643E-01    0.6389641693E-01    0.3581450863E-02    0.9011619336E-02    0.1484021479E+00
    0.2700000000E+02    0.1381612529E-01    0.6731357051E-01    0.3791581187E-02    0.9704136406E-02    0.1563599393E+00
    0.2900000000E+02    0.1479632699E-01    0.7056692469E-01    0.3994294041E-02    0.1039263428E-01    0.1639389858E+00
    0.3100000000E+02    0.1577085484E-01    0.7366798047E-01    0.4190092900E-02    0.1107715037E-01    0.1711658194E+00
    0.3300000000E+02    0.1673976148E-01    0.7662718658E-01    0.4379433373E-02    0.1175772159E-01    0.1780645474E+00
    0.3500000000E+02    0.1770309889E-01    0.7945405705E-01    0.4562728737E-02    0.1243438443E-01    0.1846571230E+00
    0.3700000000E+02    0.1866091841E-01    0.8215727353E-01    0.4740354723E-02    0.1310717488E-01    0.1909635811E+00
    0.3900000000E+02    0.1961327070E-01    0.8474477434E-01    0.4912653684E-02    0.1377612852E-01    0.1970022430E+00
    0.4100000000E+02    0.2056020585E-01    0.8722383237E-01    0.5079938212E-02    0.1444128047E-01    0.2027898964E+00
    0.4300000000E+02    0.2150177329E-01    0.8960112337E-01    0.5242494311E-02    0.1510266541E-01    0.2083419524E+00
    0.4500000000E+02    0.2243802184E-01    0.9188278602E-01    0.5400584172E-02    0.1576031761E-01    0.2136725837E+00
    0.4700000000E+02    0.2336899974E-01    0.9407447489E-01    0.5554448606E-02    0.1641427091E-01    0.2187948470E+00
    0.4900000000E+02    0.2429475462E-01    0.9618140723E-01    0.5704309200E-02    0.1706455871E-01    0.2237207904E+00
    0.1000000000E+02    0.5247611847E-02    0.3150741736E-01    0.1700820495E-02    0.3685725038E-02    0.7309647699E-01
    0.3000000000E+02    0.1528429684E-01    0.7213581363E-01    0.4093028191E-02    0.1073538773E-01    0.1675948690E+00
    0.5000000000E+02    0.2475568816E-01    0.9720461081E-01    0.5777802514E-02    0.1738833839E-01    0.2261136552E+00
    0.7000000000E+02    0.3371134415E-01    0.1142147289E+00    0.7079467140E-02    0.2367934774E-01    0.2659644942E+00
    0.9000000000E+02    0.4219510212E-01    0.1265126551E+00    0.8138917398E-02    0.2963917296E-01    0.2948800498E+00
    0.1100000000E+03    0.5024587960E-01    0.1358169931E+00    0.9028123674E-02    0.3529511988E-01    0.3168361461E+00
    0.1300000000E+03    0.5789834538E-01    0.1431010740E+00    0.9788586574E-02    0.4067151362E-01    0.3340871380E+00
    0.1500000000E+03    0.6518348402E-01    0.1489574754E+00    0.1044662585E-01    0.4579009462E-01    0.3480071223E+00
    0.1700000000E+03    0.7212907311E-01    0.1537676423E+00    0.1102024897E-01    0.5067035344E-01    0.3594816547E+00
    0.1900000000E+03    0.7876008861E-01    0.1577882426E+00    0.1152254247E-01    0.5532981509E-01    0.3691073145E+00
    0.2100000000E+03    0.8509905034E-01    0.1611983378E+00    0.1196347993E-01    0.5978428140E-01    0.3773007933E+00
    0.2300000000E+03    0.9116631785E-01    0.1641266579E+00    0.1235095018E-01    0.6404803859E-01    0.3843620129E+00
    0.2500000000E+03    0.9698034461E-01    0.1666681260E+00    0.1269137572E-01    0.6813403557E-01    0.3905123956E+00
    0.2700000000E+03    0.1025578973E+00    0.1688942745E+00    0.1299010365E-01    0.7205403778E-01    0.3959190004E+00
    0.2900000000E+03    0.1079142455E+00    0.1708600316E+00    0.1325166396E-01    0.7581876029E-01    0.4007102642E+00
    0.3100000000E+03    0.1130633264E+00    0.1726082756E+00    0.1347994710E-01    0.7943798334E-01    0.4049865684E+00
    0.3300000000E+03    0.1180178884E+00    0.1741729672E+00    0.1367833050E-01    0.8292065308E-01    0.4088275142E+00
    0.3500000000E+03    0.1227896164E+00    0.1755813532E+00    0.1384977159E-01    0.8627496944E-01    0.4122970438E+00
    0.3700000000E+03    0.1273892417E+00    0.1768555474E+00    0.1399687820E-01    0.8950846323E-01    0.4154471166E+00
    0.3900000000E+03    0.1318266384E+00    0.1780136848E+00    0.1412196306E-01    0.9262806384E-01    0.4183203953E+00
    0.4100000000E+03    0.1361109083E+00    0.1790707778E+00    0.1422708696E-01    0.9564015884E-01    0.4209522403E+00
    0.4300000000E+03    0.1402504563E+00    0.1800393606E+00    0.1431409359E-01    0.9855064673E-01    0.4233722104E+00
    0.4500000000E+03    0.1442530567E+00    0.1809299796E+00    0.1438463805E-01    0.1013649835E+00    0.4256052082E+00
    0.4700000000E+03    0.1481259122E+00    0.1817515732E+00    0.1444021047E-01    0.1040882241E+00    0.4276723644E+00
    0.4900000000E+03    0.1518757063E+00    0.1825117659E+00    0.1448215597E-01    0.1067250591E+00    0.4295917267E+00
    0.1000000000E+03    0.4627235412E-01    0.1314663768E+00    0.8601732707E-02    0.3250354600E-01    0.3065598332E+00
    0.3000000000E+03    0.1105138712E+00    0.1717590407E+00    0.1336974329E-01    0.7764598165E-01    0.4029073926E+00
    0.5000000000E+03    0.1537064136E+00    0.1828709188E+00    0.1449840350E-01    0.1080124489E+00    0.4305009185E+00
    0.7000000000E+03    0.1851575650E+00    0.1880182505E+00    0.1434882366E-01    0.1301347675E+00    0.4437471811E+00
    0.9000000000E+03    0.2092776993E+00    0.1909596123E+00    0.1370062842E-01    0.1471084562E+00    0.4515841854E+00
    0.1100000000E+04    0.2284556390E+00    0.1928474090E+00    0.1287510070E-01    0.1606103946E+00    0.4567893990E+00
    0.1300000000E+04    0.2441141893E+00    0.1941522061E+00    0.1201362076E-01    0.1716394880E+00    0.4605117083E+00
    0.1500000000E+04    0.2571624307E+00    0.1951016473E+00    0.1117904089E-01    0.1808340640E+00    0.4633139581E+00
    0.1700000000E+04    0.2682131072E+00    0.1958191003E+00    0.1039785916E-01    0.1886244350E+00    0.4655049692E+00
    0.1900000000E+04    0.2776968234E+00    0.1963771247E+00    0.9679218963E-02    0.1953130475E+00    0.4672686000E+00
    0.2100000000E+04    0.2859264298E+00    0.1968211257E+00    0.9023941237E-02    0.2011196731E+00    0.4687212917E+00
    0.2300000000E+04    0.2931354661E+00    0.1971809330E+00    0.8428975045E-02    0.2062083940E+00    0.4699404544E+00
    0.2500000000E+04    0.2995022247E+00    0.1974769282E+00    0.7889635652E-02    0.2107044955E+00    0.4709796028E+00
    0.2700000000E+04    0.3051654178E+00    0.1977234951E+00    0.7400734492E-02    0.2147054646E+00    0.4718769448E+00
    0.2900000000E+04    0.3102347204E+00    0.1979310639E+00    0.6957139684E-02    0.2182883928E+00    0.4726605072E+00
    0.3100000000E+04    0.3147980690E+00    0.1981073747E+00    0.6554039320E-02    0.2215151006E+00    0.4733513269E+00
    0.3300000000E+04    0.3189268377E+00    0.1982582867E+00    0.6187048962E-02    0.2244357726E+00    0.4739655105E+00
    0.3500000000E+04    0.3226795870E+00    0.1983883127E+00    0.5852238309E-02    0.2270915899E+00    0.4745156043E+00
    0.3700000000E+04    0.3261048295E+00    0.1985009816E+00    0.5546117271E-02    0.2295166731E+00    0.4750115310E+00
    0.3900000000E+04    0.3292431034E+00    0.1985990908E+00    0.5265603159E-02    0.2317395380E+00    0.4754612438E+00
    0.4100000000E+04    0.3321285494E+00    0.1986848842E+00    0.5007980635E-02    0.2337842040E+00    0.4758711947E+00
    0.4300000000E+04    0.3347901259E+00    0.1987601814E+00    0.4770860535E-02    0.2356710475E+00    0.4762466743E+00
    0.4500000000E+04    0.3372525565E+00    0.1988264723E+00    0.4552140635E-02    0.2374174675E+00    0.4765920629E+00
    0.4700000000E+04    0.3395370759E+00    0.1988849876E+00    0.4349969758E-02    0.2390384102E+00    0.4769110197E+00
    0.4900000000E+04    0.3416620234E+00    0.1989367522E+00    0.4162715711E-02    0.2405467856E+00    0.4772066257E+00
    0.1000000000E+04    0.2193798281E+00    0.1919973983E+00    0.1329859873E-01    0.1542199503E+00    0.4544237700E+00
    0.3000000000E+04    0.3125748395E+00    0.1980227236E+00    0.6750812326E-02    0.2199428998E+00    0.4730164063E+00
    0.5000000000E+04    0.3426697162E+00    0.1989603772E+00    0.4074225291E-02    0.2412623220E+00    0.4773465047E+00
    0.7000000000E+04    0.3573882141E+00    0.1992287296E+00    0.2815299576E-02    0.2517352938E+00    0.4793843865E+00
    0.9000000000E+04    0.3660570953E+00    0.1993012661E+00    0.2118089663E-02    0.2579312039E+00    0.4806085800E+00
    0.1100000000E+05    0.3717484684E+00    0.1992979857E+00    0.1686568218E-02    0.2620172988E+00    0.4814439412E+00
    0.1300000000E+05    0.3757621244E+00    0.1992611806E+00    0.1397768895E-02    0.2649119205E+00    0.4820604984E+00
    0.1500000000E+05    0.3787399576E+00    0.1992087117E+00    0.1193041799E-02    0.2670692703E+00    0.4825403540E+00
    0.1700000000E+05    0.3810345536E+00    0.1991490184E+00    0.1041391502E-02    0.2687392110E+00    0.4829283396E+00
    0.1900000000E+05    0.3828553160E+00    0.1990863897E+00    0.9251023491E-03    0.2700703611E+00    0.4832511690E+00
    0.2100000000E+05    0.3843342885E+00    0.1990231066E+00    0.8334053241E-03    0.2711565767E+00    0.4835258359E+00
    0.2300000000E+05    0.3855587816E+00    0.1989604111E+00    0.7594208239E-03    0.2720600110E+00    0.4837637156E+00
    0.2500000000E+05    0.3865887963E+00    0.1988989794E+00    0.6985706372E-03    0.2728234412E+00    0.4839727390E+00
    0.2700000000E+05    0.3874669052E+00    0.1988391685E+00    0.6477020866E-03    0.2734772653E+00    0.4841586236E+00
    0.2900000000E+05    0.3882241394E+00    0.1987811502E+00    0.6045801964E-03    0.2740436738E+00    0.4843256075E+00
    0.3100000000E+05    0.3888836435E+00    0.1987249875E+00    0.5675805235E-03    0.2745392427E+00    0.4844769074E+00
    0.3300000000E+05    0.3894630268E+00    0.1986706792E+00    0.5354965021E-03    0.2749766027E+00    0.4846150146E+00
    0.3500000000E+05    0.3899759210E+00    0.1986181863E+00    0.5074147535E-03    0.2753655467E+00    0.4847418928E+00
    0.3700000000E+05    0.3904330415E+00    0.1985674487E+00    0.4826321328E-03    0.2757137842E+00    0.4848591138E+00
    0.3900000000E+05    0.3908429262E+00    0.1985183947E+00    0.4605991878E-03    0.2760274672E+00    0.4849679527E+00
    0.4100000000E+05    0.3912124606E+00    0.1984709475E+00    0.4408807775E-03    0.2763115650E+00    0.4850694567E+00
    0.4300000000E+05    0.3915472587E+00    0.1984250291E+00    0.4231281097E-03    0.2765701351E+00    0.4851644951E+00
    0.4500000000E+05    0.3918519427E+00    0.1983805623E+00    0.4070585369E-03    0.2768065234E+00    0.4852537963E+00
    0.4700000000E+05    0.3921303523E+00    0.1983374725E+00    0.3924407266E-03    0.2770235139E+00    0.4853379763E+00
    0.4900000000E+05    0.3923857038E+00    0.1982956884E+00    0.3790836205E-03    0.2772234418E+00    0.4854175603E+00
    0.1000000000E+05    0.3691712214E+00    0.1993055829E+00    0.1879016805E-02    0.2601647062E+00    0.4810611787E+00
    0.3000000000E+05    0.3885648986E+00    0.1987528359E+00    0.5853985733E-03    0.2742994464E+00    0.4844030479E+00
    0.5000000000E+05    0.3925055975E+00    0.1982752646E+00    0.3728270454E-03    0.2773176361E+00    0.4854557721E+00
    0.7000000000E+05    0.3941725430E+00    0.1979209308E+00    0.2863320970E-03    0.2786555070E+00    0.4860609014E+00
    0.9000000000E+05    0.3950835145E+00    0.1976418211E+00    0.2385536784E-03    0.2794209084E+00    0.4864812008E+00
    0.1100000000E+06    0.3956530754E+00    0.1974120577E+00    0.2077558701E-03    0.2799215861E+00    0.4868018153E+00
    0.1300000000E+06    0.3960402025E+00    0.1972169479E+00    0.1859801445E-03    0.2802774786E+00    0.4870604368E+00
    0.1500000000E+06    0.3963187628E+00    0.1970474579E+00    0.1696115235E-03    0.2805452033E+00    0.4872769116E+00
    0.1700000000E+06    0.3965276687E+00    0.1968976614E+00    0.1567626238E-03    0.2807550557E+00    0.4874629273E+00
    0.1900000000E+06    0.3966893300E+00    0.1967634686E+00    0.1463468498E-03    0.2809247550E+00    0.4876259283E+00
    0.2100000000E+06    0.3968175435E+00    0.1966419407E+00    0.1376916154E-03    0.2810653791E+00    0.4877709411E+00
    0.2300000000E+06    0.3969212571E+00    0.1965308963E+00    0.1303566778E-03    0.2811842233E+00    0.4879015149E+00
    0.2500000000E+06    0.3970065204E+00    0.1964286722E+00    0.1240408004E-03    0.2812862953E+00    0.4880202477E+00
    0.2700000000E+06    0.3970775662E+00    0.1963339715E+00    0.1185302889E-03    0.2813751523E+00    0.4881290965E+00
    0.2900000000E+06    0.3971374417E+00    0.1962457634E+00    0.1136689494E-03    0.2814533941E+00    0.4882295722E+00
    0.3100000000E+06    0.3971883944E+00    0.1961632154E+00    0.1093397065E-03    0.2815229669E+00    0.4883228649E+00
    0.3300000000E+06    0.3972321166E+00    0.1960856454E+00    0.1054529008E-03    0.2815853587E+00    0.4884099287E+00
    0.3500000000E+06    0.3972699062E+00    0.1960124873E+00    0.1019385847E-03    0.2816417274E+00    0.4884915398E+00
    0.3700000000E+06    0.3973027740E+00    0.1959432665E+00    0.9874130012E-04    0.2816929887E+00    0.4885683384E+00
    0.3900000000E+06    0.3973315189E+00    0.1958775812E+00    0.9581644826E-04    0.2817398767E+00    0.4886408583E+00
    0.4100000000E+06    0.3973567796E+00    0.1958150879E+00    0.9312770945E-04    0.2817829874E+00    0.4887095496E+00
    0.4300000000E+06    0.3973790729E+00    0.1957554908E+00    0.9064517259E-04    0.2818228100E+00    0.4887747949E+00
    0.4500000000E+06    0.3973988211E+00    0.1956985335E+00    0.8834395525E-04    0.2818597502E+00    0.4888369224E+00
    0.4700000000E+06    0.3974163722E+00    0.1956439923E+00    0.8620316950E-04    0.2818941475E+00    0.4888962155E+00
    0.4900000000E+06    0.3974320158E+00    0.1955916705E+00    0.8420513571E-04    0.2819262882E+00    0.4889529209E+00
    0.1000000000E+06    0.3953980409E+00    0.1975218660E+00    0.2216844508E-03    0.2796946230E+00    0.4866510090E+00
    0.3000000000E+06    0.3971639168E+00    0.1962038276E+00    0.1114439569E-03    0.2814891621E+00    0.4882770521E+00
    0.5000000000E+06    0.3974391996E+00    0.1955662868E+00    0.8325485131E-04    0.2819415899E+00    0.4889803717E+00
    0.7000000000E+06    0.3975250338E+00    0.1951419900E+00    0.6902669651E-04    0.2821727803E+00    0.4894341855E+00
    0.9000000000E+06    0.3975549151E+00    0.1948235389E+00    0.6010499951E-04    0.2823215115E+00    0.4897696916E+00
    0.1100000000E+07    0.3975625794E+00    0.1945685506E+00    0.5385501457E-04    0.2824289420E+00    0.4900359264E+00
    0.1300000000E+07    0.3975600057E+00    0.1943558981E+00    0.4916933059E-04    0.2825121128E+00    0.4902566273E+00
    0.1500000000E+07    0.3975523242E+00    0.1941735133E+00    0.4549125141E-04    0.2825795280E+00    0.4904451021E+00
    0.1700000000E+07    0.3975420085E+00    0.1940138496E+00    0.4250655789E-04    0.2826359774E+00    0.4906095643E+00
    0.1900000000E+07    0.3975303500E+00    0.1938718722E+00    0.4002280189E-04    0.2826843989E+00    0.4907554403E+00
    0.2100000000E+07    0.3975180615E+00    0.1937440540E+00    0.3791471586E-04    0.2827267129E+00    0.4908865032E+00
    0.2300000000E+07    0.3975055510E+00    0.1936278276E+00    0.3609681691E-04    0.2827642373E+00    0.4910054829E+00
    0.2500000000E+07    0.3974930573E+00    0.1935212662E+00    0.3450852621E-04    0.2827979132E+00    0.4911144180E+00
    0.2700000000E+07    0.3974807212E+00    0.1934228866E+00    0.3310556628E-04    0.2828284338E+00    0.4912148714E+00
    0.2900000000E+07    0.3974686250E+00    0.1933315229E+00    0.3185472951E-04    0.2828563239E+00    0.4913080675E+00
    0.3100000000E+07    0.3974568150E+00    0.1932462417E+00    0.3073056106E-04    0.2828819893E+00    0.4913949835E+00
    0.3300000000E+07    0.3974453152E+00    0.1931662844E+00    0.2971317994E-04    0.2829057502E+00    0.4914764115E+00
    0.3500000000E+07    0.3974341354E+00    0.1930910258E+00    0.2878680420E-04    0.2829278634E+00    0.4915530028E+00
    0.3700000000E+07    0.3974232766E+00    0.1930199449E+00    0.2793872613E-04    0.2829485376E+00    0.4916252994E+00
    0.3900000000E+07    0.3974127344E+00    0.1929526028E+00    0.2715858397E-04    0.2829679449E+00    0.4916937567E+00
    0.4100000000E+07    0.3974025005E+00    0.1928886261E+00    0.2643783376E-04    0.2829862286E+00    0.4917587615E+00
    0.4300000000E+07    0.3973925651E+00    0.1928276949E+00    0.2576935949E-04    0.2830035092E+00    0.4918206451E+00
    0.4500000000E+07    0.3973829169E+00    0.1927695327E+00    0.2514718067E-04    0.2830198893E+00    0.4918796931E+00
    0.4700000000E+07    0.3973735442E+00    0.1927138990E+00    0.2456622991E-04    0.2830354564E+00    0.4919361537E+00
    0.4900000000E+07    0.3973644353E+00    0.1926605835E+00    0.2402218138E-04    0.2830502861E+00    0.4919902439E+00
    0.1000000000E+07    0.3975605302E+00    0.1946897279E+00    0.5673415117E-04    0.2823790299E+00    0.4899096408E+00
    0.3000000000E+07    0.3974626823E+00    0.1932881730E+00    0.3127816498E-04    0.2828694129E+00    0.4913522572E+00
    0.5000000000E+07    0.3973599761E+00    0.1926347363E+00    0.2376281292E-04    0.2830574453E+00    0.4920164606E+00
    0.7000000000E+07    0.3972820312E+00    0.1922042739E+00    0.1983456859E-04    0.2831741151E+00    0.4924525694E+00
    0.9000000000E+07    0.3972200496E+00    0.1918828293E+00    0.1733217050E-04    0.2832586337E+00    0.4927777241E+00
    0.1100000000E+08    0.3971687480E+00    0.1916262390E+00    0.1556343006E-04    0.2833248605E+00    0.4930370430E+00
    0.1300000000E+08    0.3971250254E+00    0.1914127012E+00    0.1422980909E-04    0.2833792871E+00    0.4932527268E+00
    0.1500000000E+08    0.3970869429E+00    0.1912298386E+00    0.1317884550E-04    0.2834254729E+00    0.4934373532E+00
    0.1700000000E+08    0.3970532161E+00    0.1910699453E+00    0.1232356217E-04    0.2834655795E+00    0.4935987417E+00
    0.1900000000E+08    0.3970229523E+00    0.1909278969E+00    0.1161027833E-04    0.2835010173E+00    0.4937420873E+00
    0.2100000000E+08    0.3969955068E+00    0.1908001122E+00    0.1100384977E-04    0.2835327575E+00    0.4938710170E+00
    0.2300000000E+08    0.3969703994E+00    0.1906839902E+00    0.1048018578E-04    0.2835614970E+00    0.4939881639E+00
    0.2500000000E+08    0.3969472626E+00    0.1905775820E+00    0.1002215249E-04    0.2835877530E+00    0.4940954998E+00
    0.2700000000E+08    0.3969258093E+00    0.1904793894E+00    0.9617189754E-05    0.2836119196E+00    0.4941945397E+00
