  Pressure (Pa) 22mC5-400 (mol/kg) 3mC6-400 (mol/kg) 33mC5-400 (mol/kg) 23mC5-400 (mol/kg) C7-400 (mol/kg)
    0.1000000000E+01    0.5316395138E-03    0.2639381584E-02    0.2594401613E-03    0.7467988829E-03    0.3426333566E-02
    0.3000000000E+01    0.1588135082E-02    0.7775052478E-02    0.7648106307E-03    0.2230875991E-02    0.1009412590E-01
    0.5000000000E+01    0.2635688010E-02    0.1272843463E-01    0.1252940650E-02    0.3702401972E-02    0.1652638457E-01
    0.7000000000E+01    0.3674418716E-02    0.1750910336E-01    0.1724700530E-02    0.5161545796E-02    0.2273546218E-01
    0.9000000000E+01    0.4704445437E-02    0.2212597417E-01    0.2180900636E-02    0.6608473369E-02    0.2873286081E-01
    0.1100000000E+02    0.5725884278E-02    0.2658735868E-01    0.2622296518E-02    0.8043347607E-02    0.3452930407E-01
    0.1300000000E+02    0.6738849259E-02    0.3090101488E-01    0.3049593517E-02    0.9466328501E-02    0.4013480186E-01
    0.1500000000E+02    0.7743452362E-02    0.3507419248E-01    0.3463450929E-02    0.1087757318E-01    0.4555870883E-01
    0.1700000000E+02    0.8739803575E-02    0.3911367390E-01    0.3864485745E-02    0.1227723599E-01    0.5080977713E-01
    0.1900000000E+02    0.9728010938E-02    0.4302581133E-01    0.4253276042E-02    0.1366546851E-01    0.5589620424E-01
    0.2100000000E+02    0.1070818059E-01    0.4681656028E-01    0.4630364050E-02    0.1504241969E-01    0.6082567617E-01
    0.2300000000E+02    0.1168041678E-01    0.5049151015E-01    0.4996258931E-02    0.1640823583E-01    0.6560540683E-01
    0.2500000000E+02    0.1264482198E-01    0.5405591187E-01    0.5351439308E-02    0.1776306067E-01    0.7024217373E-01
    0.2700000000E+02    0.1360149684E-01    0.5751470320E-01    0.5696355559E-02    0.1910703548E-01    0.7474235049E-01
    0.2900000000E+02    0.1455054027E-01    0.6087253174E-01    0.6031431910E-02    0.2044029904E-01    0.7911193655E-01
    0.3100000000E+02    0.1549204948E-01    0.6413377592E-01    0.6357068346E-02    0.2176298777E-01    0.8335658422E-01
    0.3300000000E+02    0.1642612001E-01    0.6730256421E-01    0.6673642349E-02    0.2307523571E-01    0.8748162344E-01
    0.3500000000E+02    0.1735284575E-01    0.7038279275E-01    0.6981510499E-02    0.2437717463E-01    0.9149208451E-01
    0.3700000000E+02    0.1827231901E-01    0.7337814145E-01    0.7281009927E-02    0.2566893404E-01    0.9539271880E-01
    0.3900000000E+02    0.1918463052E-01    0.7629208880E-01    0.7572459660E-02    0.2695064127E-01    0.9918801789E-01
    0.4100000000E+02    0.2008986947E-01    0.7912792547E-01    0.7856161846E-02    0.2822242147E-01    0.1028822311E+00
    0.4300000000E+02    0.2098812357E-01    0.8188876680E-01    0.8132402888E-02    0.2948439771E-01    0.1064793815E+00
    0.4500000000E+02    0.2187947903E-01    0.8457756439E-01    0.8401454477E-02    0.3073669097E-01    0.1099832811E+00
    0.4700000000E+02    0.2276402064E-01    0.8719711665E-01    0.8663574559E-02    0.3197942024E-01    0.1133975441E+00
    0.4900000000E+02    0.2364183178E-01    0.8975007868E-01    0.8919008209E-02    0.3321270251E-01    0.1167255999E+00
    0.1000000000E+02    0.5216231168E-02    0.2437560492E-01    0.2403403895E-02    0.7327407087E-02    0.3165556023E-01
    0.3000000000E+02    0.1502223064E-01    0.6251496320E-01    0.6195406017E-02    0.2110295683E-01    0.8124953728E-01
    0.5000000000E+02    0.2407823910E-01    0.9100238112E-01    0.9044290894E-02    0.3382583705E-01    0.1183583241E+00
    0.7000000000E+02    0.3247234284E-01    0.1131019456E+00    0.1124988751E-01    0.4561965308E-01    0.1471968107E+00
    0.9000000000E+02    0.4027913074E-01    0.1307535060E+00    0.1299307357E-01    0.5658907256E-01    0.1702713898E+00
    0.1100000000E+03    0.4756218298E-01    0.1451826318E+00    0.1439050755E-01    0.6682331707E-01    0.1891664987E+00
    0.1300000000E+03    0.5437603103E-01    0.1572018228E+00    0.1552148963E-01    0.7639891185E-01    0.2049331703E+00
    0.1500000000E+03    0.6076771497E-01    0.1673711213E+00    0.1644224154E-01    0.8538187067E-01    0.2182962906E+00
    0.1700000000E+03    0.6677803102E-01    0.1760891720E+00    0.1719400609E-01    0.9382944617E-01    0.2297721463E+00
    0.1900000000E+03    0.7244253855E-01    0.1836475064E+00    0.1780789535E-01    0.1017915427E+00    0.2397385237E+00
    0.2100000000E+03    0.7779237888E-01    0.1902642900E+00    0.1830792750E-01    0.1093118653E+00    0.2484783031E+00
    0.2300000000E+03    0.8285494541E-01    0.1961060599E+00    0.1871300473E-01    0.1164288595E+00    0.2562075498E+00
    0.2500000000E+03    0.8765443554E-01    0.2013021629E+00    0.1903824540E-01    0.1231764863E+00    0.2630941767E+00
    0.2700000000E+03    0.9221230798E-01    0.2059546011E+00    0.1929590813E-01    0.1295848635E+00    0.2692706774E+00
    0.2900000000E+03    0.9654766372E-01    0.2101449052E+00    0.1949604933E-01    0.1356808003E+00    0.2748430171E+00
    0.3100000000E+03    0.1006775651E+00    0.2139390325E+00    0.1964700188E-01    0.1414882448E+00    0.2798969706E+00
    0.3300000000E+03    0.1046173045E+00    0.2173909215E+00    0.1975573047E-01    0.1470286615E+00    0.2845027242E+00
    0.3500000000E+03    0.1083806311E+00    0.2205451143E+00    0.1982810026E-01    0.1523213494E+00    0.2887182717E+00
    0.3700000000E+03    0.1119799445E+00    0.2234387212E+00    0.1986908301E-01    0.1573837129E+00    0.2925919586E+00
    0.3900000000E+03    0.1154264586E+00    0.2261029110E+00    0.1988291763E-01    0.1622314929E+00    0.2961644144E+00
    0.4100000000E+03    0.1187303429E+00    0.2285640565E+00    0.1987323668E-01    0.1668789646E+00    0.2994700369E+00
    0.4300000000E+03    0.1219008438E+00    0.2308446244E+00    0.1984316723E-01    0.1713391073E+00    0.3025381465E+00
    0.4500000000E+03    0.1249463893E+00    0.2329638741E+00    0.1979541205E-01    0.1756237518E+00    0.3053938925E+00
    0.4700000000E+03    0.1278746791E+00    0.2349384114E+00    0.1973231558E-01    0.1797437073E+00    0.3080589717E+00
    0.4900000000E+03    0.1306927641E+00    0.2367826310E+00    0.1965591795E-01    0.1837088715E+00    0.3105522030E+00
    0.1000000000E+03    0.4398252348E-01    0.1383127473E+00    0.1372938553E-01    0.6179303930E-01    0.1801662017E+00
    0.3000000000E+03    0.9863730180E-01    0.2120878726E+00    0.1957721033E-01    0.1386191883E+00    0.2774300848E+00
    0.5000000000E+03    0.1320625227E+00    0.2376598548E+00    0.1961329667E-01    0.1856362749E+00    0.3117395857E+00
    0.7000000000E+03    0.1549921251E+00    0.2506952756E+00    0.1839165888E-01    0.2179112121E+00    0.3295199669E+00
    0.9000000000E+03    0.1718339220E+00    0.2586093523E+00    0.1693230449E-01    0.2416323704E+00    0.3404882217E+00
    0.1100000000E+04    0.1847771607E+00    0.2639260935E+00    0.1552803122E-01    0.2598739826E+00    0.3479722853E+00
    0.1300000000E+04    0.1950520649E+00    0.2677429834E+00    0.1426072158E-01    0.2743639428E+00    0.3534277585E+00
    0.1500000000E+04    0.2034115592E+00    0.2706148316E+00    0.1314306475E-01    0.2861599866E+00    0.3575947097E+00
    0.1700000000E+04    0.2103459221E+00    0.2728525825E+00    0.1216483413E-01    0.2959510236E+00    0.3608902371E+00
    0.1900000000E+04    0.2161897321E+00    0.2746441545E+00    0.1130934593E-01    0.3042072845E+00    0.3635677986E+00
    0.2100000000E+04    0.2211798505E+00    0.2761098583E+00    0.1055944868E-01    0.3112617363E+00    0.3657905429E+00
    0.2300000000E+04    0.2254889950E+00    0.2773303152E+00    0.9899580434E-02    0.3173572283E+00    0.3676683808E+00
    0.2500000000E+04    0.2292462230E+00    0.2783615875E+00    0.9316306750E-02    0.3226752601E+00    0.3692781447E+00
    0.2700000000E+04    0.2325499715E+00    0.2792438735E+00    0.8798282087E-02    0.3273542977E+00    0.3706752126E+00
    0.2900000000E+04    0.2354766556E+00    0.2800067502E+00    0.8336014433E-02    0.3315018531E+00    0.3719005406E+00
    0.3100000000E+04    0.2380865086E+00    0.2806724651E+00    0.7921585981E-02    0.3352026892E+00    0.3729850933E+00
    0.3300000000E+04    0.2404276504E+00    0.2812580742E+00    0.7548388676E-02    0.3385245361E+00    0.3739527300E+00
    0.3500000000E+04    0.2425389833E+00    0.2817768731E+00    0.7210894014E-02    0.3415221619E+00    0.3748221433E+00
    0.3700000000E+04    0.2444522946E+00    0.2822393785E+00    0.6904460253E-02    0.3442403270E+00    0.3756081931E+00
    0.3900000000E+04    0.2461938075E+00    0.2826540183E+00    0.6625174015E-02    0.3467159645E+00    0.3763228470E+00
    0.4100000000E+04    0.2477853442E+00    0.2830276252E+00    0.6369721327E-02    0.3489798155E+00    0.3769758554E+00
    0.4300000000E+04    0.2492452082E+00    0.2833657967E+00    0.6135283015E-02    0.3510576697E+00    0.3775752457E+00
    0.4500000000E+04    0.2505888636E+00    0.2836731621E+00    0.5919449892E-02    0.3529713205E+00    0.3781276887E+00
    0.4700000000E+04    0.2518294627E+00    0.2839535825E+00    0.5720153888E-02    0.3547393070E+00    0.3786387763E+00
    0.4900000000E+04    0.2529782604E+00    0.2842103041E+00    0.5535611988E-02    0.3563774975E+00    0.3791132320E+00
    0.1000000000E+04    0.1787010783E+00    0.2615053761E+00    0.1621563068E-01    0.2513092157E+00    0.3445505521E+00
    0.3000000000E+04    0.2368179331E+00    0.2803505846E+00    0.8123261125E-02    0.3334035329E+00    0.3724587825E+00
    0.5000000000E+04    0.2535213145E+00    0.2843306536E+00    0.5448383128E-02    0.3571522634E+00    0.3793380027E+00
    0.7000000000E+04    0.2613277900E+00    0.2859818036E+00    0.4195181719E-02    0.3683231438E+00    0.3826306595E+00
    0.9000000000E+04    0.2658172792E+00    0.2868484682E+00    0.3473089525E-02    0.3747893089E+00    0.3846221283E+00
    0.1100000000E+05    0.2687214215E+00    0.2873616207E+00    0.3002165993E-02    0.3789995433E+00    0.3859840648E+00
    0.1300000000E+05    0.2707484840E+00    0.2876877908E+00    0.2669107082E-02    0.3819576346E+00    0.3869889829E+00
    0.1500000000E+05    0.2722407628E+00    0.2879044005E+00    0.2419812612E-02    0.3841497580E+00    0.3877697237E+00
    0.1700000000E+05    0.2733834933E+00    0.2880520811E+00    0.2225287836E-02    0.3858395825E+00    0.3883993240E+00
    0.1900000000E+05    0.2742854951E+00    0.2881540714E+00    0.2068612199E-02    0.3871823429E+00    0.3889215262E+00
    0.2100000000E+05    0.2750148186E+00    0.2882245469E+00    0.1939245171E-02    0.3882753267E+00    0.3893642633E+00
    0.2300000000E+05    0.2756161651E+00    0.2882725981E+00    0.1830272885E-02    0.3891825813E+00    0.3897462858E+00
    0.2500000000E+05    0.2761200904E+00    0.2883042923E+00    0.1736966830E-02    0.3899479820E+00    0.3900806946E+00
    0.2700000000E+05    0.2765481783E+00    0.2883238141E+00    0.1655979622E-02    0.3906025898E+00    0.3903769481E+00
    0.2900000000E+05    0.2769161019E+00    0.2883341284E+00    0.1584872037E-02    0.3911690091E+00    0.3906420649E+00
    0.3100000000E+05    0.2772355129E+00    0.2883373851E+00    0.1521822356E-02    0.3916640811E+00    0.3908813752E+00
    0.3300000000E+05    0.2775152503E+00    0.2883351737E+00    0.1465440941E-02    0.3921006107E+00    0.3910990085E+00
    0.3500000000E+05    0.2777621397E+00    0.2883286892E+00    0.1414648085E-02    0.3924885071E+00    0.3912982200E+00
    0.3700000000E+05    0.2779815335E+00    0.2883188433E+00    0.1368591255E-02    0.3928355585E+00    0.3914816145E+00
    0.3900000000E+05    0.2781776878E+00    0.2883063406E+00    0.1326587647E-02    0.3931479712E+00    0.3916513047E+00
    0.4100000000E+05    0.2783540280E+00    0.2882917313E+00    0.1288083425E-02    0.3934307517E+00    0.3918090247E+00
    0.4300000000E+05    0.2785133422E+00    0.2882754500E+00    0.1252624244E-02    0.3936879837E+00    0.3919562127E+00
    0.4500000000E+05    0.2786579218E+00    0.2882578421E+00    0.1219833557E-02    0.3939230313E+00    0.3920940734E+00
    0.4700000000E+05    0.2787896676E+00    0.2882391851E+00    0.1189396405E-02    0.3941386909E+00    0.3922236244E+00
    0.4900000000E+05    0.2789101691E+00    0.2882197026E+00    0.1161047125E-02    0.3943373063E+00    0.3923457323E+00
    0.1000000000E+05    0.2674106040E+00    0.2871356984E+00    0.3215367316E-02    0.3770958021E+00    0.3853599154E+00
    0.3000000000E+05    0.2770812640E+00    0.2883365288E+00    0.1552435269E-02    0.3914245841E+00    0.3907646640E+00
    0.5000000000E+05    0.2789666301E+00    0.2882097101E+00    0.1147583530E-02    0.3944308533E+00    0.3924042316E+00
    0.7000000000E+05    0.2797416691E+00    0.2879963510E+00    0.9474586555E-03    0.3957574007E+00    0.3933186766E+00
    0.9000000000E+05    0.2801535020E+00    0.2877883919E+00    0.8232694449E-03    0.3965143145E+00    0.3939396880E+00
    0.1100000000E+06    0.2804036236E+00    0.2875986035E+00    0.7367938057E-03    0.3970084785E+00    0.3944052512E+00
    0.1300000000E+06    0.2805685149E+00    0.2874271463E+00    0.6722115303E-03    0.3973591922E+00    0.3947756188E+00
    0.1500000000E+06    0.2806833769E+00    0.2872718601E+00    0.6216499819E-03    0.3976226740E+00    0.3950821187E+00
    0.1700000000E+06    0.2807665837E+00    0.2871304086E+00    0.5806971069E-03    0.3978289657E+00    0.3953429894E+00
    0.1900000000E+06    0.2808286214E+00    0.2870007436E+00    0.5466648072E-03    0.3979956188E+00    0.3955697292E+00
    0.2100000000E+06    0.2808758875E+00    0.2868811637E+00    0.5178103311E-03    0.3981335961E+00    0.3957700288E+00
    0.2300000000E+06    0.2809124932E+00    0.2867702751E+00    0.4929481313E-03    0.3982501105E+00    0.3959492735E+00
    0.2500000000E+06    0.2809411927E+00    0.2866669359E+00    0.4712401485E-03    0.3983501098E+00    0.3961113741E+00
    0.2700000000E+06    0.2809638949E+00    0.2865702049E+00    0.4520750844E-03    0.3984371059E+00    0.3962592566E+00
    0.2900000000E+06    0.2809819613E+00    0.2864793011E+00    0.4349952430E-03    0.3985136637E+00    0.3963951646E+00
    0.3100000000E+06    0.2809963862E+00    0.2863935705E+00    0.4196502769E-03    0.3985817026E+00    0.3965208552E+00
    0.3300000000E+06    0.2810079111E+00    0.2863124612E+00    0.4057668804E-03    0.3986426886E+00    0.3966377291E+00
    0.3500000000E+06    0.2810170989E+00    0.2862355037E+00    0.3931283180E-03    0.3986977624E+00    0.3967469201E+00
    0.3700000000E+06    0.2810243838E+00    0.2861622958E+00    0.3815602260E-03    0.3987478252E+00    0.3968493586E+00
    0.3900000000E+06    0.2810301050E+00    0.2860924902E+00    0.3709205377E-03    0.3987935995E+00    0.3969458174E+00
    0.4100000000E+06    0.2810345312E+00    0.2860257856E+00    0.3610921876E-03    0.3988356714E+00    0.3970369446E+00
    0.4300000000E+06    0.2810378773E+00    0.2859619186E+00    0.3519777318E-03    0.3988745218E+00    0.3971232896E+00
    0.4500000000E+06    0.2810403170E+00    0.2859006576E+00    0.3434953181E-03    0.3989105494E+00    0.3972053216E+00
    0.4700000000E+06    0.2810419919E+00    0.2858417985E+00    0.3355756229E-03    0.3989440876E+00    0.3972834446E+00
    0.4900000000E+06    0.2810430183E+00    0.2857851598E+00    0.3281594918E-03    0.3989754175E+00    0.3973580088E+00
    0.1000000000E+06    0.2802925406E+00    0.2876911125E+00    0.7765800898E-03    0.3967845723E+00    0.3941871523E+00
    0.3000000000E+06    0.2809895777E+00    0.2864358258E+00    0.4271245105E-03    0.3985486475E+00    0.3964591924E+00
    0.5000000000E+06    0.2810433190E+00    0.2857576219E+00    0.3246240969E-03    0.3989903305E+00    0.3973940534E+00
    0.7000000000E+06    0.2810317236E+00    0.2852920783E+00    0.2710868635E-03    0.3992154474E+00    0.3979853502E+00
    0.9000000000E+06    0.2810062949E+00    0.2849370893E+00    0.2369834633E-03    0.3993601030E+00    0.3984174499E+00
    0.1100000000E+07    0.2809780880E+00    0.2846500025E+00    0.2128752663E-03    0.3994645377E+00    0.3987576621E+00
    0.1300000000E+07    0.2809502527E+00    0.2844089101E+00    0.1946944199E-03    0.3995453773E+00    0.3990380788E+00
    0.1500000000E+07    0.2809237544E+00    0.2842010557E+00    0.1803641255E-03    0.3996109062E+00    0.3992764960E+00
    0.1700000000E+07    0.2808988397E+00    0.2840183537E+00    0.1686997416E-03    0.3996657852E+00    0.3994838044E+00
    0.1900000000E+07    0.2808754992E+00    0.2838553543E+00    0.1589701433E-03    0.3997128706E+00    0.3996671512E+00
    0.2100000000E+07    0.2808536330E+00    0.2837082087E+00    0.1506966568E-03    0.3997540282E+00    0.3998314782E+00
    0.2300000000E+07    0.2808331151E+00    0.2835740976E+00    0.1435511403E-03    0.3997905379E+00    0.3999803439E+00
    0.2500000000E+07    0.2808138182E+00    0.2834508932E+00    0.1373001946E-03    0.3998233130E+00    0.4001163952E+00
    0.2700000000E+07    0.2807956237E+00    0.2833369504E+00    0.1317727094E-03    0.3998530264E+00    0.4002416543E+00
    0.2900000000E+07    0.2807784245E+00    0.2832309707E+00    0.1268400284E-03    0.3998801870E+00    0.4003577004E+00
    0.3100000000E+07    0.2807621255E+00    0.2831319110E+00    0.1224033190E-03    0.3999051888E+00    0.4004657904E+00
    0.3300000000E+07    0.2807466431E+00    0.2830389210E+00    0.1183852472E-03    0.3999283421E+00    0.4005669408E+00
    0.3500000000E+07    0.2807319033E+00    0.2829512981E+00    0.1147243244E-03    0.3999498961E+00    0.4006619853E+00
    0.3700000000E+07    0.2807178411E+00    0.2828684554E+00    0.1113709696E-03    0.3999700531E+00    0.4007516162E+00
    0.3900000000E+07    0.2807043993E+00    0.2827898972E+00    0.1082847045E-03    0.3999889801E+00    0.4008364147E+00
    0.4100000000E+07    0.2806915270E+00    0.2827152012E+00    0.1054321146E-03    0.4000068160E+00    0.4009168731E+00
    0.4300000000E+07    0.2806791793E+00    0.2826440047E+00    0.1027853420E-03    0.4000236777E+00    0.4009934124E+00
    0.4500000000E+07    0.2806673160E+00    0.2825759939E+00    0.1003209534E-03    0.4000396646E+00    0.4010663952E+00
    0.4700000000E+07    0.2806559014E+00    0.2825108954E+00    0.9801907655E-04    0.4000548617E+00    0.4011361361E+00
    0.4900000000E+07    0.2806449034E+00    0.2824484696E+00    0.9586273512E-04    0.4000693424E+00    0.4012029099E+00
    0.1000000000E+07    0.2809922598E+00    0.2847867231E+00    0.2240020243E-03    0.3994160210E+00    0.3985965630E+00
    0.3000000000E+07    0.2807701679E+00    0.2831806329E+00    0.1245649380E-03    0.3998929367E+00    0.4004126715E+00
    0.5000000000E+07    0.2806395515E+00    0.2824181920E+00    0.9483449646E-04    0.4000763342E+00    0.4012352606E+00
    0.7000000000E+07    0.2805487145E+00    0.2819127114E+00    0.7924392241E-04    0.4001903900E+00    0.4017722110E+00
    0.9000000000E+07    0.2804791423E+00    0.2815338771E+00    0.6929598780E-04    0.4002731533E+00    0.4021712512E+00
    0.1100000000E+08    0.2804227724E+00    0.2812307369E+00    0.6225730085E-04    0.4003380876E+00    0.4024888203E+00
    0.1300000000E+08    0.2803753932E+00    0.2809780051E+00    0.5694624814E-04    0.4003915064E+00    0.4027525527E+00
    0.1500000000E+08    0.2803345305E+00    0.2807612748E+00    0.5275849850E-04    0.4004368749E+00    0.4029780508E+00
    0.1700000000E+08    0.2802986078E+00    0.2805715520E+00    0.4934893173E-04    0.4004762995E+00    0.4031749898E+00
    0.1900000000E+08    0.2802665591E+00    0.2804028427E+00    0.4650437750E-04    0.4005111558E+00    0.4033497843E+00
    0.2100000000E+08    0.2802376298E+00    0.2802509511E+00    0.4408518832E-04    0.4005423914E+00    0.4035069059E+00
    0.2300000000E+08    0.2802112663E+00    0.2801128252E+00    0.4199558930E-04    0.4005706873E+00    0.4036495960E+00
    0.2500000000E+08    0.2801870504E+00    0.2799861751E+00    0.4016743390E-04    0.4005965486E+00    0.4037802795E+00
    0.2700000000E+08    0.2801646583E+00    0.2798692390E+00    0.3855074815E-04    0.4006203607E+00    0.4039008175E+00
