  Pressure (Pa) 22mC5-400 (mol/kg) 3mC6-400 (mol/kg) 33mC5-400 (mol/kg) 23mC5-400 (mol/kg) C7-400 (mol/kg)
    0.1000000000E+01    0.5319359711E-03    0.4212552282E-02    0.3885365236E-03    0.2802055879E-03    0.3417889394E-02
    0.3000000000E+01    0.1590783612E-02    0.1234979548E-01    0.1141899337E-02    0.8379722535E-03    0.1002122089E-01
    0.5000000000E+01    0.2642991272E-02    0.2012470817E-01    0.1865413898E-02    0.1392244000E-02    0.1633194479E-01
    0.7000000000E+01    0.3688628967E-02    0.2756109309E-01    0.2561032214E-02    0.1943057674E-02    0.2236925335E-01
    0.9000000000E+01    0.4727765713E-02    0.3468070985E-01    0.3230534775E-02    0.2490449592E-02    0.2815069278E-01
    0.1100000000E+02    0.5760469538E-02    0.4150348963E-01    0.3875548927E-02    0.3034455554E-02    0.3369233605E-01
    0.1300000000E+02    0.6786807506E-02    0.4804772335E-01    0.4497564945E-02    0.3575110854E-02    0.3900893447E-01
    0.1500000000E+02    0.7806845733E-02    0.5433022705E-01    0.5097950132E-02    0.4112450283E-02    0.4411405086E-01
    0.1700000000E+02    0.8820649399E-02    0.6036648769E-01    0.5677961230E-02    0.4646508142E-02    0.4902017700E-01
    0.1900000000E+02    0.9828282771E-02    0.6617079195E-01    0.6238755362E-02    0.5177318252E-02    0.5373883736E-01
    0.2100000000E+02    0.1082980921E-01    0.7175634036E-01    0.6781399704E-02    0.5704913956E-02    0.5828068104E-01
    0.2300000000E+02    0.1182529120E-01    0.7713534863E-01    0.7306880066E-02    0.6229328137E-02    0.6265556339E-01
    0.2500000000E+02    0.1281479036E-01    0.8231913790E-01    0.7816108505E-02    0.6750593215E-02    0.6687261868E-01
    0.2700000000E+02    0.1379836743E-01    0.8731821516E-01    0.8309930113E-02    0.7268741165E-02    0.7094032494E-01
    0.2900000000E+02    0.1477608233E-01    0.9214234517E-01    0.8789129068E-02    0.7783803518E-02    0.7486656186E-01
    0.3100000000E+02    0.1574799416E-01    0.9680061497E-01    0.9254434042E-02    0.8295811370E-02    0.7865866277E-01
    0.3300000000E+02    0.1671416120E-01    0.1013014916E+00    0.9706523051E-02    0.8804795393E-02    0.8232346119E-01
    0.3500000000E+02    0.1767464094E-01    0.1056528743E+00    0.1014602781E-01    0.9310785837E-02    0.8586733278E-01
    0.3700000000E+02    0.1862949006E-01    0.1098621412E+00    0.1057353763E-01    0.9813812540E-02    0.8929623305E-01
    0.3900000000E+02    0.1957876451E-01    0.1139361917E+00    0.1098960295E-01    0.1031390494E-01    0.9261573149E-01
    0.4100000000E+02    0.2052251945E-01    0.1178814845E+00    0.1139473855E-01    0.1081109206E-01    0.9583104235E-01
    0.4300000000E+02    0.2146080931E-01    0.1217040727E+00    0.1178942635E-01    0.1130540256E-01    0.9894705259E-01
    0.4500000000E+02    0.2239368780E-01    0.1254096348E+00    0.1217411810E-01    0.1179686468E-01    0.1019683471E+00
    0.4700000000E+02    0.2332120788E-01    0.1290035034E+00    0.1254923765E-01    0.1228550632E-01    0.1048992320E+00
    0.4900000000E+02    0.2424342182E-01    0.1324906911E+00    0.1291518317E-01    0.1277135496E-01    0.1077437550E+00
    0.1000000000E+02    0.5244917526E-02    0.3812802477E-01    0.3556006722E-02    0.2762873600E-02    0.3095053765E-01
    0.3000000000E+02    0.1526275997E-01    0.9449166951E-01    0.9023474792E-02    0.8040187330E-02    0.7677894102E-01
    0.5000000000E+02    0.2470255513E-01    0.1341957644E+00    0.1309483355E-01    0.1301324041E-01    0.1091348299E+00
    0.7000000000E+02    0.3361888624E-01    0.1637057271E+00    0.1628625698E-01    0.1771075751E-01    0.1332375227E+00
    0.9000000000E+02    0.4205951136E-01    0.1865201295E+00    0.1887535323E-01    0.2215787189E-01    0.1519134011E+00
    0.1100000000E+03    0.5006639753E-01    0.2046981939E+00    0.2102611636E-01    0.2637666955E-01    0.1668272740E+00
    0.1300000000E+03    0.5767657319E-01    0.2195314778E+00    0.2284278759E-01    0.3038663772E-01    0.1790240913E+00
    0.1500000000E+03    0.6492283490E-01    0.2318714178E+00    0.2439564276E-01    0.3420503676E-01    0.1891932264E+00
    0.1700000000E+03    0.7183433655E-01    0.2423022858E+00    0.2573439209E-01    0.3784721015E-01    0.1978080897E+00
    0.1900000000E+03    0.7843708315E-01    0.2512384856E+00    0.2689561982E-01    0.4132684431E-01    0.2052047031E+00
    0.2100000000E+03    0.8475434658E-01    0.2589821897E+00    0.2790714919E-01    0.4465618742E-01    0.2116282662E+00
    0.2300000000E+03    0.9080701746E-01    0.2657589828E+00    0.2879072642E-01    0.4784623447E-01    0.2172619669E+00
    0.2500000000E+03    0.9661390407E-01    0.2717407219E+00    0.2956373980E-01    0.5090688467E-01    0.2222454667E+00
    0.2700000000E+03    0.1021919875E+00    0.2770606617E+00    0.3024036057E-01    0.5384707561E-01    0.2266871370E+00
    0.2900000000E+03    0.1075566401E+00    0.2818237382E+00    0.3083232450E-01    0.5667489831E-01    0.2306723817E+00
    0.3100000000E+03    0.1127218136E+00    0.2861137268E+00    0.3134948251E-01    0.5939769612E-01    0.2342694340E+00
    0.3300000000E+03    0.1177002015E+00    0.2899983321E+00    0.3180019861E-01    0.6202215012E-01    0.2375334786E+00
    0.3500000000E+03    0.1225033789E+00    0.2935328732E+00    0.3219164392E-01    0.6455435304E-01    0.2405096387E+00
    0.3700000000E+03    0.1271419255E+00    0.2967629991E+00    0.3253001847E-01    0.6699987352E-01    0.2432351772E+00
    0.3900000000E+03    0.1316255315E+00    0.2997267177E+00    0.3282072152E-01    0.6936381210E-01    0.2457411432E+00
    0.4100000000E+03    0.1359630906E+00    0.3024559348E+00    0.3306848455E-01    0.7165085022E-01    0.2480536200E+00
    0.4300000000E+03    0.1401627820E+00    0.3049776341E+00    0.3327747667E-01    0.7386529317E-01    0.2501946834E+00
    0.4500000000E+03    0.1442321417E+00    0.3073147937E+00    0.3345138920E-01    0.7601110777E-01    0.2521831464E+00
    0.4700000000E+03    0.1481781260E+00    0.3094871048E+00    0.3359350435E-01    0.7809195577E-01    0.2540351427E+00
    0.4900000000E+03    0.1520071674E+00    0.3115115404E+00    0.3370675176E-01    0.8011122317E-01    0.2557645893E+00
    0.1000000000E+03    0.4611475070E-01    0.1960948696E+00    0.1999799710E-01    0.2429453614E-01    0.1597646880E+00
    0.3000000000E+03    0.1101633407E+00    0.2840233091E+00    0.3109970050E-01    0.5804899315E-01    0.2325157166E+00
    0.5000000000E+03    0.1538797138E+00    0.3124729796E+00    0.3375338082E-01    0.8109875336E-01    0.2565871920E+00
    0.7000000000E+03    0.1864284201E+00    0.3266513368E+00    0.3368174204E-01    0.9826769175E-01    0.2688347256E+00
    0.9000000000E+03    0.2119961621E+00    0.3351692736E+00    0.3253461469E-01    0.1117597757E+00    0.2763393556E+00
    0.1100000000E+04    0.2328073834E+00    0.3408597215E+00    0.3096777739E-01    0.1227461189E+00    0.2814491532E+00
    0.1300000000E+04    0.2501769171E+00    0.3449320688E+00    0.2927340791E-01    0.1319190187E+00    0.2851740973E+00
    0.1500000000E+04    0.2649455046E+00    0.3479907576E+00    0.2758783800E-01    0.1397211966E+00    0.2880226642E+00
    0.1700000000E+04    0.2776837426E+00    0.3503719588E+00    0.2597444533E-01    0.1464531534E+00    0.2902796730E+00
    0.1900000000E+04    0.2887971371E+00    0.3522777363E+00    0.2446060162E-01    0.1523284707E+00    0.2921175191E+00
    0.2100000000E+04    0.2985844907E+00    0.3538369441E+00    0.2305540471E-01    0.1575045480E+00    0.2936468928E+00
    0.2300000000E+04    0.3072724339E+00    0.3551356715E+00    0.2175863832E-01    0.1621007814E+00    0.2949422474E+00
    0.2500000000E+04    0.3150369294E+00    0.3562336479E+00    0.2056546197E-01    0.1662098854E+00    0.2960555825E+00
    0.2700000000E+04    0.3220172554E+00    0.3571736261E+00    0.1946891951E-01    0.1699052547E+00    0.2970243619E+00
    0.2900000000E+04    0.3283254397E+00    0.3579870202E+00    0.1846129155E-01    0.1732459313E+00    0.2978762913E+00
    0.3100000000E+04    0.3340528244E+00    0.3586974351E+00    0.1753481858E-01    0.1762800615E+00    0.2986323213E+00
    0.3300000000E+04    0.3392747587E+00    0.3593229527E+00    0.1668207498E-01    0.1790473669E+00    0.2993086019E+00
    0.3500000000E+04    0.3440540306E+00    0.3598776596E+00    0.1589614780E-01    0.1815809514E+00    0.2999177923E+00
    0.3700000000E+04    0.3484434279E+00    0.3603726934E+00    0.1517070615E-01    0.1839086496E+00    0.3004699633E+00
    0.3900000000E+04    0.3524876805E+00    0.3608169765E+00    0.1450001032E-01    0.1860540507E+00    0.3009732312E+00
    0.4100000000E+04    0.3562249588E+00    0.3612177408E+00    0.1387888872E-01    0.1880372867E+00    0.3014342144E+00
    0.4300000000E+04    0.3596880425E+00    0.3615809102E+00    0.1330269881E-01    0.1898756489E+00    0.3018583661E+00
    0.4500000000E+04    0.3629052445E+00    0.3619113833E+00    0.1276728154E-01    0.1915840740E+00    0.3022502224E+00
    0.4700000000E+04    0.3659011491E+00    0.3622132463E+00    0.1226891441E-01    0.1931755331E+00    0.3026135890E+00
    0.4900000000E+04    0.3686972060E+00    0.3624899345E+00    0.1180426609E-01    0.1946613452E+00    0.3029516840E+00
    0.1000000000E+04    0.2228995896E+00    0.3382716983E+00    0.3178024584E-01    0.1175152258E+00    0.2791134013E+00
    0.3000000000E+04    0.3312566931E+00    0.3583538613E+00    0.1798838541E-01    0.1747986585E+00    0.2982651896E+00
    0.5000000000E+04    0.3700262585E+00    0.3626197648E+00    0.1158364190E-01    0.1953677826E+00    0.3031121273E+00
    0.7000000000E+04    0.3896446700E+00    0.3644117323E+00    0.8365249935E-02    0.2058131222E+00    0.3054864051E+00
    0.9000000000E+04    0.4013420127E+00    0.3653656363E+00    0.6508038235E-02    0.2120635939E+00    0.3069505544E+00
    0.1100000000E+05    0.4090519184E+00    0.3659393869E+00    0.5324297218E-02    0.2161985789E+00    0.3079687074E+00
    0.1300000000E+05    0.4144911304E+00    0.3663106677E+00    0.4513656598E-02    0.2191266860E+00    0.3087310106E+00
    0.1500000000E+05    0.4185216805E+00    0.3665624614E+00    0.3927938978E-02    0.2213047115E+00    0.3093309755E+00
    0.1700000000E+05    0.4216214274E+00    0.3667385210E+00    0.3486873370E-02    0.2229861844E+00    0.3098204363E+00
    0.1900000000E+05    0.4240755850E+00    0.3668639902E+00    0.3143684704E-02    0.2243226108E+00    0.3102306740E+00
    0.2100000000E+05    0.4260644477E+00    0.3669542806E+00    0.2869485770E-02    0.2254098818E+00    0.3105818069E+00
    0.2300000000E+05    0.4277073450E+00    0.3670193242E+00    0.2645573182E-02    0.2263115424E+00    0.3108874312E+00
    0.2500000000E+05    0.4290862829E+00    0.3670657837E+00    0.2459353903E-02    0.2270713169E+00    0.3111571070E+00
    0.2700000000E+05    0.4302594125E+00    0.3670982774E+00    0.2302065314E-02    0.2277202498E+00    0.3113977785E+00
    0.2900000000E+05    0.4312690787E+00    0.3671200955E+00    0.2167436682E-02    0.2282809755E+00    0.3116146283E+00
    0.3100000000E+05    0.4321468257E+00    0.3671336365E+00    0.2050870706E-02    0.2287703770E+00    0.3118116140E+00
    0.3300000000E+05    0.4329166203E+00    0.3671406838E+00    0.1948925252E-02    0.2292012981E+00    0.3119918179E+00
    0.3500000000E+05    0.4335969892E+00    0.3671425862E+00    0.1858975004E-02    0.2295836798E+00    0.3121576817E+00
    0.3700000000E+05    0.4342024733E+00    0.3671403789E+00    0.1778984619E-02    0.2299253347E+00    0.3123111691E+00
    0.3900000000E+05    0.4347446410E+00    0.3671348670E+00    0.1707352976E-02    0.2302324863E+00    0.3124538798E+00
    0.4100000000E+05    0.4352328081E+00    0.3671266837E+00    0.1642803981E-02    0.2305101528E+00    0.3125871329E+00
    0.4300000000E+05    0.4356745582E+00    0.3671163323E+00    0.1584308539E-02    0.2307624246E+00    0.3127120272E+00
    0.4500000000E+05    0.4360761265E+00    0.3671042161E+00    0.1531027850E-02    0.2309926691E+00    0.3128294866E+00
    0.4700000000E+05    0.4364426853E+00    0.3670906614E+00    0.1482271552E-02    0.2312036836E+00    0.3129402949E+00
    0.4900000000E+05    0.4367785605E+00    0.3670759336E+00    0.1437466397E-02    0.2313978105E+00    0.3130451221E+00
    0.1000000000E+05    0.4055591306E+00    0.3656856059E+00    0.5855916249E-02    0.2143234263E+00    0.3075001558E+00
    0.3000000000E+05    0.4317227957E+00    0.3671277772E+00    0.2107133432E-02    0.2285337099E+00    0.3117153942E+00
    0.5000000000E+05    0.4369361538E+00    0.3670681993E+00    0.1416392416E-02    0.2314891710E+00    0.3130954761E+00
    0.7000000000E+05    0.4391199680E+00    0.3668882586E+00    0.1118534175E-02    0.2327791815E+00    0.3138941494E+00
    0.9000000000E+05    0.4403079397E+00    0.3667005975E+00    0.9477212621E-03    0.2335099421E+00    0.3144492226E+00
    0.1100000000E+06    0.4410493025E+00    0.3665245095E+00    0.8346855268E-03    0.2339846128E+00    0.3148721259E+00
    0.1300000000E+06    0.4415530980E+00    0.3663629254E+00    0.7531981122E-03    0.2343202265E+00    0.3152126312E+00
    0.1500000000E+06    0.4419159425E+00    0.3662150788E+00    0.6910272768E-03    0.2345716342E+00    0.3154970753E+00
    0.1700000000E+06    0.4421885358E+00    0.3660794172E+00    0.6416488400E-03    0.2347680201E+00    0.3157410105E+00
    0.1900000000E+06    0.4423999918E+00    0.3659543692E+00    0.6012394958E-03    0.2349263745E+00    0.3159543576E+00
    0.2100000000E+06    0.4425681956E+00    0.3658385414E+00    0.5673969835E-03    0.2350572783E+00    0.3161438193E+00
    0.2300000000E+06    0.4427047269E+00    0.3657307484E+00    0.5385286498E-03    0.2351676758E+00    0.3163141293E+00
    0.2500000000E+06    0.4428174056E+00    0.3656299942E+00    0.5135326021E-03    0.2352623203E+00    0.3164687515E+00
    0.2700000000E+06    0.4429116977E+00    0.3655354435E+00    0.4916195929E-03    0.2353445795E+00    0.3166102947E+00
    0.2900000000E+06    0.4429915356E+00    0.3654463937E+00    0.4722078310E-03    0.2354169089E+00    0.3167407711E+00
    0.3100000000E+06    0.4430598187E+00    0.3653622502E+00    0.4548579445E-03    0.2354811433E+00    0.3168617651E+00
    0.3300000000E+06    0.4431187296E+00    0.3652825072E+00    0.4392311907E-03    0.2355386825E+00    0.3169745456E+00
    0.3500000000E+06    0.4431699420E+00    0.3652067312E+00    0.4250617080E-03    0.2355906142E+00    0.3170801444E+00
    0.3700000000E+06    0.4432147597E+00    0.3651345487E+00    0.4121375636E-03    0.2356377970E+00    0.3171794114E+00
    0.3900000000E+06    0.4432542130E+00    0.3650656357E+00    0.4002874863E-03    0.2356809185E+00    0.3172730551E+00
    0.4100000000E+06    0.4432891263E+00    0.3649997095E+00    0.3893713754E-03    0.2357205360E+00    0.3173616721E+00
    0.4300000000E+06    0.4433201667E+00    0.3649365224E+00    0.3792733802E-03    0.2357571065E+00    0.3174457691E+00
    0.4500000000E+06    0.4433478794E+00    0.3648758558E+00    0.3698967664E-03    0.2357910085E+00    0.3175257804E+00
    0.4700000000E+06    0.4433727144E+00    0.3648175161E+00    0.3611600497E-03    0.2358225584E+00    0.3176020811E+00
    0.4900000000E+06    0.4433950459E+00    0.3647613313E+00    0.3529940428E-03    0.2358520227E+00    0.3176749968E+00
    0.1000000000E+06    0.4407174184E+00    0.3666107728E+00    0.8861150803E-03    0.2337697897E+00    0.3146732939E+00
    0.3000000000E+06    0.4430269712E+00    0.3654037422E+00    0.4632983053E-03    0.2354499420E+00    0.3168023678E+00
    0.5000000000E+06    0.4434053730E+00    0.3647339982E+00    0.3491062240E-03    0.2358660450E+00    0.3177102758E+00
    0.7000000000E+06    0.4435353166E+00    0.3642704844E+00    0.2905988844E-03    0.2360775186E+00    0.3182917437E+00
    0.9000000000E+06    0.4435899934E+00    0.3639154587E+00    0.2536435369E-03    0.2362132381E+00    0.3187196026E+00
    0.1100000000E+07    0.4436137249E+00    0.3636274938E+00    0.2276408884E-03    0.2363111572E+00    0.3190580005E+00
    0.1300000000E+07    0.4436225176E+00    0.3633851448E+00    0.2080883118E-03    0.2363869246E+00    0.3193378283E+00
    0.1500000000E+07    0.4436233715E+00    0.3631758605E+00    0.1927069513E-03    0.2364483276E+00    0.3195763343E+00
    0.1700000000E+07    0.4436197478E+00    0.3629916562E+00    0.1802044312E-03    0.2364997434E+00    0.3197841282E+00
    0.1900000000E+07    0.4436135104E+00    0.3628271347E+00    0.1697864249E-03    0.2365438530E+00    0.3199682010E+00
    0.2100000000E+07    0.4436057267E+00    0.3626784757E+00    0.1609344781E-03    0.2365824067E+00    0.3201334021E+00
    0.2300000000E+07    0.4435970370E+00    0.3625428754E+00    0.1532940207E-03    0.2366166050E+00    0.3202832329E+00
    0.2500000000E+07    0.4435878388E+00    0.3624182145E+00    0.1466133284E-03    0.2366473042E+00    0.3204203041E+00
    0.2700000000E+07    0.4435783848E+00    0.3623028520E+00    0.1407081359E-03    0.2366751349E+00    0.3205466136E+00
    0.2900000000E+07    0.4435688390E+00    0.3621954913E+00    0.1354400688E-03    0.2367005743E+00    0.3206637247E+00
    0.3100000000E+07    0.4435593087E+00    0.3620950897E+00    0.1307029396E-03    0.2367239913E+00    0.3207728835E+00
    0.3300000000E+07    0.4435498643E+00    0.3620007964E+00    0.1264137321E-03    0.2367456769E+00    0.3208750990E+00
    0.3500000000E+07    0.4435405517E+00    0.3619119077E+00    0.1225064893E-03    0.2367658645E+00    0.3209712000E+00
    0.3700000000E+07    0.4435314005E+00    0.3618278354E+00    0.1189280616E-03    0.2367847437E+00    0.3210618753E+00
    0.3900000000E+07    0.4435224289E+00    0.3617480823E+00    0.1156350814E-03    0.2368024708E+00    0.3211477036E+00
    0.4100000000E+07    0.4435136473E+00    0.3616722247E+00    0.1125917666E-03    0.2368191760E+00    0.3212291758E+00
    0.4300000000E+07    0.4435050610E+00    0.3615998985E+00    0.1097682988E-03    0.2368349689E+00    0.3213067119E+00
    0.4500000000E+07    0.4434966713E+00    0.3615307882E+00    0.1071396043E-03    0.2368499424E+00    0.3213806740E+00
    0.4700000000E+07    0.4434884770E+00    0.3614646190E+00    0.1046844278E-03    0.2368641762E+00    0.3214513765E+00
    0.4900000000E+07    0.4434804753E+00    0.3614011500E+00    0.1023846164E-03    0.2368777391E+00    0.3215190941E+00
    0.1000000000E+07    0.4436044053E+00    0.3637647206E+00    0.2396306037E-03    0.2362656732E+00    0.3188976034E+00
    0.3000000000E+07    0.4435640668E+00    0.3621444777E+00    0.1330107859E-03    0.2367125158E+00    0.3207192303E+00
    0.5000000000E+07    0.4434765453E+00    0.3613703607E+00    0.1012880083E-03    0.2368842878E+00    0.3215519101E+00
    0.7000000000E+07    0.4434068011E+00    0.3608558109E+00    0.8466327195E-04    0.2369911173E+00    0.3220973055E+00
    0.9000000000E+07    0.4433503504E+00    0.3604695726E+00    0.7405651644E-04    0.2370686402E+00    0.3225034347E+00
    0.1100000000E+08    0.4433032040E+00    0.3601601650E+00    0.6655131500E-04    0.2371294653E+00    0.3228270923E+00
    0.1300000000E+08    0.4432628055E+00    0.3599019896E+00    0.6088769487E-04    0.2371795050E+00    0.3230961602E+00
    0.1500000000E+08    0.4432274934E+00    0.3596804407E+00    0.5642143032E-04    0.2372220047E+00    0.3233264095E+00
    0.1700000000E+08    0.4431961422E+00    0.3594863903E+00    0.5278466773E-04    0.2372589372E+00    0.3235276342E+00
    0.1900000000E+08    0.4431679586E+00    0.3593137500E+00    0.4975020794E-04    0.2372915906E+00    0.3237063348E+00
    0.2100000000E+08    0.4431423641E+00    0.3591582544E+00    0.4716921521E-04    0.2373208527E+00    0.3238670467E+00
    0.2300000000E+08    0.4431189245E+00    0.3590167990E+00    0.4493961165E-04    0.2373473611E+00    0.3240130606E+00
    0.2500000000E+08    0.4430973059E+00    0.3588870537E+00    0.4298876388E-04    0.2373715891E+00    0.3241468395E+00
    0.2700000000E+08    0.4430772462E+00    0.3587672243E+00    0.4126340547E-04    0.2373938976E+00    0.3242702752E+00
