  Pressure (Pa) 22mC5-400 (mol/kg) 3mC6-400 (mol/kg) 33mC5-400 (mol/kg) 23mC5-400 (mol/kg) C7-400 (mol/kg)
    0.1000000000E+01    0.5318900768E-03    0.1040004295E-02    0.1922932144E-03    0.4669690936E-03    0.1518962735E-01
    0.3000000000E+01    0.1590371941E-02    0.2977199278E-02    0.5544627733E-03    0.1396259653E-02    0.4349304798E-01
    0.5000000000E+01    0.2641851550E-02    0.4744789361E-02    0.8901133340E-03    0.2319407865E-02    0.6933074780E-01
    0.7000000000E+01    0.3686402534E-02    0.6364089533E-02    0.1202675223E-02    0.3236478301E-02    0.9301210714E-01
    0.9000000000E+01    0.4724097480E-02    0.7852987567E-02    0.1495006844E-02    0.4147534621E-02    0.1147968010E+00
    0.1100000000E+02    0.5755007951E-02    0.9226606127E-02    0.1769507701E-02    0.5052639586E-02    0.1349043970E+00
    0.1300000000E+02    0.6779204504E-02    0.1049781711E-01    0.2028205853E-02    0.5951855074E-02    0.1535218122E+00
    0.1500000000E+02    0.7796756709E-02    0.1167764529E-01    0.2272826252E-02    0.6845242097E-02    0.1708091654E+00
    0.1700000000E+02    0.8807733162E-02    0.1277558814E-01    0.2504844662E-02    0.7732860813E-02    0.1869044146E+00
    0.1900000000E+02    0.9812201507E-02    0.1379987144E-01    0.2725530564E-02    0.8614770547E-02    0.2019270636E+00
    0.2100000000E+02    0.1081022845E-01    0.1475765515E-01    0.2935981572E-02    0.9491029798E-02    0.2159811481E+00
    0.2300000000E+02    0.1180187977E-01    0.1565520065E-01    0.3137151249E-02    0.1036169626E-01    0.2291576609E+00
    0.2500000000E+02    0.1278722035E-01    0.1649800737E-01    0.3329871740E-02    0.1122682683E-01    0.2415365343E+00
    0.2700000000E+02    0.1376631418E-01    0.1729092526E-01    0.3514872313E-02    0.1208647762E-01    0.2531882711E+00
    0.2900000000E+02    0.1473922436E-01    0.1803824791E-01    0.3692794641E-02    0.1294070398E-01    0.2641752963E+00
    0.3100000000E+02    0.1570601315E-01    0.1874379010E-01    0.3864205465E-02    0.1378956051E-01    0.2745530815E+00
    0.3300000000E+02    0.1666674195E-01    0.1941095272E-01    0.4029607144E-02    0.1463310106E-01    0.2843710877E+00
    0.3500000000E+02    0.1762147134E-01    0.2004277741E-01    0.4189446499E-02    0.1547137875E-01    0.2936735577E+00
    0.3700000000E+02    0.1857026107E-01    0.2064199278E-01    0.4344122244E-02    0.1630444600E-01    0.3025001872E+00
    0.3900000000E+02    0.1951317011E-01    0.2121105366E-01    0.4493991281E-02    0.1713235450E-01    0.3108866945E+00
    0.4100000000E+02    0.2045025660E-01    0.2175217458E-01    0.4639374030E-02    0.1795515526E-01    0.3188653064E+00
    0.4300000000E+02    0.2138157794E-01    0.2226735851E-01    0.4780558985E-02    0.1877289861E-01    0.3264651751E+00
    0.4500000000E+02    0.2230719074E-01    0.2275842147E-01    0.4917806604E-02    0.1958563420E-01    0.3337127364E+00
    0.4700000000E+02    0.2322715088E-01    0.2322701389E-01    0.5051352655E-02    0.2039341104E-01    0.3406320191E+00
    0.4900000000E+02    0.2414151349E-01    0.2367463905E-01    0.5181411096E-02    0.2119627748E-01    0.3472449127E+00
    0.1000000000E+02    0.5240396341E-02    0.8553354732E-02    0.1634351539E-02    0.4600827135E-02    0.1250478640E+00
    0.3000000000E+02    0.1522338007E-01    0.1839601999E-01    0.3779281196E-02    0.1336580009E-01    0.2694371217E+00
    0.5000000000E+02    0.2459661274E-01    0.2389102243E-01    0.5245193982E-02    0.2159588423E-01    0.3504427772E+00
    0.7000000000E+02    0.3341763990E-01    0.2739475340E-01    0.6376818613E-02    0.2934154754E-01    0.4023477728E+00
    0.9000000000E+02    0.4173687648E-01    0.2982157759E-01    0.7303129668E-02    0.3664700514E-01    0.4384766603E+00
    0.1100000000E+03    0.4959867699E-01    0.3160050047E-01    0.8084740475E-02    0.4355115763E-01    0.4650910986E+00
    0.1300000000E+03    0.5704221931E-01    0.3295946272E-01    0.8755263703E-02    0.5008836610E-01    0.4855233500E+00
    0.1500000000E+03    0.6410223895E-01    0.3403076714E-01    0.9335837500E-02    0.5628909596E-01    0.5017106297E+00
    0.1700000000E+03    0.7080964228E-01    0.3489646828E-01    0.9841082792E-02    0.6218045467E-01    0.5148563248E+00
    0.1900000000E+03    0.7719202131E-01    0.3561015411E-01    0.1028185125E-01    0.6778664309E-01    0.5257476018E+00
    0.2100000000E+03    0.8327408787E-01    0.3620830200E-01    0.1066661963E-01    0.7312933627E-01    0.5349211508E+00
    0.2300000000E+03    0.8907804152E-01    0.3671660073E-01    0.1100225713E-01    0.7822800600E-01    0.5427555431E+00
    0.2500000000E+03    0.9462388260E-01    0.3715366267E-01    0.1129447874E-01    0.8310019539E-01    0.5495255137E+00
    0.2700000000E+03    0.9992967976E-01    0.3753330212E-01    0.1154813067E-01    0.8776175340E-01    0.5554353090E+00
    0.2900000000E+03    0.1050117994E+00    0.3786598687E-01    0.1176738025E-01    0.9222703609E-01    0.5606399517E+00
    0.3100000000E+03    0.1098851032E+00    0.3815979294E-01    0.1195584877E-01    0.9650907987E-01    0.5652592419E+00
    0.3300000000E+03    0.1145631188E+00    0.3842105021E-01    0.1211670835E-01    0.1006197512E+00    0.5693872340E+00
    0.3500000000E+03    0.1190581880E+00    0.3865478969E-01    0.1225275503E-01    0.1045698761E+00    0.5730988076E+00
    0.3700000000E+03    0.1233815951E+00    0.3886506006E-01    0.1236646580E-01    0.1083693537E+00    0.5764543232E+00
    0.3900000000E+03    0.1275436794E+00    0.3905515601E-01    0.1246004397E-01    0.1120272540E+00    0.5795029829E+00
    0.4100000000E+03    0.1315539336E+00    0.3922778569E-01    0.1253545613E-01    0.1155519041E+00    0.5822852982E+00
    0.4300000000E+03    0.1354210896E+00    0.3938519552E-01    0.1259446264E-01    0.1189509646E+00    0.5848349302E+00
    0.4500000000E+03    0.1391531949E+00    0.3952926440E-01    0.1263864324E-01    0.1222314950E+00    0.5871800811E+00
    0.4700000000E+03    0.1427576791E+00    0.3966157579E-01    0.1266941866E-01    0.1254000135E+00    0.5893445592E+00
    0.4900000000E+03    0.1462414134E+00    0.3978347348E-01    0.1268806912E-01    0.1284625480E+00    0.5913486038E+00
    0.1000000000E+03    0.4572239556E-01    0.3077474238E-01    0.7709522833E-02    0.4014699868E-01    0.4527206245E+00
    0.3000000000E+03    0.1074736784E+00    0.3801731921E-01    0.1186525431E-01    0.9439019539E-01    0.5630163723E+00
    0.5000000000E+03    0.1479400069E+00    0.3984088253E-01    0.1269321309E-01    0.1299558325E+00    0.5922959742E+00
    0.7000000000E+03    0.1768942645E+00    0.4064903628E-01    0.1238680927E-01    0.1554169980E+00    0.6059490051E+00
    0.9000000000E+03    0.1988063224E+00    0.4109519710E-01    0.1167534074E-01    0.1746954232E+00    0.6138789164E+00
    0.1100000000E+04    0.2160424093E+00    0.4137269172E-01    0.1084582402E-01    0.1898674905E+00    0.6190713980E+00
    0.1300000000E+04    0.2299891173E+00    0.4155868423E-01    0.1001668206E-01    0.2021501376E+00    0.6227400004E+00
    0.1500000000E+04    0.2415212854E+00    0.4168986427E-01    0.9235844526E-02    0.2123112892E+00    0.6254721028E+00
    0.1700000000E+04    0.2512224252E+00    0.4178583101E-01    0.8520244183E-02    0.2208632303E+00    0.6275870337E+00
    0.1900000000E+04    0.2594988532E+00    0.4185796648E-01    0.7872940630E-02    0.2281627399E+00    0.6292734888E+00
    0.2100000000E+04    0.2666433390E+00    0.4191331094E-01    0.7290917098E-02    0.2344669369E+00    0.6306502129E+00
    0.2300000000E+04    0.2728727742E+00    0.4195643941E-01    0.6768733970E-02    0.2399663341E+00    0.6317957045E+00
    0.2500000000E+04    0.2783515763E+00    0.4199044540E-01    0.6300254631E-02    0.2448053765E+00    0.6327639557E+00
    0.2700000000E+04    0.2832068228E+00    0.4201749006E-01    0.5879445214E-02    0.2490957236E+00    0.6335933348E+00
    0.2900000000E+04    0.2875383738E+00    0.4203912507E-01    0.5500721021E-02    0.2529251346E+00    0.6343118629E+00
    0.3100000000E+04    0.2914258373E+00    0.4205649066E-01    0.5159070158E-02    0.2563635823E+00    0.6349404858E+00
    0.3300000000E+04    0.2949334815E+00    0.4207044160E-01    0.4850069437E-02    0.2594675656E+00    0.6354951767E+00
    0.3500000000E+04    0.2981137724E+00    0.4208162988E-01    0.4569850719E-02    0.2622832160E+00    0.6359883308E+00
    0.3700000000E+04    0.3010099706E+00    0.4209056041E-01    0.4315047188E-02    0.2648485768E+00    0.6364297151E+00
    0.3900000000E+04    0.3036580671E+00    0.4209762948E-01    0.4082734286E-02    0.2671953040E+00    0.6368271303E+00
    0.4100000000E+04    0.3060882490E+00    0.4210315186E-01    0.3870372419E-02    0.2693499530E+00    0.6371868824E+00
    0.4300000000E+04    0.3083260236E+00    0.4210738026E-01    0.3675754552E-02    0.2713349658E+00    0.6375141248E+00
    0.4500000000E+04    0.3103930896E+00    0.4211051951E-01    0.3496959778E-02    0.2731694371E+00    0.6378131104E+00
    0.4700000000E+04    0.3123080214E+00    0.4211273707E-01    0.3332312937E-02    0.2748697147E+00    0.6380873798E+00
    0.4900000000E+04    0.3140868104E+00    0.4211417095E-01    0.3180349864E-02    0.2764498750E+00    0.6383399048E+00
    0.1000000000E+04    0.2079064768E+00    0.4124879695E-01    0.1126556605E-01    0.1827048978E+00    0.6167198091E+00
    0.3000000000E+04    0.2895332872E+00    0.4204828256E-01    0.5325551425E-02    0.2546894230E+00    0.6346363166E+00
    0.5000000000E+04    0.3149295505E+00    0.4211463058E-01    0.3108717480E-02    0.2771987842E+00    0.6384588140E+00
    0.7000000000E+04    0.3271824048E+00    0.4210230277E-01    0.2102669748E-02    0.2881126355E+00    0.6401411872E+00
    0.9000000000E+04    0.3343533172E+00    0.4207275917E-01    0.1556894122E-02    0.2945316889E+00    0.6410949444E+00
    0.1100000000E+05    0.3390452319E+00    0.4203949859E-01    0.1223865979E-02    0.2987526642E+00    0.6417130557E+00
    0.1300000000E+05    0.3423474888E+00    0.4200645274E-01    0.1003389039E-02    0.3017383745E+00    0.6421485063E+00
    0.1500000000E+05    0.3447945044E+00    0.4197486731E-01    0.8484718698E-03    0.3039619568E+00    0.6424733242E+00
    0.1700000000E+05    0.3466785697E+00    0.4194508946E-01    0.7345802419E-03    0.3056826201E+00    0.6427259220E+00
    0.1900000000E+05    0.3481727718E+00    0.4191713912E-01    0.6478222758E-03    0.3070541178E+00    0.6429286837E+00
    0.2100000000E+05    0.3493860299E+00    0.4189091642E-01    0.5798171924E-03    0.3081733653E+00    0.6430955497E+00
    0.2300000000E+05    0.3503902564E+00    0.4186628300E-01    0.5252450547E-03    0.3091044567E+00    0.6432356643E+00
    0.2500000000E+05    0.3512348162E+00    0.4184309490E-01    0.4805849661E-03    0.3098914641E+00    0.6433552807E+00
    0.2700000000E+05    0.3519547063E+00    0.4182121574E-01    0.4434240595E-03    0.3105656846E+00    0.6434588231E+00
    0.2900000000E+05    0.3525754202E+00    0.4180052132E-01    0.4120592389E-03    0.3111499548E+00    0.6435495132E+00
    0.3100000000E+05    0.3531159630E+00    0.4178090060E-01    0.3852575322E-03    0.3116613278E+00    0.6436297539E+00
    0.3300000000E+05    0.3535907890E+00    0.4176225515E-01    0.3621064690E-03    0.3121127954E+00    0.6437013756E+00
    0.3500000000E+05    0.3540110848E+00    0.4174449802E-01    0.3419176357E-03    0.3125144289E+00    0.6437657976E+00
    0.3700000000E+05    0.3543856416E+00    0.4172755236E-01    0.3241627481E-03    0.3128741568E+00    0.6438241386E+00
    0.3900000000E+05    0.3547214631E+00    0.4171135022E-01    0.3084302242E-03    0.3131983057E+00    0.6438772924E+00
    0.4100000000E+05    0.3550241967E+00    0.4169583137E-01    0.2943950315E-03    0.3134919861E+00    0.6439259825E+00
    0.4300000000E+05    0.3552984464E+00    0.4168094226E-01    0.2817973371E-03    0.3137593711E+00    0.6439708006E+00
    0.4500000000E+05    0.3555480028E+00    0.4166663516E-01    0.2704271242E-03    0.3140039023E+00    0.6440122361E+00
    0.4700000000E+05    0.3557760146E+00    0.4165286737E-01    0.2601129287E-03    0.3142284433E+00    0.6440506971E+00
    0.4900000000E+05    0.3559851189E+00    0.4163960059E-01    0.2507134737E-03    0.3144353967E+00    0.6440865270E+00
    0.1000000000E+05    0.3369220150E+00    0.4205624741E-01    0.1371893773E-02    0.2968399575E+00    0.6414335571E+00
    0.3000000000E+05    0.3528547204E+00    0.4179058318E-01    0.3981512101E-03    0.3114138618E+00    0.6435908142E+00
    0.5000000000E+05    0.3560832899E+00    0.4163314418E-01    0.2463192967E-03    0.3145329251E+00    0.6441035481E+00
    0.7000000000E+05    0.3574473440E+00    0.4152353138E-01    0.1862111026E-03    0.3159201410E+00    0.6443577396E+00
    0.9000000000E+05    0.3581914952E+00    0.4143957119E-01    0.1536182695E-03    0.3167159248E+00    0.6445183062E+00
    0.1100000000E+06    0.3586557290E+00    0.4137155898E-01    0.1328906063E-03    0.3172376337E+00    0.6446329237E+00
    0.1300000000E+06    0.3589704438E+00    0.4131441383E-01    0.1183845731E-03    0.3176091666E+00    0.6447209576E+00
    0.1500000000E+06    0.3591962301E+00    0.4126514736E-01    0.1075679208E-03    0.3178891017E+00    0.6447919270E+00
    0.1700000000E+06    0.3593650037E+00    0.4122185415E-01    0.9913194901E-04    0.3181088271E+00    0.6448511282E+00
    0.1900000000E+06    0.3594951409E+00    0.4118324506E-01    0.9232969537E-04    0.3182867242E+00    0.6449017769E+00
    0.2100000000E+06    0.3595979522E+00    0.4114840744E-01    0.8670222281E-04    0.3184342983E+00    0.6449459574E+00
    0.2300000000E+06    0.3596807697E+00    0.4111667153E-01    0.8195106719E-04    0.3185591335E+00    0.6449850898E+00
    0.2500000000E+06    0.3597485488E+00    0.4108753137E-01    0.7787315827E-04    0.3186664414E+00    0.6450201819E+00
    0.2700000000E+06    0.3598047545E+00    0.4106059538E-01    0.7432516026E-04    0.3187599270E+00    0.6450519722E+00
    0.2900000000E+06    0.3598518798E+00    0.4103555433E-01    0.7120277247E-04    0.3188423003E+00    0.6450810170E+00
    0.3100000000E+06    0.3598917623E+00    0.4101215975E-01    0.6842812785E-04    0.3189155919E+00    0.6451077453E+00
    0.3300000000E+06    0.3599257849E+00    0.4099020902E-01    0.6594180814E-04    0.3189813552E+00    0.6451324941E+00
    0.3500000000E+06    0.3599550072E+00    0.4096953471E-01    0.6369760893E-04    0.3190408000E+00    0.6451555327E+00
    0.3700000000E+06    0.3599802538E+00    0.4094999693E-01    0.6165900527E-04    0.3190948835E+00    0.6451770797E+00
    0.3900000000E+06    0.3600021760E+00    0.4093147754E-01    0.5979670348E-04    0.3191443736E+00    0.6451973149E+00
    0.4100000000E+06    0.3600212939E+00    0.4091387592E-01    0.5808690676E-04    0.3191898942E+00    0.6452163875E+00
    0.4300000000E+06    0.3600380280E+00    0.4089710565E-01    0.5651006175E-04    0.3192319576E+00    0.6452344231E+00
    0.4500000000E+06    0.3600527217E+00    0.4088109196E-01    0.5504993654E-04    0.3192709888E+00    0.6452515279E+00
    0.4700000000E+06    0.3600656576E+00    0.4086576970E-01    0.5369293141E-04    0.3193073438E+00    0.6452677930E+00
    0.4900000000E+06    0.3600770706E+00    0.4085108182E-01    0.5242755618E-04    0.3193413229E+00    0.6452832967E+00
    0.1000000000E+06    0.3584479961E+00    0.4140395632E-01    0.1422353740E-03    0.3170010073E+00    0.6445798069E+00
    0.3000000000E+06    0.3598726311E+00    0.4102366483E-01    0.6977605670E-04    0.3188799749E+00    0.6450946479E+00
    0.5000000000E+06    0.3600822687E+00    0.4084395981E-01    0.5182611520E-04    0.3193575028E+00    0.6452907845E+00
    0.7000000000E+06    0.3601404980E+00    0.4072524363E-01    0.4284974142E-04    0.3196021791E+00    0.6454131714E+00
    0.9000000000E+06    0.3601552116E+00    0.4063650354E-01    0.3724733838E-04    0.3197597532E+00    0.6455023392E+00
    0.1100000000E+07    0.3601532842E+00    0.4056563887E-01    0.3333391624E-04    0.3198736093E+00    0.6455725539E+00
    0.1300000000E+07    0.3601440899E+00    0.4050665600E-01    0.3040579795E-04    0.3199617522E+00    0.6456304994E+00
    0.1500000000E+07    0.3601315557E+00    0.4045614567E-01    0.2811072019E-04    0.3200331816E+00    0.6456798471E+00
    0.1700000000E+07    0.3601175237E+00    0.4041198259E-01    0.2625044260E-04    0.3200929725E+00    0.6457228315E+00
    0.1900000000E+07    0.3601029225E+00    0.4037275220E-01    0.2470382112E-04    0.3201442405E+00    0.6457609143E+00
    0.2100000000E+07    0.3600882415E+00    0.4033746543E-01    0.2339213943E-04    0.3201890233E+00    0.6457951044E+00
    0.2300000000E+07    0.3600737438E+00    0.4030540353E-01    0.2226175760E-04    0.3202287202E+00    0.6458261276E+00
    0.2500000000E+07    0.3600595703E+00    0.4027602779E-01    0.2127470760E-04    0.3202643305E+00    0.6458545235E+00
    0.2700000000E+07    0.3600457930E+00    0.4024892401E-01    0.2040326599E-04    0.3202965906E+00    0.6458807044E+00
    0.2900000000E+07    0.3600324446E+00    0.4022376690E-01    0.1962665833E-04    0.3203260580E+00    0.6459049924E+00
    0.3100000000E+07    0.3600195348E+00    0.4020029633E-01    0.1892897213E-04    0.3203531640E+00    0.6459276440E+00
    0.3300000000E+07    0.3600070597E+00    0.4017830101E-01    0.1829778747E-04    0.3203782488E+00    0.6459488665E+00
    0.3500000000E+07    0.3599950081E+00    0.4015760698E-01    0.1772325089E-04    0.3204015852E+00    0.6459688304E+00
    0.3700000000E+07    0.3599833641E+00    0.4013806933E-01    0.1719743253E-04    0.3204233951E+00    0.6459876771E+00
    0.3900000000E+07    0.3599721099E+00    0.4011956604E-01    0.1671386953E-04    0.3204438613E+00    0.6460055256E+00
    0.4100000000E+07    0.3599612269E+00    0.4010199345E-01    0.1626723512E-04    0.3204631360E+00    0.6460224767E+00
    0.4300000000E+07    0.3599506964E+00    0.4008526270E-01    0.1585309455E-04    0.3204813473E+00    0.6460386166E+00
    0.4500000000E+07    0.3599405001E+00    0.4006929707E-01    0.1546772212E-04    0.3204986041E+00    0.6460540196E+00
    0.4700000000E+07    0.3599306204E+00    0.4005402986E-01    0.1510796199E-04    0.3205149994E+00    0.6460687504E+00
    0.4900000000E+07    0.3599210406E+00    0.4003940274E-01    0.1477112105E-04    0.3205306135E+00    0.6460828654E+00
    0.1000000000E+07    0.3601555462E+00    0.4059929588E-01    0.3513556366E-04    0.3198207104E+00    0.6455392977E+00
    0.3000000000E+07    0.3600259349E+00    0.4021183499E-01    0.1926879561E-04    0.3203398831E+00    0.6459165088E+00
    0.5000000000E+07    0.3599163581E+00    0.4003231293E-01    0.1461055924E-04    0.3205381497E+00    0.6460897077E+00
    0.7000000000E+07    0.3598351098E+00    0.3991436609E-01    0.1218064820E-04    0.3206608108E+00    0.6462036313E+00
    0.9000000000E+07    0.3597710584E+00    0.3982644075E-01    0.1063464695E-04    0.3207494845E+00    0.6462887142E+00
    0.1100000000E+08    0.3597182762E+00    0.3975634300E-01    0.9542879979E-05    0.3208188575E+00    0.6463566648E+00
    0.1300000000E+08    0.3596734083E+00    0.3969806417E-01    0.8720266980E-05    0.3208757983E+00    0.6464132468E+00
    0.1500000000E+08    0.3596343940E+00    0.3964819770E-01    0.8072375093E-05    0.3209240681E+00    0.6464617280E+00
    0.1700000000E+08    0.3595998817E+00    0.3960462494E-01    0.7545370463E-05    0.3209659482E+00    0.6465041419E+00
    0.1900000000E+08    0.3595689388E+00    0.3956593819E-01    0.7106047204E-05    0.3210029258E+00    0.6465418405E+00
    0.2100000000E+08    0.3595408946E+00    0.3953115449E-01    0.6732676560E-05    0.3210360238E+00    0.6465757687E+00
    0.2300000000E+08    0.3595152515E+00    0.3949956034E-01    0.6410370238E-05    0.3210659759E+00    0.6466066128E+00
    0.2500000000E+08    0.3594916296E+00    0.3947062140E-01    0.6128543362E-05    0.3210933258E+00    0.6466348873E+00
    0.2700000000E+08    0.3594697328E+00    0.3944392719E-01    0.5879439198E-05    0.3211184879E+00    0.6466609876E+00
