  Pressure (Pa) 22mC5-400 (mol/kg) 3mC6-400 (mol/kg) 33mC5-400 (mol/kg) 23mC5-400 (mol/kg) C7-400 (mol/kg)
    0.1000000000E+01    0.5317218582E-03    0.2112493282E-02    0.5191556717E-03    0.4668214797E-03    0.3427928158E-02
    0.3000000000E+01    0.1588872189E-02    0.6228639856E-02    0.1532028908E-02    0.1394943598E-02    0.1010800304E-01
    0.5000000000E+01    0.2637724549E-02    0.1020585445E-01    0.2512382976E-02    0.2315786344E-02    0.1656368128E-01
    0.7000000000E+01    0.3678389018E-02    0.1405112572E-01    0.3461796871E-02    0.3229446270E-02    0.2280623310E-01
    0.9000000000E+01    0.4710973696E-02    0.1777098012E-01    0.4381744985E-02    0.4136018185E-02    0.2884618396E-01
    0.1100000000E+02    0.5735584746E-02    0.2137151953E-01    0.5273605719E-02    0.5035595204E-02    0.3469337509E-01
    0.1300000000E+02    0.6752326439E-02    0.2485845524E-01    0.6138669244E-02    0.5928268780E-02    0.4035701831E-01
    0.1500000000E+02    0.7761301191E-02    0.2823713872E-01    0.6978144535E-02    0.6814128740E-02    0.4584574554E-01
    0.1700000000E+02    0.8762609609E-02    0.3151258956E-01    0.7793165732E-02    0.7693263327E-02    0.5116765382E-01
    0.1900000000E+02    0.9756350530E-02    0.3468952080E-01    0.8584797918E-02    0.8565759227E-02    0.5633034612E-01
    0.2100000000E+02    0.1074262106E-01    0.3777236204E-01    0.9354042366E-02    0.9431701607E-02    0.6134096852E-01
    0.2300000000E+02    0.1172151660E-01    0.4076528039E-01    0.1010184132E-01    0.1029117415E-01    0.6620624407E-01
    0.2500000000E+02    0.1269313090E-01    0.4367219969E-01    0.1082908234E-01    0.1114425908E-01    0.7093250363E-01
    0.2700000000E+02    0.1365755610E-01    0.4649681801E-01    0.1153660228E-01    0.1199103721E-01    0.7552571414E-01
    0.2900000000E+02    0.1461488273E-01    0.4924262366E-01    0.1222519092E-01    0.1283158795E-01    0.7999150440E-01
    0.3100000000E+02    0.1556519978E-01    0.5191290990E-01    0.1289559429E-01    0.1366598935E-01    0.8433518875E-01
    0.3300000000E+02    0.1650859472E-01    0.5451078838E-01    0.1354851771E-01    0.1449431812E-01    0.8856178872E-01
    0.3500000000E+02    0.1744515353E-01    0.5703920148E-01    0.1418462859E-01    0.1531664969E-01    0.9267605299E-01
    0.3700000000E+02    0.1837496073E-01    0.5950093372E-01    0.1480455897E-01    0.1613305817E-01    0.9668247567E-01
    0.3900000000E+02    0.1929809942E-01    0.6189862220E-01    0.1540890791E-01    0.1694361647E-01    0.1005853132E+00
    0.4100000000E+02    0.2021465131E-01    0.6423476622E-01    0.1599824366E-01    0.1774839624E-01    0.1043885997E+00
    0.4300000000E+02    0.2112469671E-01    0.6651173622E-01    0.1657310563E-01    0.1854746795E-01    0.1080961618E+00
    0.4500000000E+02    0.2202831465E-01    0.6873178195E-01    0.1713400629E-01    0.1934090087E-01    0.1117116312E+00
    0.4700000000E+02    0.2292558279E-01    0.7089704008E-01    0.1768143281E-01    0.2012876316E-01    0.1152384573E+00
    0.4900000000E+02    0.2381657754E-01    0.7300954123E-01    0.1821584869E-01    0.2091112182E-01    0.1186799185E+00
    0.1000000000E+02    0.5224269364E-02    0.1958579847E-01    0.4831103657E-02    0.4586675302E-02    0.3179328461E-01
    0.3000000000E+02    0.1509091195E-01    0.5058700813E-01    0.1256262076E-01    0.1324955249E-01    0.8217828935E-01
    0.5000000000E+02    0.2425974593E-01    0.7404661511E-01    0.1847831636E-01    0.2130025794E-01    0.1203696177E+00
    0.7000000000E+02    0.3281145974E-01    0.9244073499E-01    0.2314139934E-01    0.2880956389E-01    0.1503640019E+00
    0.9000000000E+02    0.4081445264E-01    0.1072657510E+00    0.2689612892E-01    0.3583746485E-01    0.1745781071E+00
    0.1100000000E+03    0.4832708975E-01    0.1194796798E+00    0.2996653431E-01    0.4243515509E-01    0.1945599836E+00
    0.1300000000E+03    0.5539947979E-01    0.1297245833E+00    0.3250583877E-01    0.4864658768E-01    0.2113477008E+00
    0.1500000000E+03    0.6207488912E-01    0.1384470846E+00    0.3462313822E-01    0.5450971454E-01    0.2256637425E+00
    0.1700000000E+03    0.6839087558E-01    0.1459675983E+00    0.3639871185E-01    0.6005748079E-01    0.2380267128E+00
    0.1900000000E+03    0.7438020468E-01    0.1525220575E+00    0.3789326869E-01    0.6531862828E-01    0.2488186871E+00
    0.2100000000E+03    0.8007159523E-01    0.1582880971E+00    0.3915377833E-01    0.7031834950E-01    0.2583274884E+00
    0.2300000000E+03    0.8549033017E-01    0.1634020578E+00    0.4021728666E-01    0.7507882328E-01    0.2667741502E+00
    0.2500000000E+03    0.9065876017E-01    0.1679703589E+00    0.4111349451E-01    0.7961965649E-01    0.2743312921E+00
    0.2700000000E+03    0.9559672122E-01    0.1720773040E+00    0.4186654980E-01    0.8395825029E-01    0.2811357345E+00
    0.2900000000E+03    0.1003218829E+00    0.1757905602E+00    0.4249632431E-01    0.8811010556E-01    0.2872973574E+00
    0.3100000000E+03    0.1048500403E+00    0.1791650831E+00    0.4301934330E-01    0.9208907893E-01    0.2929054478E+00
    0.3300000000E+03    0.1091953598E+00    0.1822459781E+00    0.4344947556E-01    0.9590759849E-01    0.2980333286E+00
    0.3500000000E+03    0.1133705876E+00    0.1850706211E+00    0.4379845459E-01    0.9957684636E-01    0.3027417907E+00
    0.3700000000E+03    0.1173872263E+00    0.1876702527E+00    0.4407627834E-01    0.1031069139E+00    0.3070816731E+00
    0.3900000000E+03    0.1212556860E+00    0.1900711924E+00    0.4429152002E-01    0.1065069342E+00    0.3110958300E+00
    0.4100000000E+03    0.1249854140E+00    0.1922957749E+00    0.4445157285E-01    0.1097851958E+00    0.3148206471E+00
    0.4300000000E+03    0.1285850064E+00    0.1943630803E+00    0.4456284497E-01    0.1129492402E+00    0.3182872244E+00
    0.4500000000E+03    0.1320623038E+00    0.1962895085E+00    0.4463091612E-01    0.1160059465E+00    0.3215223076E+00
    0.4700000000E+03    0.1354244751E+00    0.1980892361E+00    0.4466066496E-01    0.1189616045E+00    0.3245490289E+00
    0.4900000000E+03    0.1386780900E+00    0.1997745823E+00    0.4465637322E-01    0.1218219783E+00    0.3273875010E+00
    0.1000000000E+03    0.4462875848E-01    0.1136533127E+00    0.2850602283E-01    0.3918718542E-01    0.1850240571E+00
    0.3000000000E+03    0.1026096661E+00    0.1775171412E+00    0.4277025598E-01    0.9012039453E-01    0.2901656824E+00
    0.5000000000E+03    0.1402660937E+00    0.2005777785E+00    0.4464265841E-01    0.1232181049E+00    0.3287417231E+00
    0.7000000000E+03    0.1675604363E+00    0.2126462437E+00    0.4329242143E-01    0.1472204813E+00    0.3492289827E+00
    0.9000000000E+03    0.1886211794E+00    0.2201221646E+00    0.4096437655E-01    0.1657499824E+00    0.3620980696E+00
    0.1100000000E+04    0.2055272225E+00    0.2252282429E+00    0.3841300280E-01    0.1806309234E+00    0.3710060197E+00
    0.1300000000E+04    0.2194704922E+00    0.2289461126E+00    0.3592078422E-01    0.1929094006E+00    0.3775765551E+00
    0.1500000000E+04    0.2311996123E+00    0.2317784773E+00    0.3359272745E-01    0.2032425336E+00    0.3826454888E+00
    0.1700000000E+04    0.2412169483E+00    0.2340102408E+00    0.3146093025E-01    0.2120713470E+00    0.3866888881E+00
    0.1900000000E+04    0.2498766471E+00    0.2358152898E+00    0.2952649071E-01    0.2197067911E+00    0.3899987365E+00
    0.2100000000E+04    0.2574379313E+00    0.2373059421E+00    0.2777762298E-01    0.2263765045E+00    0.3927645370E+00
    0.2300000000E+04    0.2640961908E+00    0.2385580712E+00    0.2619783693E-01    0.2322520974E+00    0.3951149053E+00
    0.2500000000E+04    0.2700021907E+00    0.2396248297E+00    0.2476968487E-01    0.2374660064E+00    0.3971403572E+00
    0.2700000000E+04    0.2752745043E+00    0.2405445908E+00    0.2347644038E-01    0.2421224064E+00    0.3989065372E+00
    0.2900000000E+04    0.2800078791E+00    0.2413457695E+00    0.2230278699E-01    0.2463045519E+00    0.4004622706E+00
    0.3100000000E+04    0.2842790481E+00    0.2420498672E+00    0.2123502939E-01    0.2500798791E+00    0.4018446656E+00
    0.3300000000E+04    0.2881508776E+00    0.2426734607E+00    0.2026107868E-01    0.2535036454E+00    0.4030824555E+00
    0.3500000000E+04    0.2916753950E+00    0.2432295409E+00    0.1937033717E-01    0.2566215884E+00    0.4041982541E+00
    0.3700000000E+04    0.2948960427E+00    0.2437284357E+00    0.1855354542E-01    0.2594719043E+00    0.4052101154E+00
    0.3900000000E+04    0.2978493842E+00    0.2441784611E+00    0.1780262281E-01    0.2620867459E+00    0.4061326376E+00
    0.4100000000E+04    0.3005664146E+00    0.2445863905E+00    0.1711051600E-01    0.2644933731E+00    0.4069777591E+00
    0.4300000000E+04    0.3030735795E+00    0.2449577969E+00    0.1647106158E-01    0.2667150484E+00    0.4077553437E+00
    0.4500000000E+04    0.3053935776E+00    0.2452973089E+00    0.1587886482E-01    0.2687717411E+00    0.4084736160E+00
    0.4700000000E+04    0.3075459980E+00    0.2456088029E+00    0.1532919415E-01    0.2706806871E+00    0.4091394921E+00
    0.4900000000E+04    0.3095478317E+00    0.2458955505E+00    0.1481789016E-01    0.2724568389E+00    0.4097588319E+00
    0.1000000000E+04    0.1975052456E+00    0.2228938981E+00    0.3969280959E-01    0.1735690357E+00    0.3669191175E+00
    0.3000000000E+04    0.2821970251E+00    0.2417088202E+00    0.2175646336E-01    0.2482393638E+00    0.4011731738E+00
    0.5000000000E+04    0.3104969813E+00    0.2460305298E+00    0.1457546288E-01    0.2732992560E+00    0.4100526424E+00
    0.7000000000E+04    0.3243262480E+00    0.2479281744E+00    0.1105013866E-01    0.2855987791E+00    0.4143862946E+00
    0.9000000000E+04    0.3324078734E+00    0.2489762565E+00    0.9000596328E-02    0.2928187461E+00    0.4170331073E+00
    0.1100000000E+05    0.3376668608E+00    0.2496291254E+00    0.7669458511E-02    0.2975386213E+00    0.4188524646E+00
    0.1300000000E+05    0.3413443800E+00    0.2500669775E+00    0.6736430599E-02    0.3008545911E+00    0.4201981746E+00
    0.1500000000E+05    0.3440518857E+00    0.2503754800E+00    0.6045421715E-02    0.3033074932E+00    0.4212445180E+00
    0.1700000000E+05    0.3461237484E+00    0.2506005056E+00    0.5512037855E-02    0.3051935270E+00    0.4220880724E+00
    0.1900000000E+05    0.3477575296E+00    0.2507687878E+00    0.5086909973E-02    0.3066879666E+00    0.4227870335E+00
    0.2100000000E+05    0.3490771468E+00    0.2508969276E+00    0.4739322705E-02    0.3079009183E+00    0.4233787439E+00
    0.2300000000E+05    0.3501641127E+00    0.2509957569E+00    0.4449197928E-02    0.3089049215E+00    0.4238883677E+00
    0.2500000000E+05    0.3510741663E+00    0.2510726289E+00    0.4202868626E-02    0.3097496566E+00    0.4243335416E+00
    0.2700000000E+05    0.3518466708E+00    0.2511327008E+00    0.3990712549E-02    0.3104702627E+00    0.4247270311E+00
    0.2900000000E+05    0.3525101911E+00    0.2511796888E+00    0.3805759140E-02    0.3110922800E+00    0.4250783279E+00
    0.3100000000E+05    0.3530859440E+00    0.2512163330E+00    0.3642833980E-02    0.3116347083E+00    0.4253946522E+00
    0.3300000000E+05    0.3535900087E+00    0.2512446943E+00    0.3498013975E-02    0.3121119702E+00    0.4256816049E+00
    0.3500000000E+05    0.3540347874E+00    0.2512663491E+00    0.3368269400E-02    0.3125352071E+00    0.4259436055E+00
    0.3700000000E+05    0.3544299951E+00    0.2512825219E+00    0.3251222164E-02    0.3129131611E+00    0.4261841935E+00
    0.3900000000E+05    0.3547833474E+00    0.2512941759E+00    0.3144978608E-02    0.3132527860E+00    0.4264062411E+00
    0.4100000000E+05    0.3551010476E+00    0.2513020780E+00    0.3048011335E-02    0.3135596818E+00    0.4266121066E+00
    0.4300000000E+05    0.3553881388E+00    0.2513068452E+00    0.2959074094E-02    0.3138384084E+00    0.4268037467E+00
    0.4500000000E+05    0.3556487618E+00    0.2513089784E+00    0.2877139401E-02    0.3140927160E+00    0.4269828004E+00
    0.4700000000E+05    0.3558863475E+00    0.2513088880E+00    0.2801352122E-02    0.3143257171E+00    0.4271506522E+00
    0.4900000000E+05    0.3561037623E+00    0.2513069125E+00    0.2730994431E-02    0.3145400161E+00    0.4273084809E+00
    0.1000000000E+05    0.3352910958E+00    0.2493375362E+00    0.8270868802E-02    0.2954037055E+00    0.4180179089E+00
    0.3000000000E+05    0.3528079330E+00    0.2511991618E+00    0.3721812655E-02    0.3113724518E+00    0.4252404795E+00
    0.5000000000E+05    0.3562056749E+00    0.2513053077E+00    0.2697658183E-02    0.3146408523E+00    0.4273839582E+00
    0.7000000000E+05    0.3576097860E+00    0.2512225057E+00    0.2207987449E-02    0.3160635337E+00    0.4285510786E+00
    0.9000000000E+05    0.3583643841E+00    0.2511016156E+00    0.1909428704E-02    0.3168686278E+00    0.4293279983E+00
    0.1100000000E+06    0.3588296531E+00    0.2509755739E+00    0.1703761179E-02    0.3173913184E+00    0.4299008744E+00
    0.1300000000E+06    0.3591419562E+00    0.2508536005E+00    0.1551263438E-02    0.3177607749E+00    0.4303503064E+00
    0.1500000000E+06    0.3593640371E+00    0.2507383014E+00    0.1432481119E-02    0.3180374802E+00    0.4307178344E+00
    0.1700000000E+06    0.3595286853E+00    0.2506301240E+00    0.1336636924E-02    0.3182535970E+00    0.4310274364E+00
    0.1900000000E+06    0.3596546551E+00    0.2505287721E+00    0.1257221983E-02    0.3184278425E+00    0.4312941063E+00
    0.2100000000E+06    0.3597534234E+00    0.2504337110E+00    0.1190045291E-02    0.3185718701E+00    0.4315277965E+00
    0.2300000000E+06    0.3598323919E+00    0.2503443588E+00    0.1132271444E-02    0.3186933267E+00    0.4317354256E+00
    0.2500000000E+06    0.3598965401E+00    0.2502601586E+00    0.1081905090E-02    0.3187974456E+00    0.4319219841E+00
    0.2700000000E+06    0.3599493349E+00    0.2501806036E+00    0.1037496204E-02    0.3188879342E+00    0.4320911821E+00
    0.2900000000E+06    0.3599932610E+00    0.2501052430E+00    0.9979625292E-03    0.3189674956E+00    0.4322458477E+00
    0.3100000000E+06    0.3600301430E+00    0.2500336791E+00    0.9624778667E-03    0.3190381493E+00    0.4323881830E+00
    0.3300000000E+06    0.3600613493E+00    0.2499655626E+00    0.9303991943E-03    0.3191014359E+00    0.4325199342E+00
    0.3500000000E+06    0.3600879246E+00    0.2499005865E+00    0.9012176138E-03    0.3191585526E+00    0.4326425080E+00
    0.3700000000E+06    0.3601106798E+00    0.2498384808E+00    0.8745244427E-03    0.3192104443E+00    0.4327570529E+00
    0.3900000000E+06    0.3601302529E+00    0.2497790072E+00    0.8499872188E-03    0.3192578676E+00    0.4328645186E+00
    0.4100000000E+06    0.3601471523E+00    0.2497219548E+00    0.8273323685E-03    0.3193014358E+00    0.4329656984E+00
    0.4300000000E+06    0.3601617875E+00    0.2496671362E+00    0.8063324567E-03    0.3193416519E+00    0.4330612619E+00
    0.4500000000E+06    0.3601744920E+00    0.2496143844E+00    0.7867966541E-03    0.3193789323E+00    0.4331517787E+00
    0.4700000000E+06    0.3601855397E+00    0.2495635502E+00    0.7685635038E-03    0.3194136252E+00    0.4332377375E+00
    0.4900000000E+06    0.3601951575E+00    0.2495144996E+00    0.7514953604E-03    0.3194460239E+00    0.4333195603E+00
    0.1000000000E+06    0.3586220630E+00    0.2510384142E+00    0.1798169237E-02    0.3171547864E+00    0.4296335746E+00
    0.3000000000E+06    0.3600124881E+00    0.2500690094E+00    0.9797578882E-03    0.3190038303E+00    0.4323184383E+00
    0.5000000000E+06    0.3601994906E+00    0.2494906050E+00    0.7433605784E-03    0.3194614422E+00    0.4333590373E+00
    0.7000000000E+06    0.3602438963E+00    0.2490825612E+00    0.6203118569E-03    0.3196939438E+00    0.4339998001E+00
    0.9000000000E+06    0.3602490888E+00    0.2487669968E+00    0.5420493162E-03    0.3198431286E+00    0.4344603919E+00
    0.1100000000E+07    0.3602400836E+00    0.2485095086E+00    0.4867723172E-03    0.3199507466E+00    0.4348188870E+00
    0.1300000000E+07    0.3602253528E+00    0.2482919155E+00    0.4451093025E-03    0.3200340091E+00    0.4351118313E+00
    0.1500000000E+07    0.3602083285E+00    0.2481034391E+00    0.4122830733E-03    0.3201014799E+00    0.4353592117E+00
    0.1700000000E+07    0.3601905554E+00    0.2479371603E+00    0.3855714293E-03    0.3201579723E+00    0.4355731263E+00
    0.1900000000E+07    0.3601727714E+00    0.2477883711E+00    0.3632955449E-03    0.3202064341E+00    0.4357614432E+00
    0.2100000000E+07    0.3601553375E+00    0.2476537217E+00    0.3443568852E-03    0.3202487895E+00    0.4359295618E+00
    0.2300000000E+07    0.3601384263E+00    0.2475307432E+00    0.3280027033E-03    0.3202863583E+00    0.4360813448E+00
    0.2500000000E+07    0.3601221129E+00    0.2474175630E+00    0.3136977732E-03    0.3203200818E+00    0.4362196492E+00
    0.2700000000E+07    0.3601064203E+00    0.2473127270E+00    0.3010498196E-03    0.3203506532E+00    0.4363466467E+00
    0.2900000000E+07    0.3600913438E+00    0.2472150831E+00    0.2897639638E-03    0.3203785969E+00    0.4364640257E+00
    0.3100000000E+07    0.3600768638E+00    0.2471237033E+00    0.2796137284E-03    0.3204043185E+00    0.4365731247E+00
    0.3300000000E+07    0.3600629533E+00    0.2470378283E+00    0.2704219308E-03    0.3204281378E+00    0.4366750225E+00
    0.3500000000E+07    0.3600495823E+00    0.2469568297E+00    0.2620477137E-03    0.3204503111E+00    0.4367706008E+00
    0.3700000000E+07    0.3600367199E+00    0.2468801810E+00    0.2543775128E-03    0.3204710470E+00    0.4368605896E+00
    0.3900000000E+07    0.3600243357E+00    0.2468074367E+00    0.2473186236E-03    0.3204905171E+00    0.4369455999E+00
    0.4100000000E+07    0.3600124008E+00    0.2467382168E+00    0.2407945279E-03    0.3205088646E+00    0.4370261481E+00
    0.4300000000E+07    0.3600008875E+00    0.2466721940E+00    0.2347414379E-03    0.3205262097E+00    0.4371026747E+00
    0.4500000000E+07    0.3599897702E+00    0.2466090849E+00    0.2291057011E-03    0.3205426548E+00    0.4371755582E+00
    0.4700000000E+07    0.3599790249E+00    0.2465486423E+00    0.2238418228E-03    0.3205582873E+00    0.4372451266E+00
    0.4900000000E+07    0.3599686295E+00    0.2464906490E+00    0.2189109400E-03    0.3205731826E+00    0.4373116653E+00
    0.1000000000E+07    0.3602456487E+00    0.2486323664E+00    0.5122799557E-03    0.3199007592E+00    0.4346495664E+00
    0.3000000000E+07    0.3600840308E+00    0.2471686611E+00    0.2845589474E-03    0.3203917138E+00    0.4365195375E+00
    0.5000000000E+07    0.3599635565E+00    0.2464625101E+00    0.2165597420E-03    0.3205803747E+00    0.4373438780E+00
    0.7000000000E+07    0.3598762441E+00    0.2459917508E+00    0.1809150776E-03    0.3206976944E+00    0.4378763747E+00
    0.9000000000E+07    0.3598081668E+00    0.2456378652E+00    0.1581763923E-03    0.3207828246E+00    0.4382697041E+00
    0.1100000000E+08    0.3597524491E+00    0.2453541288E+00    0.1420902183E-03    0.3208496160E+00    0.4385814400E+00
    0.1300000000E+08    0.3597053118E+00    0.2451172408E+00    0.1299539277E-03    0.3209045626E+00    0.4388395425E+00
    0.1500000000E+08    0.3596644712E+00    0.2449138811E+00    0.1203855108E-03    0.3209512291E+00    0.4390597063E+00
    0.1700000000E+08    0.3596284458E+00    0.2447357135E+00    0.1125958357E-03    0.3209917818E+00    0.4392516207E+00
    0.1900000000E+08    0.3595962207E+00    0.2445771719E+00    0.1060975310E-03    0.3210276356E+00    0.4394216866E+00
    0.2100000000E+08    0.3595670710E+00    0.2444343538E+00    0.1005713490E-03    0.3210597654E+00    0.4395743531E+00
    0.2300000000E+08    0.3595404610E+00    0.2443044172E+00    0.9579835586E-04    0.3210888714E+00    0.4397128376E+00
    0.2500000000E+08    0.3595159836E+00    0.2441852272E+00    0.9162278456E-04    0.3211154732E+00    0.4398395415E+00
    0.2700000000E+08    0.3594933223E+00    0.2440751399E+00    0.8793041320E-04    0.3211399674E+00    0.4399563048E+00
