  Pressure (Pa) 22mC5-400 (mol/kg) 3mC6-400 (mol/kg) 33mC5-400 (mol/kg) 23mC5-400 (mol/kg) C7-400 (mol/kg)
    0.1000000000E+01    0.5319242057E-03    0.1558932513E-02    0.1281285957E-03    0.4669990422E-03    0.1517922295E-01
    0.3000000000E+01    0.1590676524E-02    0.4457000508E-02    0.3691019964E-03    0.1396526930E-02    0.4340779518E-01
    0.5000000000E+01    0.2642690535E-02    0.7094841028E-02    0.5920584265E-03    0.2320144091E-02    0.6911422260E-01
    0.7000000000E+01    0.3688033225E-02    0.9505943084E-02    0.7993909211E-03    0.3237909270E-02    0.9262256124E-01
    0.9000000000E+01    0.4726770687E-02    0.1171828780E-01    0.9930840937E-03    0.4149880428E-02    0.1142036127E+00
    0.1100000000E+02    0.5758968133E-02    0.1375543585E-01    0.1174796637E-02    0.5056114755E-02    0.1340854331E+00
    0.1300000000E+02    0.6784689912E-02    0.1563736705E-01    0.1345924757E-02    0.5956668685E-02    0.1524614480E+00
    0.1500000000E+02    0.7803999523E-02    0.1738113563E-01    0.1507651464E-02    0.6851597902E-02    0.1694967861E+00
    0.1700000000E+02    0.8816959628E-02    0.1900138672E-01    0.1660985256E-02    0.7740957359E-02    0.1853332723E+00
    0.1900000000E+02    0.9823632066E-02    0.2051076712E-01    0.1806790749E-02    0.8624801289E-02    0.2000933984E+00
    0.2100000000E+02    0.1082407787E-01    0.2192025488E-01    0.1945813138E-02    0.9503183213E-02    0.2138835104E+00
    0.2300000000E+02    0.1181835727E-01    0.2323942565E-01    0.2078697876E-02    0.1037615596E-01    0.2267963832E+00
    0.2500000000E+02    0.1280652972E-01    0.2447666968E-01    0.2206006629E-02    0.1124377165E-01    0.2389133200E+00
    0.2700000000E+02    0.1378865390E-01    0.2563936968E-01    0.2328230295E-02    0.1210608177E-01    0.2503058718E+00
    0.2900000000E+02    0.1476478774E-01    0.2673404763E-01    0.2445799694E-02    0.1296313710E-01    0.2610372576E+00
    0.3100000000E+02    0.1573498840E-01    0.2776648666E-01    0.2559094399E-02    0.1381498779E-01    0.2711635433E+00
    0.3300000000E+02    0.1669931235E-01    0.2874183274E-01    0.2668450073E-02    0.1466168333E-01    0.2807346257E+00
    0.3500000000E+02    0.1765781529E-01    0.2966468007E-01    0.2774164592E-02    0.1550327260E-01    0.2897950585E+00
    0.3700000000E+02    0.1861055223E-01    0.3053914310E-01    0.2876503189E-02    0.1633980384E-01    0.2983847491E+00
    0.3900000000E+02    0.1955757749E-01    0.3136891753E-01    0.2975702784E-02    0.1717132467E-01    0.3065395489E+00
    0.4100000000E+02    0.2049894470E-01    0.3215733226E-01    0.3071975655E-02    0.1799788213E-01    0.3142917562E+00
    0.4300000000E+02    0.2143470679E-01    0.3290739376E-01    0.3165512558E-02    0.1881952264E-01    0.3216705455E+00
    0.4500000000E+02    0.2236491605E-01    0.3362182423E-01    0.3256485392E-02    0.1963629205E-01    0.3287023370E+00
    0.4700000000E+02    0.2328962409E-01    0.3430309433E-01    0.3345049479E-02    0.2044823564E-01    0.3354111135E+00
    0.4900000000E+02    0.2420888190E-01    0.3495345166E-01    0.3431345529E-02    0.2125539812E-01    0.3418186956E+00
    0.1000000000E+02    0.5243682870E-02    0.1275743720E-01    0.1085345166E-02    0.4603711151E-02    0.1243441077E+00
    0.3000000000E+02    0.1525062617E-01    0.2725771153E-01    0.2502959453E-02    0.1338970992E-01    0.2661727852E+00
    0.5000000000E+02    0.2466648272E-01    0.3526768553E-01    0.3473683438E-02    0.2165720025E-01    0.3449158258E+00
    0.7000000000E+02    0.3354433005E-01    0.4034194413E-01    0.4226937290E-02    0.2945273026E-01    0.3950524506E+00
    0.9000000000E+02    0.4193100252E-01    0.4384080272E-01    0.4846942001E-02    0.3681737355E-01    0.4297996567E+00
    0.1100000000E+03    0.4986798210E-01    0.4639694915E-01    0.5372785398E-02    0.4378751026E-01    0.4553148446E+00
    0.1300000000E+03    0.5739214145E-01    0.4834449541E-01    0.5825981823E-02    0.5039547872E-01    0.4748549709E+00
    0.1500000000E+03    0.6453636702E-01    0.4987648326E-01    0.6220020449E-02    0.5667012170E-01    0.4903049155E+00
    0.1700000000E+03    0.7133008411E-01    0.5111220893E-01    0.6564237348E-02    0.6263724684E-01    0.5028314189E+00
    0.1900000000E+03    0.7779970136E-01    0.5212935569E-01    0.6865583781E-02    0.6832001637E-01    0.5131954969E+00
    0.2100000000E+03    0.8396898860E-01    0.5298067470E-01    0.7129515264E-02    0.7373927849E-01    0.5219147811E+00
    0.2300000000E+03    0.8985939957E-01    0.5370323895E-01    0.7360476757E-02    0.7891385026E-01    0.5293536672E+00
    0.2500000000E+03    0.9549034845E-01    0.5432386130E-01    0.7562187285E-02    0.8386076013E-01    0.5357761472E+00
    0.2700000000E+03    0.1008794478E+00    0.5486241155E-01    0.7737818064E-02    0.8859545657E-01    0.5413781854E+00
    0.2900000000E+03    0.1060427140E+00    0.5533392524E-01    0.7890110600E-02    0.9313198823E-01    0.5463083214E+00
    0.3100000000E+03    0.1109947452E+00    0.5574998806E-01    0.8021459096E-02    0.9748316002E-01    0.5506812097E+00
    0.3300000000E+03    0.1157488761E+00    0.5611967059E-01    0.8133970534E-02    0.1016606688E+00    0.5545867697E+00
    0.3500000000E+03    0.1203173131E+00    0.5645017483E-01    0.8229510142E-02    0.1056752216E+00    0.5580965204E+00
    0.3700000000E+03    0.1247112517E+00    0.5674729116E-01    0.8309736892E-02    0.1095366393E+00    0.5612680633E+00
    0.3900000000E+03    0.1289409804E+00    0.5701572751E-01    0.8376131913E-02    0.1132539472E+00    0.5641483140E+00
    0.4100000000E+03    0.1330159717E+00    0.5725935064E-01    0.8430021706E-02    0.1168354546E+00    0.5667758733E+00
    0.4300000000E+03    0.1369449623E+00    0.5748136564E-01    0.8472597434E-02    0.1202888258E+00    0.5691827931E+00
    0.4500000000E+03    0.1407360239E+00    0.5768445140E-01    0.8504931154E-02    0.1236211417E+00    0.5713959105E+00
    0.4700000000E+03    0.1443966262E+00    0.5787086411E-01    0.8527989639E-02    0.1268389553E+00    0.5734378684E+00
    0.4900000000E+03    0.1479336928E+00    0.5804251730E-01    0.8542646228E-02    0.1299483405E+00    0.5753279049E+00
    0.1000000000E+03    0.4595329918E-01    0.4521134198E-01    0.5120031523E-02    0.4034964621E-01    0.4434640335E+00
    0.3000000000E+03    0.1085442726E+00    0.5554827084E-01    0.7958265026E-02    0.9532998855E-01    0.5485583070E+00
    0.5000000000E+03    0.1496579269E+00    0.5812332903E-01    0.8547073736E-02    0.1314641504E+00    0.5762211884E+00
    0.7000000000E+03    0.1789967423E+00    0.5925856376E-01    0.8350548564E-02    0.1572632617E+00    0.5890806973E+00
    0.9000000000E+03    0.2011033999E+00    0.5988288337E-01    0.7870213012E-02    0.1767128724E+00    0.5965372419E+00
    0.1100000000E+04    0.2184115317E+00    0.6026990282E-01    0.7306066930E-02    0.1919484948E+00    0.6014146717E+00
    0.1300000000E+04    0.2323544864E+00    0.6052850758E-01    0.6741132034E-02    0.2042281016E+00    0.6048583183E+00
    0.1500000000E+04    0.2438374300E+00    0.6071035162E-01    0.6209093931E-02    0.2143462414E+00    0.6074217322E+00
    0.1700000000E+04    0.2534631542E+00    0.6084297571E-01    0.5721866283E-02    0.2228321312E+00    0.6094055208E+00
    0.1900000000E+04    0.2616501491E+00    0.6094234760E-01    0.5281614290E-02    0.2300532441E+00    0.6109871621E+00
    0.2100000000E+04    0.2686988341E+00    0.6101832950E-01    0.4886241848E-02    0.2362734217E+00    0.6122782604E+00
    0.2300000000E+04    0.2748308702E+00    0.6107732159E-01    0.4531962004E-02    0.2416873700E+00    0.6133525485E+00
    0.2500000000E+04    0.2802136033E+00    0.6112364603E-01    0.4214508332E-02    0.2464421100E+00    0.6142607135E+00
    0.2700000000E+04    0.2849758583E+00    0.6116031877E-01    0.3929693785E-02    0.2506508396E+00    0.6150387579E+00
    0.2900000000E+04    0.2892184837E+00    0.6118950270E-01    0.3673650851E-02    0.2544021892E+00    0.6157129643E+00
    0.3100000000E+04    0.2930215887E+00    0.6121278546E-01    0.3442915714E-02    0.2577665744E+00    0.6163029713E+00
    0.3300000000E+04    0.2964496318E+00    0.6123135594E-01    0.3234437420E-02    0.2608006635E+00    0.6168237507E+00
    0.3500000000E+04    0.2995550735E+00    0.6124611999E-01    0.3045552867E-02    0.2635505850E+00    0.6172869170E+00
    0.3700000000E+04    0.3023810483E+00    0.6125777841E-01    0.2873948210E-02    0.2660542730E+00    0.6177016194E+00
    0.3900000000E+04    0.3049633502E+00    0.6126688068E-01    0.2717616906E-02    0.2683432117E+00    0.6180751637E+00
    0.4100000000E+04    0.3073319307E+00    0.6127386277E-01    0.2574819272E-02    0.2704437505E+00    0.6184134547E+00
    0.4300000000E+04    0.3095120434E+00    0.6127907434E-01    0.2444045660E-02    0.2723781097E+00    0.6187213169E+00
    0.4500000000E+04    0.3115251298E+00    0.6128279851E-01    0.2323983948E-02    0.2741651586E+00    0.6190027307E+00
    0.4700000000E+04    0.3133895111E+00    0.6128526651E-01    0.2213491355E-02    0.2758210233E+00    0.6192610102E+00
    0.4900000000E+04    0.3151209355E+00    0.6128666869E-01    0.2111570249E-02    0.2773595670E+00    0.6194989361E+00
    0.1000000000E+04    0.2102515190E+00    0.6009725773E-01    0.7591771356E-02    0.1847646149E+00    0.5992062613E+00
    0.3000000000E+04    0.2911706293E+00    0.6120179966E-01    0.3555319977E-02    0.2561289309E+00    0.6160174655E+00
    0.5000000000E+04    0.3159411154E+00    0.6128702049E-01    0.2063546788E-02    0.2780886530E+00    0.6196110158E+00
    0.7000000000E+04    0.3278619815E+00    0.6126508407E-01    0.1390520417E-02    0.2887107159E+00    0.6212010848E+00
    0.9000000000E+04    0.3348421422E+00    0.6122046525E-01    0.1026657389E-02    0.2949620414E+00    0.6221083303E+00
    0.1100000000E+05    0.3394149752E+00    0.6117144651E-01    0.8051500693E-03    0.2990782727E+00    0.6227003756E+00
    0.1300000000E+05    0.3426378771E+00    0.6112323701E-01    0.6587662820E-03    0.3019941630E+00    0.6231204420E+00
    0.1500000000E+05    0.3450292659E+00    0.6107741902E-01    0.5560620809E-03    0.3041687909E+00    0.6234360412E+00
    0.1700000000E+05    0.3468727512E+00    0.6103438144E-01    0.4806528228E-03    0.3058537343E+00    0.6236832309E+00
    0.1900000000E+05    0.3483363860E+00    0.6099408976E-01    0.4232749558E-03    0.3071983206E+00    0.6238830587E+00
    0.2100000000E+05    0.3495260063E+00    0.6095636190E-01    0.3783465838E-03    0.3082967539E+00    0.6240486573E+00
    0.2300000000E+05    0.3505115495E+00    0.6092097431E-01    0.3423279792E-03    0.3092113914E+00    0.6241886580E+00
    0.2500000000E+05    0.3513410666E+00    0.6088770374E-01    0.3128784644E-03    0.3099851492E+00    0.6243089754E+00
    0.2700000000E+05    0.3520486523E+00    0.6085634292E-01    0.2883952029E-03    0.3106485305E+00    0.6244138033E+00
    0.2900000000E+05    0.3526591628E+00    0.6082670547E-01    0.2677476342E-03    0.3112238114E+00    0.6245062022E+00
    0.3100000000E+05    0.3531911429E+00    0.6079862616E-01    0.2501178000E-03    0.3117276397E+00    0.6245884598E+00
    0.3300000000E+05    0.3536587071E+00    0.6077195939E-01    0.2349007240E-03    0.3121727081E+00    0.6246623228E+00
    0.3500000000E+05    0.3540727865E+00    0.6074657713E-01    0.2216402363E-03    0.3125688632E+00    0.6247291489E+00
    0.3700000000E+05    0.3544419775E+00    0.6072236666E-01    0.2099864612E-03    0.3129238616E+00    0.6247900104E+00
    0.3900000000E+05    0.3547731322E+00    0.6069922858E-01    0.1996669511E-03    0.3132438971E+00    0.6248457664E+00
    0.4100000000E+05    0.3550717797E+00    0.6067707500E-01    0.1904666548E-03    0.3135339754E+00    0.6248971135E+00
    0.4300000000E+05    0.3553424295E+00    0.6065582795E-01    0.1822137395E-03    0.3137981867E+00    0.6249446232E+00
    0.4500000000E+05    0.3555887966E+00    0.6063541803E-01    0.1747693799E-03    0.3140399059E+00    0.6249887690E+00
    0.4700000000E+05    0.3558139684E+00    0.6061578328E-01    0.1680202847E-03    0.3142619428E+00    0.6250299469E+00
    0.4900000000E+05    0.3560205316E+00    0.6059686819E-01    0.1618731477E-03    0.3144666555E+00    0.6250684906E+00
    0.1000000000E+05    0.3373448696E+00    0.6119604419E-01    0.9035537921E-03    0.2972122864E+00    0.6224321488E+00
    0.3000000000E+05    0.3529340001E+00    0.6081248058E-01    0.2585974196E-03    0.3114837862E+00    0.6245484789E+00
    0.5000000000E+05    0.3561175311E+00    0.6058766471E-01    0.1590005711E-03    0.3145631508E+00    0.6250868651E+00
    0.7000000000E+05    0.3574668129E+00    0.6043156768E-01    0.1197937092E-03    0.3159373362E+00    0.6253668682E+00
    0.9000000000E+05    0.3582042052E+00    0.6031216331E-01    0.9861879147E-04    0.3167271548E+00    0.6255501569E+00
    0.1100000000E+06    0.3586647468E+00    0.6021551987E-01    0.8519215962E-04    0.3172456038E+00    0.6256846385E+00
    0.1300000000E+06    0.3589772079E+00    0.6013436466E-01    0.7581695311E-04    0.3176151463E+00    0.6257902027E+00
    0.1500000000E+06    0.3592015095E+00    0.6006442790E-01    0.6883865562E-04    0.3178937697E+00    0.6258768194E+00
    0.1700000000E+06    0.3593692488E+00    0.6000299050E-01    0.6340405482E-04    0.3181125812E+00    0.6259501337E+00
    0.1900000000E+06    0.3594986343E+00    0.5994821452E-01    0.5902707935E-04    0.3182898138E+00    0.6260136282E+00
    0.2100000000E+06    0.3596008805E+00    0.5989879971E-01    0.5540957154E-04    0.3184368883E+00    0.6260695926E+00
    0.2300000000E+06    0.3596832616E+00    0.5985379244E-01    0.5235790512E-04    0.3185613376E+00    0.6261196076E+00
    0.2500000000E+06    0.3597506958E+00    0.5981247260E-01    0.4974050589E-04    0.3186683405E+00    0.6261648082E+00
    0.2700000000E+06    0.3598066239E+00    0.5977428314E-01    0.4746460691E-04    0.3187615806E+00    0.6262060355E+00
    0.2900000000E+06    0.3598535221E+00    0.5973878427E-01    0.4546277221E-04    0.3188437530E+00    0.6262439295E+00
    0.3100000000E+06    0.3598932163E+00    0.5970562275E-01    0.4368470164E-04    0.3189168779E+00    0.6262789880E+00
    0.3300000000E+06    0.3599270807E+00    0.5967451058E-01    0.4209204347E-04    0.3189825013E+00    0.6263116056E+00
    0.3500000000E+06    0.3599561687E+00    0.5964520985E-01    0.4065499672E-04    0.3190418272E+00    0.6263421003E+00
    0.3700000000E+06    0.3599813004E+00    0.5961752179E-01    0.3935001910E-04    0.3190958089E+00    0.6263707319E+00
    0.3900000000E+06    0.3600031232E+00    0.5959127860E-01    0.3815824070E-04    0.3191452111E+00    0.6263977155E+00
    0.4100000000E+06    0.3600221547E+00    0.5956633738E-01    0.3706434096E-04    0.3191906551E+00    0.6264232310E+00
    0.4300000000E+06    0.3600388131E+00    0.5954257540E-01    0.3605573773E-04    0.3192326514E+00    0.6264474305E+00
    0.4500000000E+06    0.3600534399E+00    0.5951988650E-01    0.3512199096E-04    0.3192716235E+00    0.6264704436E+00
    0.4700000000E+06    0.3600663166E+00    0.5949817821E-01    0.3425435740E-04    0.3193079260E+00    0.6264923816E+00
    0.4900000000E+06    0.3600776768E+00    0.5947736952E-01    0.3344545298E-04    0.3193418583E+00    0.6265133410E+00
    0.1000000000E+06    0.3584586136E+00    0.6026154751E-01    0.9124115383E-04    0.3170103899E+00    0.6256219136E+00
    0.3000000000E+06    0.3598741750E+00    0.5972193067E-01    0.4454839694E-04    0.3188813404E+00    0.6262617865E+00
    0.5000000000E+06    0.3600828506E+00    0.5946727988E-01    0.3306102328E-04    0.3193580167E+00    0.6265234804E+00
    0.7000000000E+06    0.3601407768E+00    0.5929912081E-01    0.2732694106E-04    0.3196024242E+00    0.6266906065E+00
    0.9000000000E+06    0.3601553531E+00    0.5917344694E-01    0.2375108841E-04    0.3197598764E+00    0.6268138048E+00
    0.1100000000E+07    0.3601533504E+00    0.5907309970E-01    0.2125439600E-04    0.3198736656E+00    0.6269115028E+00
    0.1300000000E+07    0.3601441097E+00    0.5898958361E-01    0.1938683020E-04    0.3199617672E+00    0.6269925078E+00
    0.1500000000E+07    0.3601315445E+00    0.5891806756E-01    0.1792328908E-04    0.3200331690E+00    0.6270617232E+00
    0.1700000000E+07    0.3601174905E+00    0.5885554046E-01    0.1673716491E-04    0.3200929402E+00    0.6271221626E+00
    0.1900000000E+07    0.3601028730E+00    0.5879999847E-01    0.1575111919E-04    0.3201441935E+00    0.6271758119E+00
    0.2100000000E+07    0.3600881793E+00    0.5875004064E-01    0.1491491443E-04    0.3201889650E+00    0.6272240498E+00
    0.2300000000E+07    0.3600736716E+00    0.5870464898E-01    0.1419432500E-04    0.3202286529E+00    0.6272678729E+00
    0.2500000000E+07    0.3600594899E+00    0.5866306056E-01    0.1356512936E-04    0.3202642558E+00    0.6273080248E+00
    0.2700000000E+07    0.3600457059E+00    0.5862468885E-01    0.1300964404E-04    0.3202965099E+00    0.6273450756E+00
    0.2900000000E+07    0.3600323518E+00    0.5858907321E-01    0.1251461959E-04    0.3203259721E+00    0.6273794718E+00
    0.3100000000E+07    0.3600194371E+00    0.5855584529E-01    0.1206990839E-04    0.3203530736E+00    0.6274115697E+00
    0.3300000000E+07    0.3600069578E+00    0.5852470591E-01    0.1166759076E-04    0.3203781545E+00    0.6274416584E+00
    0.3500000000E+07    0.3599949024E+00    0.5849540878E-01    0.1130138397E-04    0.3204014875E+00    0.6274699753E+00
    0.3700000000E+07    0.3599832550E+00    0.5846774871E-01    0.1096623210E-04    0.3204232944E+00    0.6274967183E+00
    0.3900000000E+07    0.3599719979E+00    0.5844155296E-01    0.1065801478E-04    0.3204437579E+00    0.6275220536E+00
    0.4100000000E+07    0.3599611122E+00    0.5841667474E-01    0.1037333609E-04    0.3204630301E+00    0.6275461225E+00
    0.4300000000E+07    0.3599505793E+00    0.5839298827E-01    0.1010936892E-04    0.3204812392E+00    0.6275690458E+00
    0.4500000000E+07    0.3599403807E+00    0.5837038493E-01    0.9863738207E-05    0.3204984939E+00    0.6275909280E+00
    0.4700000000E+07    0.3599304990E+00    0.5834877030E-01    0.9634432270E-05    0.3205148873E+00    0.6276118598E+00
    0.4900000000E+07    0.3599209172E+00    0.5832806178E-01    0.9419734399E-05    0.3205304996E+00    0.6276319205E+00
    0.1000000000E+07    0.3601556450E+00    0.5912075829E-01    0.2240370882E-04    0.3198207958E+00    0.6268651618E+00
    0.3000000000E+07    0.3600258395E+00    0.5857218088E-01    0.1228651403E-04    0.3203397949E+00    0.6273957886E+00
    0.5000000000E+07    0.3599162339E+00    0.5831802426E-01    0.9317394322E-05    0.3205380350E+00    0.6276416464E+00
    0.7000000000E+07    0.3598349722E+00    0.5815103495E-01    0.7768574726E-05    0.3206606837E+00    0.6278036882E+00
    0.9000000000E+07    0.3597709122E+00    0.5802654376E-01    0.6783112709E-05    0.3207493494E+00    0.6279248047E+00
    0.1100000000E+08    0.3597181237E+00    0.5792728932E-01    0.6087157727E-05    0.3208187162E+00    0.6280215707E+00
    0.1300000000E+08    0.3596732507E+00    0.5784476606E-01    0.5562752674E-05    0.3208756521E+00    0.6281021633E+00
    0.1500000000E+08    0.3596342320E+00    0.5777415183E-01    0.5149712401E-05    0.3209239177E+00    0.6281712251E+00
    0.1700000000E+08    0.3595997160E+00    0.5771244754E-01    0.4813726299E-05    0.3209657942E+00    0.6282316475E+00
    0.1900000000E+08    0.3595687696E+00    0.5765766050E-01    0.4533630424E-05    0.3210027685E+00    0.6282853538E+00
    0.2100000000E+08    0.3595407225E+00    0.5760839924E-01    0.4295575538E-05    0.3210358636E+00    0.6283336890E+00
    0.2300000000E+08    0.3595150766E+00    0.5756365370E-01    0.4090072100E-05    0.3210658130E+00    0.6283776303E+00
    0.2500000000E+08    0.3594914522E+00    0.5752266747E-01    0.3910373339E-05    0.3210931604E+00    0.6284179102E+00
    0.2700000000E+08    0.3594695530E+00    0.5748485942E-01    0.3751535035E-05    0.3211183202E+00    0.6284550921E+00
