  Pressure (Pa) 22mC5-400 (mol/kg) 3mC6-400 (mol/kg) 33mC5-400 (mol/kg) 23mC5-400 (mol/kg) C7-400 (mol/kg)
    0.1000000000E+01    0.5316337804E-03    0.1574475026E-02    0.1291093193E-03    0.8401397351E-03    0.8516562851E-02
    0.3000000000E+01    0.1588082555E-02    0.4586466360E-02    0.3771838862E-03    0.2509652952E-02    0.2481240629E-01
    0.5000000000E+01    0.2635539588E-02    0.7428700863E-02    0.6126763530E-03    0.4164968969E-02    0.4019429885E-01
    0.7000000000E+01    0.3674122993E-02    0.1011512593E-01    0.8366078559E-03    0.5806274230E-02    0.5473721132E-01
    0.9000000000E+01    0.4703948809E-02    0.1265820201E-01    0.1049888313E-02    0.7433751902E-02    0.6850812815E-01
    0.1100000000E+02    0.5725131044E-02    0.1506909561E-01    0.1253331135E-02    0.9047581948E-02    0.8156708343E-01
    0.1300000000E+02    0.6737781721E-02    0.1735784295E-01    0.1447665678E-02    0.1064794119E-01    0.9396803976E-01
    0.1500000000E+02    0.7742010918E-02    0.1953348946E-01    0.1633547822E-02    0.1223500340E-01    0.1057596370E+00
    0.1700000000E+02    0.8737926813E-02    0.2160420908E-01    0.1811569002E-02    0.1380893933E-01    0.1169858329E+00
    0.1900000000E+02    0.9725635723E-02    0.2357740674E-01    0.1982263949E-02    0.1536991680E-01    0.1276864534E+00
    0.2100000000E+02    0.1070524214E-01    0.2545980667E-01    0.2146117343E-02    0.1691810077E-01    0.1378976669E+00
    0.2300000000E+02    0.1167684879E-01    0.2725752891E-01    0.2303569561E-02    0.1845365336E-01    0.1476523951E+00
    0.2500000000E+02    0.1264055663E-01    0.2897615563E-01    0.2455021648E-02    0.1997673397E-01    0.1569806691E+00
    0.2700000000E+02    0.1359646493E-01    0.3062078896E-01    0.2600839642E-02    0.2148749928E-01    0.1659099400E+00
    0.2900000000E+02    0.1454467127E-01    0.3219610151E-01    0.2741358342E-02    0.2298610333E-01    0.1744653505E+00
    0.3100000000E+02    0.1548527162E-01    0.3370638060E-01    0.2876884603E-02    0.2447269760E-01    0.1826699723E+00
    0.3300000000E+02    0.1641836031E-01    0.3515556720E-01    0.3007700219E-02    0.2594743102E-01    0.1905450150E+00
    0.3500000000E+02    0.1734403014E-01    0.3654729021E-01    0.3134064468E-02    0.2741045006E-01    0.1981100108E+00
    0.3700000000E+02    0.1826237235E-01    0.3788489671E-01    0.3256216343E-02    0.2886189874E-01    0.2053829767E+00
    0.3900000000E+02    0.1917347667E-01    0.3917147884E-01    0.3374376530E-02    0.3030191873E-01    0.2123805588E+00
    0.4100000000E+02    0.2007743138E-01    0.4040989758E-01    0.3488749159E-02    0.3173064935E-01    0.2191181606E+00
    0.4300000000E+02    0.2097432329E-01    0.4160280400E-01    0.3599523359E-02    0.3314822766E-01    0.2256100563E+00
    0.4500000000E+02    0.2186423781E-01    0.4275265809E-01    0.3706874641E-02    0.3455478848E-01    0.2318694931E+00
    0.4700000000E+02    0.2274725895E-01    0.4386174575E-01    0.3810966124E-02    0.3595046443E-01    0.2379087814E+00
    0.4900000000E+02    0.2362346939E-01    0.4493219387E-01    0.3911949647E-02    0.3733538600E-01    0.2437393766E+00
    0.1000000000E+02    0.5215613326E-02    0.1387951961E-01    0.1152792006E-02    0.8242361754E-02    0.7512309537E-01
    0.3000000000E+02    0.1501591626E-01    0.3295911623E-01    0.2809727359E-02    0.2373089232E-01    0.1786101430E+00
    0.5000000000E+02    0.2405904606E-01    0.4545355266E-01    0.3961320531E-02    0.3802385410E-01    0.2465797784E+00
    0.7000000000E+02    0.3243218850E-01    0.5426787428E-01    0.4815330063E-02    0.5125887480E-01    0.2946711588E+00
    0.9000000000E+02    0.4020951348E-01    0.6081754422E-01    0.5473547075E-02    0.6355303852E-01    0.3305118450E+00
    0.1100000000E+03    0.4745451565E-01    0.6587468319E-01    0.5992809326E-02    0.7500657990E-01    0.3582666695E+00
    0.1300000000E+03    0.5422186911E-01    0.6989627685E-01    0.6408102274E-02    0.8570581113E-01    0.3804030358E+00
    0.1500000000E+03    0.6055890943E-01    0.7317006253E-01    0.6742627549E-02    0.9572546108E-01    0.3984760495E+00
    0.1700000000E+03    0.6650682734E-01    0.7588624105E-01    0.7012685211E-02    0.1051305593E+00    0.4135146814E+00
    0.1900000000E+03    0.7210163736E-01    0.7817557514E-01    0.7230251336E-02    0.1139779645E+00    0.4262270456E+00
    0.2100000000E+03    0.7737496904E-01    0.8013092409E-01    0.7404437829E-02    0.1223176140E+00    0.4371164967E+00
    0.2300000000E+03    0.8235471763E-01    0.8182004840E-01    0.7542369754E-02    0.1301935500E+00    0.4465507030E+00
    0.2500000000E+03    0.8706558230E-01    0.8329355216E-01    0.7649740109E-02    0.1376447698E+00    0.4548045154E+00
    0.2700000000E+03    0.9152951398E-01    0.8458998896E-01    0.7731176400E-02    0.1447059321E+00    0.4620875424E+00
    0.2900000000E+03    0.9576608993E-01    0.8573924679E-01    0.7790492243E-02    0.1514079485E+00    0.4685624416E+00
    0.3100000000E+03    0.9979282861E-01    0.8676485269E-01    0.7830865846E-02    0.1577784804E+00    0.4743573811E+00
    0.3300000000E+03    0.1036254557E+00    0.8768557909E-01    0.7854970260E-02    0.1638423591E+00    0.4795747296E+00
    0.3500000000E+03    0.1072781299E+00    0.8851658677E-01    0.7865070807E-02    0.1696219420E+00    0.4842972440E+00
    0.3700000000E+03    0.1107636351E+00    0.8927025326E-01    0.7863099506E-02    0.1751374163E+00    0.4885925561E+00
    0.3900000000E+03    0.1140935455E+00    0.8995678326E-01    0.7850712968E-02    0.1804070590E+00    0.4925164814E+00
    0.4100000000E+03    0.1172783666E+00    0.9058466521E-01    0.7829338157E-02    0.1854474599E+00    0.4961154946E+00
    0.4300000000E+03    0.1203276573E+00    0.9116101729E-01    0.7800209029E-02    0.1902737148E+00    0.4994286075E+00
    0.4500000000E+03    0.1232501358E+00    0.9169185310E-01    0.7764396242E-02    0.1948995915E+00    0.5024888110E+00
    0.4700000000E+03    0.1260537709E+00    0.9218228775E-01    0.7722831466E-02    0.1993376749E+00    0.5053241953E+00
    0.4900000000E+03    0.1287458620E+00    0.9263669953E-01    0.7676327471E-02    0.2035994932E+00    0.5079588282E+00
    0.1000000000E+03    0.4389495001E-01    0.6349895700E-01    0.5748003039E-02    0.6937919610E-01    0.3452179635E+00
    0.3000000000E+03    0.9780466688E-01    0.8626623674E-01    0.7812869193E-02    0.1546330361E+00    0.4715379860E+00
    0.5000000000E+03    0.1300521939E+00    0.9285159561E-01    0.7651448920E-02    0.2056676439E+00    0.5092074585E+00
    0.7000000000E+03    0.1516896336E+00    0.9594588105E-01    0.7025960968E-02    0.2399355788E+00    0.5274311637E+00
    0.9000000000E+03    0.1672744522E+00    0.9772555951E-01    0.6340855900E-02    0.2646353178E+00    0.5382189308E+00
    0.1100000000E+04    0.1790549746E+00    0.9887168073E-01    0.5707141228E-02    0.2833189117E+00    0.5453694510E+00
    0.1300000000E+04    0.1882787994E+00    0.9966534313E-01    0.5150539559E-02    0.2979578696E+00    0.5504668314E+00
    0.1500000000E+04    0.1956979405E+00    0.1002434358E+00    0.4670143298E-02    0.3097408410E+00    0.5542902690E+00
    0.1700000000E+04    0.2017943431E+00    0.1006804736E+00    0.4257299621E-02    0.3194297820E+00    0.5572681103E+00
    0.1900000000E+04    0.2068918260E+00    0.1010204210E+00    0.3902004020E-02    0.3275367729E+00    0.5596555476E+00
    0.2100000000E+04    0.2112163101E+00    0.1012908523E+00    0.3595002791E-02    0.3344191658E+00    0.5616141860E+00
    0.2300000000E+04    0.2149303391E+00    0.1015099146E+00    0.3328358352E-02    0.3403341265E+00    0.5632513985E+00
    0.2500000000E+04    0.2181538986E+00    0.1016900230E+00    0.3095468492E-02    0.3454715330E+00    0.5646413476E+00
    0.2700000000E+04    0.2209775080E+00    0.1018399483E+00    0.2890909776E-02    0.3499746671E+00    0.5658369237E+00
    0.2900000000E+04    0.2234707491E+00    0.1019660553E+00    0.2710243790E-02    0.3539536941E+00    0.5668768749E+00
    0.3100000000E+04    0.2256879885E+00    0.1020730701E+00    0.2549835620E-02    0.3574947108E+00    0.5677902462E+00
    0.3300000000E+04    0.2276723193E+00    0.1021645719E+00    0.2406699102E-02    0.3606659761E+00    0.5685992439E+00
    0.3500000000E+04    0.2294583358E+00    0.1022433183E+00    0.2278370235E-02    0.3635223006E+00    0.5693211407E+00
    0.3700000000E+04    0.2310741283E+00    0.1023114664E+00    0.2162805584E-02    0.3661081997E+00    0.5699695766E+00
    0.3900000000E+04    0.2325427400E+00    0.1023707262E+00    0.2058301423E-02    0.3684601995E+00    0.5705554686E+00
    0.4100000000E+04    0.2338832502E+00    0.1024224698E+00    0.1963429540E-02    0.3706085497E+00    0.5710876595E+00
    0.4300000000E+04    0.2351115895E+00    0.1024678096E+00    0.1876986241E-02    0.3725785140E+00    0.5715733895E+00
    0.4500000000E+04    0.2362411626E+00    0.1025076566E+00    0.1797951722E-02    0.3743913549E+00    0.5720186446E+00
    0.4700000000E+04    0.2372833284E+00    0.1025427633E+00    0.1725457585E-02    0.3760650945E+00    0.5724284175E+00
    0.4900000000E+04    0.2382477753E+00    0.1025737562E+00    0.1658760741E-02    0.3776151076E+00    0.5728069063E+00
    0.1000000000E+04    0.1735467636E+00    0.9835527635E-01    0.6014965898E-02    0.2745814116E+00    0.5421221761E+00
    0.3000000000E+04    0.2246109486E+00    0.1020217031E+00    0.2627707703E-02    0.3557743281E+00    0.5673478608E+00
    0.5000000000E+04    0.2387034989E+00    0.1025878776E+00    0.1627383084E-02    0.3783479148E+00    0.5729855519E+00
    0.7000000000E+04    0.2452457602E+00    0.1027461571E+00    0.1188358048E-02    0.3889032054E+00    0.5755487015E+00
    0.9000000000E+04    0.2490066846E+00    0.1027857945E+00    0.9473205854E-03    0.3950148899E+00    0.5770420946E+00
    0.1100000000E+05    0.2514423959E+00    0.1027798880E+00    0.7960851240E-03    0.3990016404E+00    0.5780333898E+00
    0.1300000000E+05    0.2531451259E+00    0.1027540919E+00    0.6924993699E-03    0.4018088245E+00    0.5787468234E+00
    0.1500000000E+05    0.2544005758E+00    0.1027191830E+00    0.6170417850E-03    0.4038936115E+00    0.5792893717E+00
    0.1700000000E+05    0.2553633247E+00    0.1026802196E+00    0.5595186931E-03    0.4055039526E+00    0.5797187829E+00
    0.1900000000E+05    0.2561242329E+00    0.1026397508E+00    0.5141160483E-03    0.4067859430E+00    0.5800690912E+00
    0.2100000000E+05    0.2567401698E+00    0.1025991172E+00    0.4772856499E-03    0.4078312440E+00    0.5803617194E+00
    0.2300000000E+05    0.2572485309E+00    0.1025590372E+00    0.4467430719E-03    0.4087002746E+00    0.5806108613E+00
    0.2500000000E+05    0.2576749054E+00    0.1025198926E+00    0.4209523458E-03    0.4094344784E+00    0.5808263155E+00
    0.2700000000E+05    0.2580373887E+00    0.1024818771E+00    0.3988430416E-03    0.4100632324E+00    0.5810150784E+00
    0.2900000000E+05    0.2583491342E+00    0.1024450759E+00    0.3796463549E-03    0.4106079422E+00    0.5811822881E+00
    0.3100000000E+05    0.2586199300E+00    0.1024095116E+00    0.3627957687E-03    0.4110845754E+00    0.5813318092E+00
    0.3300000000E+05    0.2588572091E+00    0.1023751705E+00    0.3478645002E-03    0.4115052864E+00    0.5814666086E+00
    0.3500000000E+05    0.2590667156E+00    0.1023420180E+00    0.3345247938E-03    0.4118794913E+00    0.5815890049E+00
    0.3700000000E+05    0.2592529585E+00    0.1023100081E+00    0.3225206607E-03    0.4122145985E+00    0.5817008387E+00
    0.3900000000E+05    0.2594195255E+00    0.1022790896E+00    0.3116491587E-03    0.4125165176E+00    0.5818035912E+00
    0.4100000000E+05    0.2595693066E+00    0.1022492090E+00    0.3017472480E-03    0.4127900201E+00    0.5818984693E+00
    0.4300000000E+05    0.2597046555E+00    0.1022203130E+00    0.2926823782E-03    0.4130390015E+00    0.5819864671E+00
    0.4500000000E+05    0.2598275080E+00    0.1021923497E+00    0.2843456247E-03    0.4132666736E+00    0.5820684118E+00
    0.4700000000E+05    0.2599394709E+00    0.1021652692E+00    0.2766466060E-03    0.4134757085E+00    0.5821449974E+00
    0.4900000000E+05    0.2600418885E+00    0.1021390244E+00    0.2695096620E-03    0.4136683475E+00    0.5822168117E+00
    0.1000000000E+05    0.2503425668E+00    0.1027863964E+00    0.8639056141E-03    0.3971979082E+00    0.5775823962E+00
    0.3000000000E+05    0.2584891402E+00    0.1024271394E+00    0.3709571898E-03    0.4108539340E+00    0.5812590567E+00
    0.5000000000E+05    0.2600898791E+00    0.1021262013E+00    0.2661316193E-03    0.4137591221E+00    0.5822510890E+00
    0.7000000000E+05    0.2607485897E+00    0.1019041999E+00    0.2167702869E-03    0.4150495786E+00    0.5827763750E+00
    0.9000000000E+05    0.2610980893E+00    0.1017298429E+00    0.1869073610E-03    0.4157890074E+00    0.5831223217E+00
    0.1100000000E+06    0.2613097283E+00    0.1015865869E+00    0.1664360692E-03    0.4162732277E+00    0.5833764492E+00
    0.1300000000E+06    0.2614486842E+00    0.1014651074E+00    0.1513088863E-03    0.4166176943E+00    0.5835757152E+00
    0.1500000000E+06    0.2615449903E+00    0.1013596941E+00    0.1395562376E-03    0.4168769753E+00    0.5837388569E+00
    0.1700000000E+06    0.2616143323E+00    0.1012666116E+00    0.1300921300E-03    0.4170802989E+00    0.5838765679E+00
    0.1900000000E+06    0.2616656635E+00    0.1011832870E+00    0.1222630458E-03    0.4172447743E+00    0.5839954817E+00
    0.2100000000E+06    0.2617044455E+00    0.1011078745E+00    0.1156493996E-03    0.4173811056E+00    0.5840999761E+00
    0.2300000000E+06    0.2617341867E+00    0.1010390056E+00    0.1099679927E-03    0.4174963458E+00    0.5841930818E+00
    0.2500000000E+06    0.2617572364E+00    0.1009756382E+00    0.1050199255E-03    0.4175953389E+00    0.5842769787E+00
    0.2700000000E+06    0.2617752216E+00    0.1009169603E+00    0.1006609024E-03    0.4176815270E+00    0.5843532837E+00
    0.2900000000E+06    0.2617893015E+00    0.1008623270E+00    0.9678338317E-04    0.4177574268E+00    0.5844232281E+00
    0.3100000000E+06    0.2618003221E+00    0.1008112180E+00    0.9330537735E-04    0.4178249230E+00    0.5844877695E+00
    0.3300000000E+06    0.2618089136E+00    0.1007632069E+00    0.9016314530E-04    0.4178854566E+00    0.5845476673E+00
    0.3500000000E+06    0.2618155537E+00    0.1007179405E+00    0.8730629399E-04    0.4179401497E+00    0.5846035327E+00
    0.3700000000E+06    0.2618206104E+00    0.1006751225E+00    0.8469439137E-04    0.4179898894E+00    0.5846558652E+00
    0.3900000000E+06    0.2618243709E+00    0.1006345022E+00    0.8229457353E-04    0.4180353873E+00    0.5847050779E+00
    0.4100000000E+06    0.2618270623E+00    0.1005958654E+00    0.8007981831E-04    0.4180772211E+00    0.5847515160E+00
    0.4300000000E+06    0.2618288658E+00    0.1005590278E+00    0.7802767656E-04    0.4181158651E+00    0.5847954710E+00
    0.4500000000E+06    0.2618299278E+00    0.1005238296E+00    0.7611932442E-04    0.4181517127E+00    0.5848371913E+00
    0.4700000000E+06    0.2618303673E+00    0.1004901315E+00    0.7433884493E-04    0.4181850930E+00    0.5848768899E+00
    0.4900000000E+06    0.2618302819E+00    0.1004578110E+00    0.7267267603E-04    0.4182162839E+00    0.5849147511E+00
    0.1000000000E+06    0.2612158289E+00    0.1016550231E+00    0.1758230143E-03    0.4160536702E+00    0.5832579281E+00
    0.3000000000E+06    0.2617951506E+00    0.1008363605E+00    0.9499878602E-04    0.4177921266E+00    0.5844561228E+00
    0.5000000000E+06    0.2618300681E+00    0.1004421331E+00    0.7187875627E-04    0.4182311334E+00    0.5849330436E+00
    0.7000000000E+06    0.2618119429E+00    0.1001802784E+00    0.5988459090E-04    0.4184554946E+00    0.5852323657E+00
    0.9000000000E+06    0.2617836586E+00    0.9998399129E-01    0.5227080243E-04    0.4185998276E+00    0.5854504176E+00
    0.1100000000E+07    0.2617540984E+00    0.9982696418E-01    0.4690041331E-04    0.4187040763E+00    0.5856218366E+00
    0.1300000000E+07    0.2617256351E+00    0.9969610159E-01    0.4285680620E-04    0.4187847810E+00    0.5857630092E+00
    0.1500000000E+07    0.2616988963E+00    0.9958393058E-01    0.3967345016E-04    0.4188501958E+00    0.5858829799E+00
    0.1700000000E+07    0.2616739622E+00    0.9948578196E-01    0.3708481265E-04    0.4189049695E+00    0.5859872671E+00
    0.1900000000E+07    0.2616507339E+00    0.9939854263E-01    0.3492728924E-04    0.4189519537E+00    0.5860794846E+00
    0.2100000000E+07    0.2616290602E+00    0.9932003286E-01    0.3309390926E-04    0.4189930118E+00    0.5861621275E+00
    0.2300000000E+07    0.2616087842E+00    0.9924866694E-01    0.3151142206E-04    0.4190294231E+00    0.5862369907E+00
    0.2500000000E+07    0.2615897593E+00    0.9918325522E-01    0.3012777419E-04    0.4190621004E+00    0.5863054079E+00
    0.2700000000E+07    0.2615718545E+00    0.9912288236E-01    0.2890483424E-04    0.4190917166E+00    0.5863683976E+00
    0.2900000000E+07    0.2615549547E+00    0.9906682896E-01    0.2781395128E-04    0.4191187807E+00    0.5864267546E+00
    0.3100000000E+07    0.2615389594E+00    0.9901451938E-01    0.2683312939E-04    0.4191436866E+00    0.5864811114E+00
    0.3300000000E+07    0.2615237811E+00    0.9896548583E-01    0.2594516661E-04    0.4191667449E+00    0.5865319794E+00
    0.3500000000E+07    0.2615093435E+00    0.9891934300E-01    0.2513639233E-04    0.4191882046E+00    0.5865797778E+00
    0.3700000000E+07    0.2614955801E+00    0.9887576976E-01    0.2439578824E-04    0.4192082684E+00    0.5866248548E+00
    0.3900000000E+07    0.2614824324E+00    0.9883449563E-01    0.2371436254E-04    0.4192271032E+00    0.5866675026E+00
    0.4100000000E+07    0.2614698489E+00    0.9879529071E-01    0.2308469540E-04    0.4192448479E+00    0.5867079686E+00
    0.4300000000E+07    0.2614577842E+00    0.9875795790E-01    0.2250060300E-04    0.4192616196E+00    0.5867464645E+00
    0.4500000000E+07    0.2614461978E+00    0.9872232698E-01    0.2195688532E-04    0.4192775175E+00    0.5867831725E+00
    0.4700000000E+07    0.2614350540E+00    0.9868824990E-01    0.2144913395E-04    0.4192926268E+00    0.5868182508E+00
    0.4900000000E+07    0.2614243207E+00    0.9865559714E-01    0.2097358392E-04    0.4193070207E+00    0.5868518374E+00
    0.1000000000E+07    0.2617688234E+00    0.9990157226E-01    0.4937782349E-04    0.4186556430E+00    0.5855406885E+00
    0.3000000000E+07    0.2615468497E+00    0.9904023761E-01    0.2731095311E-04    0.4191314823E+00    0.5864543986E+00
    0.5000000000E+07    0.2614190988E+00    0.9863976871E-01    0.2074685479E-04    0.4193139696E+00    0.5868681098E+00
    0.7000000000E+07    0.2613305662E+00    0.9837630643E-01    0.1731191368E-04    0.4194272246E+00    0.5871382181E+00
    0.9000000000E+07    0.2612628459E+00    0.9817974435E-01    0.1512313984E-04    0.4195092845E+00    0.5873389724E+00
    0.1100000000E+08    0.2612080094E+00    0.9802294618E-01    0.1357602020E-04    0.4195735944E+00    0.5874987433E+00
    0.1300000000E+08    0.2611619333E+00    0.9789252704E-01    0.1240956831E-04    0.4196264521E+00    0.5876314259E+00
    0.1500000000E+08    0.2611222010E+00    0.9778089314E-01    0.1149043213E-04    0.4196713112E+00    0.5877448675E+00
    0.1700000000E+08    0.2610872753E+00    0.9768331912E-01    0.1074251576E-04    0.4197102691E+00    0.5878439351E+00
    0.1900000000E+08    0.2610561175E+00    0.9759666395E-01    0.1011884716E-04    0.4197446945E+00    0.5879318562E+00
    0.2100000000E+08    0.2610279928E+00    0.9751873353E-01    0.9588671916E-05    0.4197755300E+00    0.5880108812E+00
    0.2300000000E+08    0.2610023626E+00    0.9744793470E-01    0.9130907785E-05    0.4198034520E+00    0.5880826413E+00
    0.2500000000E+08    0.2609788198E+00    0.9738307408E-01    0.8730560570E-05    0.4198289624E+00    0.5881483570E+00
    0.2700000000E+08    0.2609570499E+00    0.9732323464E-01    0.8376638804E-05    0.4198524439E+00    0.5882089653E+00
