  Pressure (Pa) 22mC5-400 (mol/kg) 3mC6-400 (mol/kg) 33mC5-400 (mol/kg) 23mC5-400 (mol/kg) C7-400 (mol/kg)
    0.1000000000E+01    0.5319734730E-03    0.2091672022E-02    0.4507797752E-03    0.1868168778E-03    0.1018291932E-01
    0.3000000000E+01    0.1591119305E-02    0.6051043645E-02    0.1311029449E-02    0.5587659024E-03    0.2946360337E-01
    0.5000000000E+01    0.2643918734E-02    0.9737576803E-02    0.2121081359E-02    0.9284879445E-03    0.4742218305E-01
    0.7000000000E+01    0.3690437048E-02    0.1317860164E-01    0.2886085805E-02    0.1296005910E-02    0.6419088377E-01
    0.9000000000E+01    0.4730738622E-02    0.1639791357E-01    0.3610504010E-02    0.1661342384E-02    0.7988484312E-01
    0.1100000000E+02    0.5764886932E-02    0.1941632692E-01    0.4298218439E-02    0.2024519637E-02    0.9460478593E-01
    0.1300000000E+02    0.6792944572E-02    0.2225212764E-01    0.4952622733E-02    0.2385559630E-02    0.1084392120E+00
    0.1500000000E+02    0.7814973269E-02    0.2492144595E-01    0.5576695512E-02    0.2744484020E-02    0.1214661970E+00
    0.1700000000E+02    0.8831033901E-02    0.2743856501E-01    0.6173061296E-02    0.3101314164E-02    0.1337548842E+00
    0.1900000000E+02    0.9841186504E-02    0.2981617796E-01    0.6744041093E-02    0.3456071127E-02    0.1453667270E+00
    0.2100000000E+02    0.1084549030E-01    0.3206560330E-01    0.7291694626E-02    0.3808775684E-02    0.1563565298E+00
    0.2300000000E+02    0.1184400368E-01    0.3419696604E-01    0.7817855761E-02    0.4159448327E-02    0.1667733238E+00
    0.2500000000E+02    0.1283678428E-01    0.3621935111E-01    0.8324162373E-02    0.4508109270E-02    0.1766611086E+00
    0.2700000000E+02    0.1382388890E-01    0.3814093353E-01    0.8812081638E-02    0.4854778449E-02    0.1860594818E+00
    0.2900000000E+02    0.1480537363E-01    0.3996908965E-01    0.9282931542E-02    0.5199475536E-02    0.1950041763E+00
    0.3100000000E+02    0.1578129377E-01    0.4171049235E-01    0.9737899249E-02    0.5542219932E-02    0.2035275211E+00
    0.3300000000E+02    0.1675170387E-01    0.4337119301E-01    0.1017805684E-01    0.5883030783E-02    0.2116588377E+00
    0.3500000000E+02    0.1771665777E-01    0.4495669225E-01    0.1060437488E-01    0.6221926975E-02    0.2194247817E+00
    0.3700000000E+02    0.1867620859E-01    0.4647200121E-01    0.1101773407E-01    0.6558927144E-02    0.2268496398E+00
    0.3900000000E+02    0.1963040873E-01    0.4792169484E-01    0.1141893542E-01    0.6894049676E-02    0.2339555872E+00
    0.4100000000E+02    0.2057930991E-01    0.4930995840E-01    0.1180870903E-01    0.7227312716E-02    0.2407629125E+00
    0.4300000000E+02    0.2152296316E-01    0.5064062807E-01    0.1218772178E-01    0.7558734168E-02    0.2472902144E+00
    0.4500000000E+02    0.2246141885E-01    0.5191722667E-01    0.1255658401E-01    0.7888331701E-02    0.2535545742E+00
    0.4700000000E+02    0.2339472665E-01    0.5314299497E-01    0.1291585543E-01    0.8216122750E-02    0.2595717075E+00
    0.4900000000E+02    0.2432293564E-01    0.5432091946E-01    0.1326605026E-01    0.8542124525E-02    0.2653560984E+00
    0.1000000000E+02    0.5248578002E-02    0.1793103515E-01    0.3958726572E-02    0.1843199534E-02    0.8736077162E-01
    0.3000000000E+02    0.1529402585E-01    0.4085024328E-01    0.9512331136E-02    0.5371090618E-02    0.1993166186E+00
    0.5000000000E+02    0.2478514322E-01    0.5489281008E-01    0.1343789334E-01    0.8704459751E-02    0.2681652345E+00
    0.7000000000E+02    0.3377310054E-01    0.6438687209E-01    0.1649527853E-01    0.1186126002E-01    0.3148849652E+00
    0.9000000000E+02    0.4230279596E-01    0.7123821158E-01    0.1900925739E-01    0.1485724411E-01    0.3487242692E+00
    0.1100000000E+03    0.5041378837E-01    0.7641741310E-01    0.2114374000E-01    0.1770629158E-01    0.3743988874E+00
    0.1300000000E+03    0.5814106926E-01    0.8047107707E-01    0.2299231535E-01    0.2042067967E-01    0.3945677390E+00
    0.1500000000E+03    0.6551570481E-01    0.8373067165E-01    0.2461383082E-01    0.2301130849E-01    0.4108451652E+00
    0.1700000000E+03    0.7256537291E-01    0.8640896461E-01    0.2604824197E-01    0.2548788945E-01    0.4242686430E+00
    0.1900000000E+03    0.7931481465E-01    0.8864883306E-01    0.2732438860E-01    0.2785910363E-01    0.4355356904E+00
    0.2100000000E+03    0.8578621557E-01    0.9054980785E-01    0.2846411929E-01    0.3013273552E-01    0.4451327953E+00
    0.2300000000E+03    0.9199952923E-01    0.9218336803E-01    0.2948462736E-01    0.3231578652E-01    0.4534097547E+00
    0.2500000000E+03    0.9797275284E-01    0.9360218263E-01    0.3039985060E-01    0.3441457169E-01    0.4606246266E+00
    0.2700000000E+03    0.1037221631E+00    0.9484592240E-01    0.3122135302E-01    0.3643480242E-01    0.4669720177E+00
    0.2900000000E+03    0.1092625189E+00    0.9594504071E-01    0.3195890525E-01    0.3838165754E-01    0.4726015001E+00
    0.3100000000E+03    0.1146072357E+00    0.9692330645E-01    0.3262088215E-01    0.4025984457E-01    0.4776299568E+00
    0.3300000000E+03    0.1197685369E+00    0.9779954454E-01    0.3321454487E-01    0.4207365275E-01    0.4821500721E+00
    0.3500000000E+03    0.1247575845E+00    0.9858885918E-01    0.3374624742E-01    0.4382699900E-01    0.4862363021E+00
    0.3700000000E+03    0.1295845940E+00    0.9930351072E-01    0.3422159212E-01    0.4552346799E-01    0.4899491584E+00
    0.3900000000E+03    0.1342589336E+00    0.9995355559E-01    0.3464554951E-01    0.4716634717E-01    0.4933383355E+00
    0.4100000000E+03    0.1387892115E+00    0.1005473206E+00    0.3502255283E-01    0.4875865740E-01    0.4964450319E+00
    0.4300000000E+03    0.1431833533E+00    0.1010917601E+00    0.3535657373E-01    0.5030317988E-01    0.4993036966E+00
    0.4500000000E+03    0.1474486689E+00    0.1015927272E+00    0.3565118410E-01    0.5180247990E-01    0.5019433613E+00
    0.4700000000E+03    0.1515919128E+00    0.1020551845E+00    0.3590960705E-01    0.5325892775E-01    0.5043886686E+00
    0.4900000000E+03    0.1556193364E+00    0.1024833665E+00    0.3613475956E-01    0.5467471735E-01    0.5066606734E+00
    0.1000000000E+03    0.4640834411E-01    0.7399597768E-01    0.2011699727E-01    0.1629933288E-01    0.3623835126E+00
    0.3000000000E+03    0.1119585419E+00    0.9644800408E-01    0.3229886341E-01    0.3932905725E-01    0.4751845765E+00
    0.5000000000E+03    0.1575914435E+00    0.1026857609E+00    0.3623569624E-01    0.5536800674E-01    0.5077374446E+00
    0.7000000000E+03    0.1921585580E+00    0.1055946561E+00    0.3703580899E-01    0.6752230867E-01    0.5234699409E+00
    0.9000000000E+03    0.2197439468E+00    0.1072654544E+00    0.3642639754E-01    0.7722526060E-01    0.5328255356E+00
    0.1100000000E+04    0.2425294944E+00    0.1083420772E+00    0.3516451067E-01    0.8524265813E-01    0.5390637025E+00
    0.1300000000E+04    0.2618092483E+00    0.1090885606E+00    0.3361647908E-01    0.9202872157E-01    0.5435381496E+00
    0.1500000000E+04    0.2784129986E+00    0.1096331101E+00    0.3196945679E-01    0.9787473732E-01    0.5469144310E+00
    0.1700000000E+04    0.2929057414E+00    0.1100454320E+00    0.3032153034E-01    0.1029790566E+00    0.5495588803E+00
    0.1900000000E+04    0.3056906904E+00    0.1103666436E+00    0.2872398942E-01    0.1074832470E+00    0.5516902193E+00
    0.2100000000E+04    0.3170665450E+00    0.1106225413E+00    0.2720258409E-01    0.1114921913E+00    0.5534473296E+00
    0.2300000000E+04    0.3272613175E+00    0.1108301123E+00    0.2576879057E-01    0.1150859598E+00    0.5549227605E+00
    0.2500000000E+04    0.3364533524E+00    0.1110009876E+00    0.2442602583E-01    0.1183271874E+00    0.5561806354E+00
    0.2700000000E+04    0.3447849639E+00    0.1111433917E+00    0.2317318067E-01    0.1212658606E+00    0.5572668310E+00
    0.2900000000E+04    0.3523716160E+00    0.1112632988E+00    0.2200667231E-01    0.1239425391E+00    0.5582150644E+00
    0.3100000000E+04    0.3593083038E+00    0.1113651496E+00    0.2092165323E-01    0.1263905962E+00    0.5590506899E+00
    0.3300000000E+04    0.3656741126E+00    0.1114523105E+00    0.1991272695E-01    0.1286378186E+00    0.5597931520E+00
    0.3500000000E+04    0.3715355545E+00    0.1115273782E+00    0.1897436977E-01    0.1307075782E+00    0.5604576215E+00
    0.3700000000E+04    0.3769490626E+00    0.1115923858E+00    0.1810117498E-01    0.1326197071E+00    0.5610561139E+00
    0.3900000000E+04    0.3819628895E+00    0.1116489469E+00    0.1728798846E-01    0.1343911645E+00    0.5615982735E+00
    0.4100000000E+04    0.3866185759E+00    0.1116983572E+00    0.1652997800E-01    0.1360365523E+00    0.5620919338E+00
    0.4300000000E+04    0.3909521027E+00    0.1117416686E+00    0.1582266207E-01    0.1375685192E+00    0.5625435261E+00
    0.4500000000E+04    0.3949948067E+00    0.1117797433E+00    0.1516191416E-01    0.1389980826E+00    0.5629583808E+00
    0.4700000000E+04    0.3987741159E+00    0.1118132940E+00    0.1454395279E-01    0.1403348867E+00    0.5633409550E+00
    0.4900000000E+04    0.4023141458E+00    0.1118429148E+00    0.1396532349E-01    0.1415874118E+00    0.5636950055E+00
    0.1000000000E+04    0.2316415644E+00    0.1078568455E+00    0.3584832630E-01    0.8141126092E-01    0.5362260090E+00
    0.3000000000E+04    0.3559159337E+00    0.1113162498E+00    0.2145430705E-01    0.1251932932E+00    0.5586456216E+00
    0.5000000000E+04    0.4040011836E+00    0.1118564107E+00    0.1368976288E-01    0.1421844445E+00    0.5638623500E+00
    0.7000000000E+04    0.4292291004E+00    0.1120072989E+00    0.9617500491E-02    0.1511248524E+00    0.5662813320E+00
    0.9000000000E+04    0.4445523288E+00    0.1120439318E+00    0.7237012184E-02    0.1565713769E+00    0.5677084300E+00
    0.1100000000E+05    0.4547569476E+00    0.1120364113E+00    0.5720321360E-02    0.1602096078E+00    0.5686644334E+00
    0.1300000000E+05    0.4620003942E+00    0.1120095071E+00    0.4689141959E-02    0.1628001453E+00    0.5693575152E+00
    0.1500000000E+05    0.4673884342E+00    0.1119736836E+00    0.3952232950E-02    0.1647332204E+00    0.5698878293E+00
    0.1700000000E+05    0.4715424255E+00    0.1119338779E+00    0.3404579266E-02    0.1662283363E+00    0.5703097920E+00
    0.1900000000E+05    0.4748367073E+00    0.1118925893E+00    0.2984554324E-02    0.1674178682E+00    0.5706556422E+00
    0.2100000000E+05    0.4775094765E+00    0.1118511387E+00    0.2653990196E-02    0.1683861348E+00    0.5709457627E+00
    0.2300000000E+05    0.4797191353E+00    0.1118102374E+00    0.2388174139E-02    0.1691892662E+00    0.5711937104E+00
    0.2500000000E+05    0.4815749205E+00    0.1117702658E+00    0.2170499790E-02    0.1698660114E+00    0.5714088765E+00
    0.2700000000E+05    0.4831544927E+00    0.1117314183E+00    0.1989451237E-02    0.1704439471E+00    0.5715979875E+00
    0.2900000000E+05    0.4845145122E+00    0.1116937820E+00    0.1836824127E-02    0.1709432144E+00    0.5717659974E+00
    0.3100000000E+05    0.4856972487E+00    0.1116573815E+00    0.1706635059E-02    0.1713788549E+00    0.5719166424E+00
    0.3300000000E+05    0.4867348532E+00    0.1116222049E+00    0.1594430185E-02    0.1717623219E+00    0.5720527978E+00
    0.3500000000E+05    0.4876521991E+00    0.1115882192E+00    0.1496833874E-02    0.1721024856E+00    0.5721767162E+00
    0.3700000000E+05    0.4884688211E+00    0.1115553802E+00    0.1411246380E-02    0.1724063198E+00    0.5722901895E+00
    0.3900000000E+05    0.4892002676E+00    0.1115236375E+00    0.1335636635E-02    0.1726793815E+00    0.5723946629E+00
    0.4100000000E+05    0.4898590636E+00    0.1114929388E+00    0.1268397293E-02    0.1729261517E+00    0.5724913163E+00
    0.4300000000E+05    0.4904554079E+00    0.1114632316E+00    0.1208241448E-02    0.1731502834E+00    0.5725811236E+00
    0.4500000000E+05    0.4909976871E+00    0.1114344645E+00    0.1154127801E-02    0.1733547838E+00    0.5726648962E+00
    0.4700000000E+05    0.4914928592E+00    0.1114065883E+00    0.1105205631E-02    0.1735421505E+00    0.5727433168E+00
    0.4900000000E+05    0.4919467441E+00    0.1113795561E+00    0.1060773751E-02    0.1737144750E+00    0.5728169638E+00
    0.1000000000E+05    0.4501243471E+00    0.1120436296E+00    0.6400584373E-02    0.1585565714E+00    0.5682285493E+00
    0.3000000000E+05    0.4851258329E+00    0.1116754274E+00    0.1769232865E-02    0.1711682017E+00    0.5718432939E+00
    0.5000000000E+05    0.4921597672E+00    0.1113663425E+00    0.1040055650E-02    0.1737955588E+00    0.5728521545E+00
    0.7000000000E+05    0.4951175051E+00    0.1111370005E+00    0.7610110479E-03    0.1749392932E+00    0.5733946175E+00
    0.9000000000E+05    0.4967346695E+00    0.1109561509E+00    0.6143309899E-03    0.1755862147E+00    0.5737551524E+00
    0.1100000000E+06    0.4977499305E+00    0.1108071186E+00    0.5234154729E-03    0.1760061069E+00    0.5740215952E+00
    0.1300000000E+06    0.4984444267E+00    0.1106804488E+00    0.4611127044E-03    0.1763028914E+00    0.5742314033E+00
    0.1500000000E+06    0.4989481615E+00    0.1105703270E+00    0.4154521614E-03    0.1765251947E+00    0.5744037099E+00
    0.1700000000E+06    0.4993294190E+00    0.1104729365E+00    0.3803493793E-03    0.1766988582E+00    0.5745494999E+00
    0.1900000000E+06    0.4996274599E+00    0.1103856412E+00    0.3523843566E-03    0.1768389130E+00    0.5746756207E+00
    0.2100000000E+06    0.4998664396E+00    0.1103065458E+00    0.3294849837E-03    0.1769547140E+00    0.5747866095E+00
    0.2300000000E+06    0.5000620246E+00    0.1102342423E+00    0.3103206906E-03    0.1770523980E+00    0.5748856180E+00
    0.2500000000E+06    0.5002248141E+00    0.1101676565E+00    0.2939965582E-03    0.1771361643E+00    0.5749749196E+00
    0.2700000000E+06    0.5003622319E+00    0.1101059501E+00    0.2798875024E-03    0.1772089875E+00    0.5750562052E+00
    0.2900000000E+06    0.5004796302E+00    0.1100484568E+00    0.2675429930E-03    0.1772730362E+00    0.5751307648E+00
    0.3100000000E+06    0.5005809637E+00    0.1099946379E+00    0.2566296003E-03    0.1773299306E+00    0.5751996039E+00
    0.3300000000E+06    0.5006692164E+00    0.1099440518E+00    0.2468949146E-03    0.1773809069E+00    0.5752635208E+00
    0.3500000000E+06    0.5007466816E+00    0.1098963321E+00    0.2381440902E-03    0.1774269255E+00    0.5753231594E+00
    0.3700000000E+06    0.5008151504E+00    0.1098511712E+00    0.2302241330E-03    0.1774687449E+00    0.5753790465E+00
    0.3900000000E+06    0.5008760414E+00    0.1098083088E+00    0.2230130978E-03    0.1775069721E+00    0.5754316181E+00
    0.4100000000E+06    0.5009304925E+00    0.1097675220E+00    0.2164124884E-03    0.1775420996E+00    0.5754812391E+00
    0.4300000000E+06    0.5009794267E+00    0.1097286192E+00    0.2103418012E-03    0.1775745310E+00    0.5755282180E+00
    0.4500000000E+06    0.5010236008E+00    0.1096914340E+00    0.2047345358E-03    0.1776046008E+00    0.5755728176E+00
    0.4700000000E+06    0.5010636404E+00    0.1096558210E+00    0.1995352304E-03    0.1776325884E+00    0.5756152639E+00
    0.4900000000E+06    0.5011000677E+00    0.1096216529E+00    0.1946972264E-03    0.1776587297E+00    0.5756557522E+00
    0.1000000000E+06    0.4972946379E+00    0.1108783621E+00    0.5641455125E-03    0.1758161006E+00    0.5738971676E+00
    0.3000000000E+06    0.5005320996E+00    0.1100211176E+00    0.2619247598E-03    0.1773022929E+00    0.5751658454E+00
    0.5000000000E+06    0.5011170665E+00    0.1096050748E+00    0.1924011096E-03    0.1776711716E+00    0.5756753162E+00
    0.7000000000E+06    0.5013444490E+00    0.1093278304E+00    0.1583813206E-03    0.1778588957E+00    0.5759956018E+00
    0.9000000000E+06    0.5014580066E+00    0.1091196027E+00    0.1373659864E-03    0.1779794279E+00    0.5762290500E+00
    0.1100000000E+07    0.5015221255E+00    0.1089527999E+00    0.1227727304E-03    0.1780663873E+00    0.5764126083E+00
    0.1300000000E+07    0.5015608416E+00    0.1088136519E+00    0.1118949565E-03    0.1781336550E+00    0.5765637881E+00
    0.1500000000E+07    0.5015850446E+00    0.1086942856E+00    0.1033910616E-03    0.1781881464E+00    0.5766922646E+00
    0.1700000000E+07    0.5016003291E+00    0.1085897750E+00    0.9651119231E-04    0.1782337519E+00    0.5768039442E+00
    0.1900000000E+07    0.5016098360E+00    0.1084968316E+00    0.9079940333E-04    0.1782728558E+00    0.5769026963E+00
    0.2100000000E+07    0.5016154488E+00    0.1084131511E+00    0.8596055871E-04    0.1783070155E+00    0.5769911932E+00
    0.2300000000E+07    0.5016183563E+00    0.1083370553E+00    0.8179414189E-04    0.1783372995E+00    0.5770713571E+00
    0.2500000000E+07    0.5016193399E+00    0.1082672846E+00    0.7815856048E-04    0.1783644702E+00    0.5771446168E+00
    0.2700000000E+07    0.5016189302E+00    0.1082028692E+00    0.7495062892E-04    0.1783890891E+00    0.5772120632E+00
    0.2900000000E+07    0.5016174978E+00    0.1081430463E+00    0.7209315138E-04    0.1784115811E+00    0.5772745479E+00
    0.3100000000E+07    0.5016153070E+00    0.1080872055E+00    0.6952707955E-04    0.1784322748E+00    0.5773327483E+00
    0.3300000000E+07    0.5016125505E+00    0.1080348504E+00    0.6720637920E-04    0.1784514294E+00    0.5773872124E+00
    0.3500000000E+07    0.5016093707E+00    0.1079855719E+00    0.6509456538E-04    0.1784692525E+00    0.5774383892E+00
    0.3700000000E+07    0.5016058744E+00    0.1079390290E+00    0.6316230134E-04    0.1784859131E+00    0.5774866517E+00
    0.3900000000E+07    0.5016021427E+00    0.1078949344E+00    0.6138569576E-04    0.1785015503E+00    0.5775323127E+00
    0.4100000000E+07    0.5015982380E+00    0.1078530438E+00    0.5974507039E-04    0.1785162801E+00    0.5775756375E+00
    0.4300000000E+07    0.5015942082E+00    0.1078131478E+00    0.5822405205E-04    0.1785302000E+00    0.5776168527E+00
    0.4500000000E+07    0.5015900909E+00    0.1077750652E+00    0.5680889262E-04    0.1785433926E+00    0.5776561535E+00
    0.4700000000E+07    0.5015859154E+00    0.1077386388E+00    0.5548795244E-04    0.1785559290E+00    0.5776937092E+00
    0.4900000000E+07    0.5015817050E+00    0.1077037307E+00    0.5425130265E-04    0.1785678702E+00    0.5777296679E+00
    0.1000000000E+07    0.5014942781E+00    0.1090320762E+00    0.1294828880E-03    0.1780259962E+00    0.5763257111E+00
    0.3000000000E+07    0.5016164838E+00    0.1081146615E+00    0.7077682496E-04    0.1784221352E+00    0.5773041468E+00
    0.5000000000E+07    0.5015795925E+00    0.1076868076E+00    0.5366187403E-04    0.1785736344E+00    0.5777470894E+00
    0.7000000000E+07    0.5015383375E+00    0.1074049925E+00    0.4474450267E-04    0.1786675270E+00    0.5780362734E+00
    0.9000000000E+07    0.5015012904E+00    0.1071945908E+00    0.3907294120E-04    0.1787354940E+00    0.5782512127E+00
    0.1100000000E+08    0.5014686961E+00    0.1070266726E+00    0.3506817809E-04    0.1787887220E+00    0.5784222827E+00
    0.1300000000E+08    0.5014398650E+00    0.1068869550E+00    0.3205073335E-04    0.1788324473E+00    0.5785643582E+00
    0.1500000000E+08    0.5014141124E+00    0.1067673290E+00    0.2967409833E-04    0.1788695395E+00    0.5786858389E+00
    0.1700000000E+08    0.5013908839E+00    0.1066627462E+00    0.2774079593E-04    0.1789017403E+00    0.5787919344E+00
    0.1900000000E+08    0.5013697474E+00    0.1065698493E+00    0.2612903974E-04    0.1789301857E+00    0.5788860990E+00
    0.2100000000E+08    0.5013503666E+00    0.1064862924E+00    0.2475914558E-04    0.1789556579E+00    0.5789707411E+00
    0.2300000000E+08    0.5013324771E+00    0.1064103717E+00    0.2357651820E-04    0.1789787178E+00    0.5790476068E+00
    0.2500000000E+08    0.5013158685E+00    0.1063408105E+00    0.2254234425E-04    0.1789997816E+00    0.5791180022E+00
    0.2700000000E+08    0.5013003712E+00    0.1062766276E+00    0.2162818115E-04    0.1790191664E+00    0.5791829301E+00
