  Pressure (Pa) 22mC5-400 (mol/kg) 3mC6-400 (mol/kg) 33mC5-400 (mol/kg) 23mC5-400 (mol/kg) C7-400 (mol/kg)
    0.1000000000E+01    0.5319741423E-03    0.3148302585E-02    0.4520313282E-03    0.1868171128E-03    0.6811854425E-02
    0.3000000000E+01    0.1591125287E-02    0.9167500908E-02    0.1321511463E-02    0.5587680026E-03    0.1983821363E-01
    0.5000000000E+01    0.2643935239E-02    0.1484331240E-01    0.2148236973E-02    0.9284937386E-03    0.3212505865E-01
    0.7000000000E+01    0.3690469179E-02    0.2020442239E-01    0.2935829442E-02    0.1296017190E-02    0.4373406883E-01
    0.9000000000E+01    0.4730791378E-02    0.2527640439E-01    0.3687505370E-02    0.1661360904E-02    0.5472023766E-01
    0.1100000000E+02    0.5764965211E-02    0.3008213101E-01    0.4406130800E-02    0.2024547117E-02    0.6513275527E-01
    0.1300000000E+02    0.6793053174E-02    0.3464212144E-01    0.5094267409E-02    0.2385597754E-02    0.7501575466E-01
    0.1500000000E+02    0.7815116896E-02    0.3897483660E-01    0.5754211553E-02    0.2744534438E-02    0.8440894569E-01
    0.1700000000E+02    0.8831217159E-02    0.4309693105E-01    0.6388027502E-02    0.3101378493E-02    0.9334815597E-01
    0.1900000000E+02    0.9841413908E-02    0.4702346863E-01    0.6997575837E-02    0.3456150952E-02    0.1018657943E+00
    0.2100000000E+02    0.1084576627E-01    0.5076810812E-01    0.7584537805E-02    0.3808872556E-02    0.1099912494E+00
    0.2300000000E+02    0.1184433255E-01    0.5434326331E-01    0.8150436290E-02    0.4159563768E-02    0.1177512336E+00
    0.2500000000E+02    0.1283717029E-01    0.5776024180E-01    0.8696653932E-02    0.4508244768E-02    0.1251700813E+00
    0.2700000000E+02    0.1382433623E-01    0.6102936556E-01    0.9224448833E-02    0.4854935466E-02    0.1322700079E+00
    0.2900000000E+02    0.1480588634E-01    0.6416007610E-01    0.9734968212E-02    0.5199655500E-02    0.1390713357E+00
    0.3100000000E+02    0.1578187584E-01    0.6716102643E-01    0.1022926032E-01    0.5542424247E-02    0.1455926916E+00
    0.3300000000E+02    0.1675235923E-01    0.7004016175E-01    0.1070828487E-01    0.5883260821E-02    0.1518511804E+00
    0.3500000000E+02    0.1771739026E-01    0.7280479038E-01    0.1117292216E-01    0.6222184082E-02    0.1578625373E+00
    0.3700000000E+02    0.1867702196E-01    0.7546164641E-01    0.1162398112E-01    0.6559212638E-02    0.1636412627E+00
    0.3900000000E+02    0.1963130666E-01    0.7801694501E-01    0.1206220644E-01    0.6894364850E-02    0.1692007405E+00
    0.4100000000E+02    0.2058029601E-01    0.8047643152E-01    0.1248828478E-01    0.7227658835E-02    0.1745533444E+00
    0.4300000000E+02    0.2152404096E-01    0.8284542504E-01    0.1290285036E-01    0.7559112472E-02    0.1797105310E+00
    0.4500000000E+02    0.2246259181E-01    0.8512885730E-01    0.1330648989E-01    0.7888743405E-02    0.1846829236E+00
    0.4700000000E+02    0.2339599817E-01    0.8733130728E-01    0.1369974697E-01    0.8216569046E-02    0.1894803865E+00
    0.4900000000E+02    0.2432430904E-01    0.8945703223E-01    0.1408312597E-01    0.8542606579E-02    0.1941120920E+00
    0.1000000000E+02    0.5248642914E-02    0.2771121570E-01    0.4050782648E-02    0.1843222321E-02    0.5999533396E-01
    0.3000000000E+02    0.1529457274E-01    0.6567625900E-01    0.9984080732E-02    0.5371282584E-02    0.1423659072E+00
    0.5000000000E+02    0.2478656879E-01    0.9049237215E-01    0.1427125896E-01    0.8704960114E-02    0.1963684775E+00
    0.7000000000E+02    0.3377572833E-01    0.1080014653E+00    0.1761319059E-01    0.1186218233E-01    0.2345834425E+00
    0.9000000000E+02    0.4230688970E-01    0.1210275844E+00    0.2034219287E-01    0.1485868092E-01    0.2630982460E+00
    0.1100000000E+03    0.5041956268E-01    0.1311035727E+00    0.2263779019E-01    0.1770831823E-01    0.2852202485E+00
    0.1300000000E+03    0.5814869827E-01    0.1391337646E+00    0.2460705251E-01    0.2042335727E-01    0.3029025840E+00
    0.1500000000E+03    0.6552532918E-01    0.1456864175E+00    0.2631903574E-01    0.2301468643E-01    0.3173737304E+00
    0.1700000000E+03    0.7257710555E-01    0.1511367072E+00    0.2782118214E-01    0.2549200736E-01    0.3294455386E+00
    0.1900000000E+03    0.7932874537E-01    0.1557424026E+00    0.2914780254E-01    0.2786399305E-01    0.3396763408E+00
    0.2100000000E+03    0.8580241498E-01    0.1596865165E+00    0.3032476954E-01    0.3013842125E-01    0.3484629297E+00
    0.2300000000E+03    0.9201805188E-01    0.1631026095E+00    0.3137226608E-01    0.3232228773E-01    0.3560951623E+00
    0.2500000000E+03    0.9799363987E-01    0.1660904610E+00    0.3230647610E-01    0.3442190282E-01    0.3627897927E+00
    0.2700000000E+03    0.1037454444E+00    0.1687261303E+00    0.3314066990E-01    0.3644297398E-01    0.3687122086E+00
    0.2900000000E+03    0.1092882150E+00    0.1710686212E+00    0.3388592822E-01    0.3839067675E-01    0.3739908366E+00
    0.3100000000E+03    0.1146353592E+00    0.1731644168E+00    0.3455164172E-01    0.4026971588E-01    0.3787269501E+00
    0.3300000000E+03    0.1197990937E+00    0.1750506393E+00    0.3514586646E-01    0.4208437828E-01    0.3830015065E+00
    0.3500000000E+03    0.1247905752E+00    0.1767572973E+00    0.3567558364E-01    0.4383857892E-01    0.3868800143E+00
    0.3700000000E+03    0.1296200143E+00    0.1783089151E+00    0.3614689426E-01    0.4553590085E-01    0.3904160623E+00
    0.3900000000E+03    0.1342967755E+00    0.1797257332E+00    0.3656516811E-01    0.4717963017E-01    0.3936539218E+00
    0.4100000000E+03    0.1388294637E+00    0.1810246062E+00    0.3693516002E-01    0.4877278659E-01    0.3966304943E+00
    0.4300000000E+03    0.1432260018E+00    0.1822196834E+00    0.3726110223E-01    0.5031815037E-01    0.3993767895E+00
    0.4500000000E+03    0.1474936976E+00    0.1833229322E+00    0.3754677879E-01    0.5181828601E-01    0.4019190602E+00
    0.4700000000E+03    0.1516393035E+00    0.1843445433E+00    0.3779558633E-01    0.5327556318E-01    0.4042796844E+00
    0.4900000000E+03    0.1556690697E+00    0.1852932499E+00    0.3801058438E-01    0.5469217523E-01    0.4064778572E+00
    0.1000000000E+03    0.4641325402E-01    0.1263675599E+00    0.2153630736E-01    0.1630105615E-01    0.2748141513E+00
    0.3000000000E+03    0.1119854505E+00    0.1721448463E+00    0.3422819671E-01    0.3933850212E-01    0.3764212365E+00
    0.5000000000E+03    0.1576423403E+00    0.1857426574E+00    0.3810627923E-01    0.5538587315E-01    0.4075212901E+00
    0.7000000000E+03    0.1922315110E+00    0.1922793320E+00    0.3879285378E-01    0.6754792004E-01    0.4228943677E+00
    0.9000000000E+03    0.2198365653E+00    0.1961152302E+00    0.3807430679E-01    0.7725777895E-01    0.4321606840E+00
    0.1100000000E+04    0.2426395795E+00    0.1986314687E+00    0.3671611263E-01    0.8528131250E-01    0.4383996011E+00
    0.1300000000E+04    0.2619348828E+00    0.2004043891E+00    0.3508430420E-01    0.9207283962E-01    0.4429091323E+00
    0.1500000000E+04    0.2785525211E+00    0.2017174696E+00    0.3336422474E-01    0.9792373638E-01    0.4463339878E+00
    0.1700000000E+04    0.2930577047E+00    0.2027264400E+00    0.3165214115E-01    0.1030324290E+00    0.4490317496E+00
    0.1900000000E+04    0.3058538240E+00    0.2035239677E+00    0.2999780999E-01    0.1075405470E+00    0.4512172114E+00
    0.2100000000E+04    0.3172397264E+00    0.2041686413E+00    0.2842574702E-01    0.1115530249E+00    0.4530274427E+00
    0.2300000000E+04    0.3274435489E+00    0.2046993112E+00    0.2694644449E-01    0.1151499769E+00    0.4545541733E+00
    0.2500000000E+04    0.3366437432E+00    0.2051427506E+00    0.2556253282E-01    0.1183940754E+00    0.4558611929E+00
    0.2700000000E+04    0.3449827163E+00    0.2055180049E+00    0.2427226941E-01    0.1213353394E+00    0.4569942885E+00
    0.2900000000E+04    0.3525760136E+00    0.2058389884E+00    0.2307155668E-01    0.1240143571E+00    0.4579872101E+00
    0.3100000000E+04    0.3595187017E+00    0.2061161001E+00    0.2195512472E-01    0.1264645269E+00    0.4588654043E+00
    0.3300000000E+04    0.3658899292E+00    0.2063572658E+00    0.2091722723E-01    0.1287136578E+00    0.4596484347E+00
    0.3500000000E+04    0.3717562645E+00    0.2065686299E+00    0.1995204827E-01    0.1307851413E+00    0.4603515999E+00
    0.3700000000E+04    0.3771741910E+00    0.2067550276E+00    0.1905393493E-01    0.1326988272E+00    0.4609870427E+00
    0.3900000000E+04    0.3821920061E+00    0.2069203153E+00    0.1821752415E-01    0.1344716906E+00    0.4615645293E+00
    0.4100000000E+04    0.3868512906E+00    0.2070676049E+00    0.1743780513E-01    0.1361183471E+00    0.4620920080E+00
    0.4300000000E+04    0.3911880615E+00    0.2071994345E+00    0.1671014268E-01    0.1376514583E+00    0.4625760157E+00
    0.4500000000E+04    0.3952336879E+00    0.2073178944E+00    0.1603027729E-01    0.1390820530E+00    0.4630219808E+00
    0.4700000000E+04    0.3990156270E+00    0.2074247210E+00    0.1539431177E-01    0.1404197855E+00    0.4634344496E+00
    0.4900000000E+04    0.4025580205E+00    0.2075213683E+00    0.1479869041E-01    0.1416731454E+00    0.4638172606E+00
    0.1000000000E+04    0.2317431734E+00    0.1974922235E+00    0.3744642638E-01    0.8144693747E-01    0.4355550550E+00
    0.3000000000E+04    0.3561234079E+00    0.2059824843E+00    0.2250315942E-01    0.1252661944E+00    0.4584393095E+00
    0.5000000000E+04    0.4042461476E+00    0.2075662655E+00    0.1451498508E-01    0.1422705630E+00    0.4639985837E+00
    0.7000000000E+04    0.4294865028E+00    0.2081462268E+00    0.1031614355E-01    0.1512153792E+00    0.4666525971E+00
    0.9000000000E+04    0.4448119319E+00    0.2084058699E+00    0.7852251324E-02    0.1566627066E+00    0.4682561073E+00
    0.1100000000E+05    0.4550143093E+00    0.2085287991E+00    0.6275542923E-02    0.1603001731E+00    0.4693523279E+00
    0.1300000000E+05    0.4622535581E+00    0.2085835394E+00    0.5198610714E-02    0.1628892539E+00    0.4701612374E+00
    0.1500000000E+05    0.4676365875E+00    0.2086008609E+00    0.4425376350E-02    0.1648205831E+00    0.4707899112E+00
    0.1700000000E+05    0.4717853075E+00    0.2085963388E+00    0.3847999363E-02    0.1663138588E+00    0.4712971498E+00
    0.1900000000E+05    0.4750743304E+00    0.2085785458E+00    0.3403081566E-02    0.1675015527E+00    0.4717181350E+00
    0.2100000000E+05    0.4777419876E+00    0.2085525004E+00    0.3051282061E-02    0.1684680313E+00    0.4720753158E+00
    0.2300000000E+05    0.4799467445E+00    0.2085212801E+00    0.2767077290E-02    0.1692694473E+00    0.4723837520E+00
    0.2500000000E+05    0.4817978632E+00    0.2084868411E+00    0.2533280470E-02    0.1699445586E+00    0.4726539609E+00
    0.2700000000E+05    0.4833730099E+00    0.2084504616E+00    0.2337948002E-02    0.1705209443E+00    0.4728935328E+00
    0.2900000000E+05    0.4847288396E+00    0.2084129946E+00    0.2172552614E-02    0.1710187438E+00    0.4731080987E+00
    0.3100000000E+05    0.4859076114E+00    0.2083750183E+00    0.2030861983E-02    0.1714529950E+00    0.4733019343E+00
    0.3300000000E+05    0.4869414633E+00    0.2083369287E+00    0.1908226906E-02    0.1718351467E+00    0.4734783517E+00
    0.3500000000E+05    0.4878552549E+00    0.2082989985E+00    0.1801116030E-02    0.1721740644E+00    0.4736399617E+00
    0.3700000000E+05    0.4886685071E+00    0.2082614154E+00    0.1706803761E-02    0.1724767170E+00    0.4737888536E+00
    0.3900000000E+05    0.4893967551E+00    0.2082243080E+00    0.1623156082E-02    0.1727486570E+00    0.4739267220E+00
    0.4100000000E+05    0.4900525112E+00    0.2081877627E+00    0.1548480513E-02    0.1729943610E+00    0.4740549578E+00
    0.4300000000E+05    0.4906459628E+00    0.2081518359E+00    0.1481419054E-02    0.1732174780E+00    0.4741747151E+00
    0.4500000000E+05    0.4911854859E+00    0.2081165627E+00    0.1420870522E-02    0.1734210115E+00    0.4742869605E+00
    0.4700000000E+05    0.4916780285E+00    0.2080819625E+00    0.1365933338E-02    0.1736074556E+00    0.4743925107E+00
    0.4900000000E+05    0.4921294017E+00    0.2080480437E+00    0.1315862814E-02    0.1737788987E+00    0.4744920614E+00
    0.1000000000E+05    0.4503831841E+00    0.2084788046E+00    0.6983604505E-02    0.1586476441E+00    0.4688499653E+00
    0.3000000000E+05    0.4853381506E+00    0.2083940419E+00    0.2099065508E-02    0.1712430269E+00    0.4732073818E+00
    0.5000000000E+05    0.4923412105E+00    0.2080313400E+00    0.1292454621E-02    0.1738595564E+00    0.4745397767E+00
    0.7000000000E+05    0.4952791975E+00    0.2077308269E+00    0.9725149509E-03    0.1749963569E+00    0.4752877300E+00
    0.9000000000E+05    0.4968824042E+00    0.2074832122E+00    0.7996345704E-03    0.1756383753E+00    0.4757981283E+00
    0.1100000000E+06    0.4978871184E+00    0.2072741513E+00    0.6901297758E-03    0.1760545609E+00    0.4761821865E+00
    0.1300000000E+06    0.4985732702E+00    0.2070936644E+00    0.6137717950E-03    0.1763484118E+00    0.4764886158E+00
    0.1500000000E+06    0.4990701803E+00    0.2069350207E+00    0.5570110722E-03    0.1765683150E+00    0.4767428139E+00
    0.1700000000E+06    0.4994457143E+00    0.2067935587E+00    0.5128590789E-03    0.1767399654E+00    0.4769596042E+00
    0.1900000000E+06    0.4997388608E+00    0.2066659433E+00    0.4773362603E-03    0.1768782982E+00    0.4771483527E+00
    0.2100000000E+06    0.4999735890E+00    0.2065497151E+00    0.4480033293E-03    0.1769926031E+00    0.4773153370E+00
    0.2300000000E+06    0.5001654334E+00    0.2064430121E+00    0.4232775375E-03    0.1770889706E+00    0.4774649608E+00
    0.2500000000E+06    0.5003248965E+00    0.2063443924E+00    0.4020843160E-03    0.1771715660E+00    0.4776004274E+00
    0.2700000000E+06    0.5004593293E+00    0.2062527174E+00    0.3836666981E-03    0.1772433384E+00    0.4777241369E+00
    0.2900000000E+06    0.5005740283E+00    0.2061670726E+00    0.3674748772E-03    0.1773064367E+00    0.4778379326E+00
    0.3100000000E+06    0.5006729042E+00    0.2060867128E+00    0.3530990821E-03    0.1773624657E+00    0.4779432595E+00
    0.3300000000E+06    0.5007589064E+00    0.2060110227E+00    0.3402271134E-03    0.1774126494E+00    0.4780412711E+00
    0.3500000000E+06    0.5008342999E+00    0.2059394884E+00    0.3286165475E-03    0.1774579383E+00    0.4781329022E+00
    0.3700000000E+06    0.5009008528E+00    0.2058716765E+00    0.3180759982E-03    0.1774990828E+00    0.4782189205E+00
    0.3900000000E+06    0.5009599647E+00    0.2058072180E+00    0.3084521553E-03    0.1775366833E+00    0.4782999642E+00
    0.4100000000E+06    0.5010127575E+00    0.2057457960E+00    0.2996206156E-03    0.1775712265E+00    0.4783765693E+00
    0.4300000000E+06    0.5010601410E+00    0.2056871369E+00    0.2914792644E-03    0.1776031116E+00    0.4784491903E+00
    0.4500000000E+06    0.5011028604E+00    0.2056310021E+00    0.2839434129E-03    0.1776326688E+00    0.4785182157E+00
    0.4700000000E+06    0.5011415317E+00    0.2055771828E+00    0.2769421681E-03    0.1776601743E+00    0.4785839803E+00
    0.4900000000E+06    0.5011766684E+00    0.2055254953E+00    0.2704156824E-03    0.1776858607E+00    0.4786467744E+00
    0.1000000000E+06    0.4974367653E+00    0.2073745794E+00    0.7394462913E-03    0.1758662908E+00    0.4760021142E+00
    0.3000000000E+06    0.5006252411E+00    0.2061262732E+00    0.3600813953E-03    0.1773352509E+00    0.4778915767E+00
    0.5000000000E+06    0.5011930490E+00    0.2055003993E+00    0.2673142625E-03    0.1776980847E+00    0.4786771381E+00
    0.7000000000E+06    0.5014108033E+00    0.2050791330E+00    0.2210711495E-03    0.1778824146E+00    0.4791760161E+00
    0.9000000000E+06    0.5015179415E+00    0.2047610336E+00    0.1922432033E-03    0.1780006827E+00    0.4795414251E+00
    0.1100000000E+07    0.5015773674E+00    0.2045053281E+00    0.1721154987E-03    0.1780859863E+00    0.4798295725E+00
    0.1300000000E+07    0.5016124489E+00    0.2042914829E+00    0.1570578641E-03    0.1781519713E+00    0.4800673406E+00
    0.1500000000E+07    0.5016337232E+00    0.2041076878E+00    0.1452557171E-03    0.1782054289E+00    0.4802696692E+00
    0.1700000000E+07    0.5016465786E+00    0.2039465211E+00    0.1356888234E-03    0.1782501767E+00    0.4804457168E+00
    0.1900000000E+07    0.5016540257E+00    0.2038030125E+00    0.1277340943E-03    0.1782885533E+00    0.4806015017E+00
    0.2100000000E+07    0.5016578613E+00    0.2036736690E+00    0.1209868239E-03    0.1783220854E+00    0.4807411903E+00
    0.2300000000E+07    0.5016592136E+00    0.2035559421E+00    0.1151713045E-03    0.1783518201E+00    0.4808677850E+00
    0.2500000000E+07    0.5016588204E+00    0.2034479150E+00    0.1100924157E-03    0.1783785044E+00    0.4809835212E+00
    0.2700000000E+07    0.5016571799E+00    0.2033481094E+00    0.1056077004E-03    0.1784026884E+00    0.4810901078E+00
    0.2900000000E+07    0.5016546379E+00    0.2032553615E+00    0.1016104157E-03    0.1784247884E+00    0.4811888800E+00
    0.3100000000E+07    0.5016514399E+00    0.2031687385E+00    0.9801880301E-04    0.1784451262E+00    0.4812809013E+00
    0.3300000000E+07    0.5016477631E+00    0.2030874809E+00    0.9476904894E-04    0.1784639556E+00    0.4813670322E+00
    0.3500000000E+07    0.5016437379E+00    0.2030109626E+00    0.9181052591E-04    0.1784814799E+00    0.4814479786E+00
    0.3700000000E+07    0.5016394612E+00    0.2029386610E+00    0.8910248876E-04    0.1784978647E+00    0.4815243270E+00
    0.3900000000E+07    0.5016350061E+00    0.2028701355E+00    0.8661172876E-04    0.1785132463E+00    0.4815965699E+00
    0.4100000000E+07    0.5016304281E+00    0.2028050112E+00    0.8431087369E-04    0.1785277381E+00    0.4816651247E+00
    0.4300000000E+07    0.5016257695E+00    0.2027429663E+00    0.8217713387E-04    0.1785414357E+00    0.4817303484E+00
    0.4500000000E+07    0.5016210630E+00    0.2026837227E+00    0.8019136216E-04    0.1785544201E+00    0.4817925486E+00
    0.4700000000E+07    0.5016163339E+00    0.2026270383E+00    0.7833733922E-04    0.1785667608E+00    0.4818519922E+00
    0.4900000000E+07    0.5016116019E+00    0.2025727013E+00    0.7660122283E-04    0.1785785176E+00    0.4819089123E+00
    0.1000000000E+07    0.5015517030E+00    0.2046269487E+00    0.1813811602E-03    0.1780463655E+00    0.4796930815E+00
    0.3000000000E+07    0.5016531085E+00    0.2032113354E+00    0.9976824483E-04    0.1784351604E+00    0.4812356767E+00
    0.5000000000E+07    0.5016092397E+00    0.2025463538E+00    0.7577359629E-04    0.1785841935E+00    0.4819364911E+00
    0.7000000000E+07    0.5015641088E+00    0.2021071089E+00    0.6324208074E-04    0.1786767157E+00    0.4823944020E+00
    0.9000000000E+07    0.5015244885E+00    0.2017786093E+00    0.5526181635E-04    0.1787437727E+00    0.4827348734E+00
    0.1100000000E+08    0.5014900175E+00    0.2015161232E+00    0.4962216626E-04    0.1787963369E+00    0.4830059124E+00
    0.1300000000E+08    0.5014597348E+00    0.2012975185E+00    0.4537030427E-04    0.1788395489E+00    0.4832310462E+00
    0.1500000000E+08    0.5014328134E+00    0.2011102112E+00    0.4201980610E-04    0.1788762277E+00    0.4834235667E+00
    0.1700000000E+08    0.5014086158E+00    0.2009463574E+00    0.3929324027E-04    0.1789080857E+00    0.4835917200E+00
    0.1900000000E+08    0.5013866577E+00    0.2008007360E+00    0.3701940848E-04    0.1789362407E+00    0.4837409753E+00
    0.2100000000E+08    0.5013665681E+00    0.2006696959E+00    0.3508624213E-04    0.1789614622E+00    0.4838751459E+00
    0.2300000000E+08    0.5013480583E+00    0.2005505834E+00    0.3341692674E-04    0.1789843028E+00    0.4839969970E+00
    0.2500000000E+08    0.5013309006E+00    0.2004414091E+00    0.3195683375E-04    0.1790051724E+00    0.4841085974E+00
    0.2700000000E+08    0.5013149123E+00    0.2003406431E+00    0.3066591912E-04    0.1790243837E+00    0.4842115353E+00
