  Pressure (Pa) 22mC5-400 (mol/kg) 3mC6-400 (mol/kg) 33mC5-400 (mol/kg) 23mC5-400 (mol/kg) C7-400 (mol/kg)
    0.1000000000E+01    0.5320069460E-03    0.1562314978E-02    0.3851162256E-03    0.1868286270E-03    0.1352177093E-01
    0.3000000000E+01    0.1591418262E-02    0.4484798276E-02    0.1113303884E-02    0.5588708382E-03    0.3882412361E-01
    0.5000000000E+01    0.2644742854E-02    0.7165634643E-02    0.1791443812E-02    0.9287772161E-03    0.6204468235E-01
    0.7000000000E+01    0.3692040074E-02    0.9633628214E-02    0.2425710576E-02    0.1296568584E-02    0.8343120037E-01
    0.9000000000E+01    0.4733368488E-02    0.1191317897E-01    0.3021299218E-02    0.1662265489E-02    0.1031935793E+00
    0.1100000000E+02    0.5768785890E-02    0.1402509347E-01    0.3582609711E-02    0.2025888208E-02    0.1215108341E+00
    0.1300000000E+02    0.6798349310E-02    0.1598722293E-01    0.4113391557E-02    0.2387456749E-02    0.1385365739E+00
    0.1500000000E+02    0.7822115034E-02    0.1781496991E-01    0.4616858188E-02    0.2746990859E-02    0.1544033566E+00
    0.1700000000E+02    0.8840138608E-02    0.1952169430E-01    0.5095778249E-02    0.3104510026E-02    0.1692261766E+00
    0.1900000000E+02    0.9852474856E-02    0.2111904110E-01    0.5552549001E-02    0.3460033484E-02    0.1831052820E+00
    0.2100000000E+02    0.1085917789E-01    0.2261720704E-01    0.5989255790E-02    0.3813580218E-02    0.1961284654E+00
    0.2300000000E+02    0.1186030112E-01    0.2402515897E-01    0.6407720545E-02    0.4165168967E-02    0.2083729414E+00
    0.2500000000E+02    0.1285589727E-01    0.2535081388E-01    0.6809541598E-02    0.4514818226E-02    0.2199068940E+00
    0.2700000000E+02    0.1384601838E-01    0.2660118821E-01    0.7196126556E-02    0.4862546254E-02    0.2307907596E+00
    0.2900000000E+02    0.1483071582E-01    0.2778252237E-01    0.7568719611E-02    0.5208371076E-02    0.2410782983E+00
    0.3100000000E+02    0.1581004032E-01    0.2890038518E-01    0.7928424326E-02    0.5552310486E-02    0.2508174910E+00
    0.3300000000E+02    0.1678404194E-01    0.2995976185E-01    0.8276222764E-02    0.5894382051E-02    0.2600512964E+00
    0.3500000000E+02    0.1775277012E-01    0.3096512849E-01    0.8612991609E-02    0.6234603114E-02    0.2688182921E+00
    0.3700000000E+02    0.1871627367E-01    0.3192051553E-01    0.8939515812E-02    0.6572990801E-02    0.2771532189E+00
    0.3900000000E+02    0.1967460079E-01    0.3282956182E-01    0.9256500202E-02    0.6909562020E-02    0.2850874473E+00
    0.4100000000E+02    0.2062779906E-01    0.3369556108E-01    0.9564579393E-02    0.7244333465E-02    0.2926493762E+00
    0.4300000000E+02    0.2157591546E-01    0.3452150192E-01    0.9864326275E-02    0.7577321623E-02    0.2998647775E+00
    0.4500000000E+02    0.2251899641E-01    0.3531010233E-01    0.1015625932E-01    0.7908542774E-02    0.3067570929E+00
    0.4700000000E+02    0.2345708773E-01    0.3606383965E-01    0.1044084887E-01    0.8238012994E-02    0.3133476916E+00
    0.4900000000E+02    0.2439023466E-01    0.3678497669E-01    0.1071852262E-01    0.8565748160E-02    0.3196560949E+00
    0.1000000000E+02    0.5251812483E-02    0.1298891228E-01    0.3305991113E-02    0.1844334865E-02    0.1125227070E+00
    0.3000000000E+02    0.1532104654E-01    0.2834906338E-01    0.7750118986E-02    0.5380575354E-02    0.2460136432E+00
    0.5000000000E+02    0.2485496797E-01    0.3713397420E-01    0.1085488924E-01    0.8728970006E-02    0.3227101169E+00
    0.7000000000E+02    0.3390068216E-01    0.4282234278E-01    0.1329758227E-01    0.1190604534E-01    0.3725996935E+00
    0.9000000000E+02    0.4249978992E-01    0.4680608932E-01    0.1533722595E-01    0.1492639685E-01    0.4076992130E+00
    0.1100000000E+03    0.5068916873E-01    0.4975127888E-01    0.1709574539E-01    0.1780296299E-01    0.4337675196E+00
    0.1300000000E+03    0.5850162503E-01    0.5201680423E-01    0.1863993651E-01    0.2054725409E-01    0.4539121985E+00
    0.1500000000E+03    0.6596644170E-01    0.5381320618E-01    0.2001097756E-01    0.2316954432E-01    0.4699589688E+00
    0.1700000000E+03    0.7310983989E-01    0.5527217269E-01    0.2123672626E-01    0.2567903373E-01    0.4830514566E+00
    0.1900000000E+03    0.7995537019E-01    0.5648030674E-01    0.2233744103E-01    0.2808398551E-01    0.4939428673E+00
    0.2100000000E+03    0.8652424558E-01    0.5749690632E-01    0.2332868852E-01    0.3039184270E-01    0.5031496944E+00
    0.2300000000E+03    0.9283562587E-01    0.5836394310E-01    0.2422293523E-01    0.3260932804E-01    0.5110380622E+00
    0.2500000000E+03    0.9890686171E-01    0.5911196200E-01    0.2503047685E-01    0.3474252955E-01    0.5178748171E+00
    0.2700000000E+03    0.1047537047E+00    0.5976372314E-01    0.2576001304E-01    0.3679697424E-01    0.5238590948E+00
    0.2900000000E+03    0.1103904888E+00    0.6033653404E-01    0.2641902179E-01    0.3877769175E-01    0.5291425531E+00
    0.3100000000E+03    0.1158302880E+00    0.6084379049E-01    0.2701401486E-01    0.4068926960E-01    0.5338427510E+00
    0.3300000000E+03    0.1210850527E+00    0.6129602275E-01    0.2755071942E-01    0.4253590123E-01    0.5380522407E+00
    0.3500000000E+03    0.1261657298E+00    0.6170162293E-01    0.2803421201E-01    0.4432142784E-01    0.5418448944E+00
    0.3700000000E+03    0.1310823666E+00    0.6206736147E-01    0.2846902056E-01    0.4604937512E-01    0.5452804006E+00
    0.3900000000E+03    0.1358442030E+00    0.6239876075E-01    0.2885920412E-01    0.4772298539E-01    0.5484075197E+00
    0.4100000000E+03    0.1404597518E+00    0.6270036999E-01    0.2920841670E-01    0.4934524594E-01    0.5512664812E+00
    0.4300000000E+03    0.1449368705E+00    0.6297597053E-01    0.2951995936E-01    0.5091891401E-01    0.5538907757E+00
    0.4500000000E+03    0.1492828237E+00    0.6322873119E-01    0.2979682331E-01    0.5244653890E-01    0.5563085124E+00
    0.4700000000E+03    0.1535043391E+00    0.6346132747E-01    0.3004172619E-01    0.5393048154E-01    0.5585434611E+00
    0.4900000000E+03    0.1576076575E+00    0.6367603388E-01    0.3025714286E-01    0.5537293195E-01    0.5606158605E+00
    0.1000000000E+03    0.4664355650E-01    0.4838138388E-01    0.1624663215E-01    0.1638190264E-01    0.4216275443E+00
    0.3000000000E+03    0.1131342398E+00    0.6059764103E-01    0.2672414571E-01    0.3974185232E-01    0.5315592739E+00
    0.5000000000E+03    0.1596168207E+00    0.6377729765E-01    0.3035450744E-01    0.5607923906E-01    0.5615966221E+00
    0.7000000000E+03    0.1948054786E+00    0.6521476842E-01    0.3120866710E-01    0.6845192909E-01    0.5758189086E+00
    0.9000000000E+03    0.2228147112E+00    0.6602160054E-01    0.3078124581E-01    0.7830387139E-01    0.5841738576E+00
    0.1100000000E+04    0.2458740460E+00    0.6653119643E-01    0.2974856560E-01    0.8641756973E-01    0.5896963807E+00
    0.1300000000E+04    0.2653175179E+00    0.6687795959E-01    0.2844366293E-01    0.9326127469E-01    0.5936302251E+00
    0.1500000000E+04    0.2820050791E+00    0.6712631898E-01    0.2703868484E-01    0.9913685860E-01    0.5965813187E+00
    0.1700000000E+04    0.2965238759E+00    0.6731093793E-01    0.2562471031E-01    0.1042504486E+00    0.5988809071E+00
    0.1900000000E+04    0.3092933169E+00    0.6745207731E-01    0.2424983250E-01    0.1087492989E+00    0.6007257002E+00
    0.2100000000E+04    0.3206239728E+00    0.6756234493E-01    0.2293852907E-01    0.1127424615E+00    0.6022400514E+00
    0.2300000000E+04    0.3307525967E+00    0.6764998071E-01    0.2170201025E-01    0.1163130773E+00    0.6035065189E+00
    0.2500000000E+04    0.3398639957E+00    0.6772058682E-01    0.2054395976E-01    0.1195260520E+00    0.6045821183E+00
    0.2700000000E+04    0.3481052777E+00    0.6777809794E-01    0.1946381220E-01    0.1224330565E+00    0.6055075240E+00
    0.2900000000E+04    0.3555954688E+00    0.6782535384E-01    0.1845866301E-01    0.1250759031E+00    0.6063125528E+00
    0.3100000000E+04    0.3624322107E+00    0.6786445205E-01    0.1752439607E-01    0.1274888955E+00    0.6070195728E+00
    0.3300000000E+04    0.3686965513E+00    0.6789697303E-01    0.1665635293E-01    0.1297005109E+00    0.6076457012E+00
    0.3500000000E+04    0.3744564510E+00    0.6792412840E-01    0.1584972818E-01    0.1317346305E+00    0.6082042656E+00
    0.3700000000E+04    0.3797694036E+00    0.6794686125E-01    0.1509979909E-01    0.1336114601E+00    0.6087058014E+00
    0.3900000000E+04    0.3846844290E+00    0.6796591558E-01    0.1440205402E-01    0.1353482292E+00    0.6091587496E+00
    0.4100000000E+04    0.3892436126E+00    0.6798188536E-01    0.1375225875E-01    0.1369597313E+00    0.6095699541E+00
    0.4300000000E+04    0.3934833115E+00    0.6799524995E-01    0.1314648502E-01    0.1384587482E+00    0.6099450243E+00
    0.4500000000E+04    0.3974351102E+00    0.6800639989E-01    0.1258111607E-01    0.1398563847E+00    0.6102886019E+00
    0.4700000000E+04    0.4011265878E+00    0.6801565620E-01    0.1205283880E-01    0.1411623386E+00    0.6106045620E+00
    0.4900000000E+04    0.4045819378E+00    0.6802328486E-01    0.1155862838E-01    0.1423851178E+00    0.6108961655E+00
    0.1000000000E+04    0.2348652382E+00    0.6630272523E-01    0.3031457991E-01    0.8254364662E-01    0.5871894049E+00
    0.3000000000E+04    0.3590901127E+00    0.6784581378E-01    0.1798295335E-01    0.1263092309E+00    0.6066771409E+00
    0.5000000000E+04    0.4062278262E+00    0.6802655964E-01    0.1132342708E-01    0.1429676950E+00    0.6110337140E+00
    0.7000000000E+04    0.4307877368E+00    0.6804502015E-01    0.7861101673E-02    0.1516733587E+00    0.6129983410E+00
    0.9000000000E+04    0.4456718299E+00    0.6802186039E-01    0.5851665062E-02    0.1569654864E+00    0.6141309706E+00
    0.1100000000E+05    0.4555808460E+00    0.6798563815E-01    0.4579056480E-02    0.1604997445E+00    0.6148748473E+00
    0.1300000000E+05    0.4626181934E+00    0.6794558839E-01    0.3718392476E-02    0.1630177663E+00    0.6154048938E+00
    0.1500000000E+05    0.4678577051E+00    0.6790518668E-01    0.3106310384E-02    0.1648985668E+00    0.6158042970E+00
    0.1700000000E+05    0.4719015409E+00    0.6786582523E-01    0.2653488589E-02    0.1663549032E+00    0.6161177745E+00
    0.1900000000E+05    0.4751121066E+00    0.6782804827E-01    0.2307697892E-02    0.1675149563E+00    0.6163715583E+00
    0.2100000000E+05    0.4777199194E+00    0.6779202935E-01    0.2036691271E-02    0.1684603446E+00    0.6165820804E+00
    0.2300000000E+05    0.4798782777E+00    0.6775777452E-01    0.1819647845E-02    0.1692454036E+00    0.6167601759E+00
    0.2500000000E+05    0.4816929269E+00    0.6772521465E-01    0.1642612278E-02    0.1699076540E+00    0.6169132895E+00
    0.2700000000E+05    0.4832390776E+00    0.6769424937E-01    0.1495930186E-02    0.1704738109E+00    0.6170467124E+00
    0.2900000000E+05    0.4845716314E+00    0.6766476837E-01    0.1372739012E-02    0.1709633964E+00    0.6171643134E+00
    0.3100000000E+05    0.4857315700E+00    0.6763666183E-01    0.1268044771E-02    0.1713909990E+00    0.6172689898E+00
    0.3300000000E+05    0.4867500842E+00    0.6760982532E-01    0.1178137886E-02    0.1717677340E+00    0.6173629570E+00
    0.3500000000E+05    0.4876513200E+00    0.6758416182E-01    0.1100212531E-02    0.1721022154E+00    0.6174479394E+00
    0.3700000000E+05    0.4884542532E+00    0.6755958238E-01    0.1032112082E-02    0.1724012204E+00    0.6175253008E+00
    0.3900000000E+05    0.4891739970E+00    0.6753600603E-01    0.9721549345E-03    0.1726701526E+00    0.6175961347E+00
    0.4100000000E+05    0.4898227336E+00    0.6751335929E-01    0.9190128370E-03    0.1729133726E+00    0.6176613289E+00
    0.4300000000E+05    0.4904103893E+00    0.6749157562E-01    0.8716243329E-03    0.1731344372E+00    0.6177216125E+00
    0.4500000000E+05    0.4909451313E+00    0.6747059472E-01    0.8291321364E-03    0.1733362764E+00    0.6177775897E+00
    0.4700000000E+05    0.4914337398E+00    0.6745036194E-01    0.7908371379E-03    0.1735213252E+00    0.6178297665E+00
    0.4900000000E+05    0.4918818895E+00    0.6743082770E-01    0.7561641520E-03    0.1736916238E+00    0.6178785697E+00
    0.1000000000E+05    0.4510821398E+00    0.6800459424E-01    0.5148971425E-02    0.1588938074E+00    0.6145373676E+00
    0.3000000000E+05    0.4851710361E+00    0.6765054998E-01    0.1318336505E-02    0.1711841827E+00    0.6172181153E+00
    0.5000000000E+05    0.4920923173E+00    0.6742130828E-01    0.7400335635E-03    0.1737717907E+00    0.6179018217E+00
    0.7000000000E+05    0.4950213577E+00    0.6725857498E-01    0.5256020071E-03    0.1749053743E+00    0.6182547842E+00
    0.9000000000E+05    0.4966300252E+00    0.6713275758E-01    0.4157202064E-03    0.1755492766E+00    0.6184839373E+00
    0.1100000000E+06    0.4976434755E+00    0.6703025905E-01    0.3490210344E-03    0.1759685139E+00    0.6186507796E+00
    0.1300000000E+06    0.4983387365E+00    0.6694380252E-01    0.3040992733E-03    0.1762655559E+00    0.6187808431E+00
    0.1500000000E+06    0.4988442855E+00    0.6686905215E-01    0.2716529897E-03    0.1764884897E+00    0.6188869078E+00
    0.1700000000E+06    0.4992277672E+00    0.6680321900E-01    0.2470154140E-03    0.1766629305E+00    0.6189761950E+00
    0.1900000000E+06    0.4995281539E+00    0.6674440417E-01    0.2275943520E-03    0.1768038068E+00    0.6190531481E+00
    0.2100000000E+06    0.4997694663E+00    0.6669125669E-01    0.2118361565E-03    0.1769204258E+00    0.6191206806E+00
    0.2300000000E+06    0.4999673078E+00    0.6664278132E-01    0.1987530128E-03    0.1770189018E+00    0.6191807983E+00
    0.2500000000E+06    0.5001322501E+00    0.6659822376E-01    0.1876865428E-03    0.1771034242E+00    0.6192349373E+00
    0.2700000000E+06    0.5002717071E+00    0.6655699871E-01    0.1781807074E-03    0.1771769640E+00    0.6192841588E+00
    0.2900000000E+06    0.5003910306E+00    0.6651864288E-01    0.1699093376E-03    0.1772416894E+00    0.6193292681E+00
    0.3100000000E+06    0.5004941790E+00    0.6648278331E-01    0.1626327520E-03    0.1772992219E+00    0.6193708900E+00
    0.3300000000E+06    0.5005841424E+00    0.6644911531E-01    0.1561707002E-03    0.1773507999E+00    0.6194095182E+00
    0.3500000000E+06    0.5006632211E+00    0.6641738676E-01    0.1503848866E-03    0.1773973861E+00    0.6194455498E+00
    0.3700000000E+06    0.5007332130E+00    0.6638738666E-01    0.1451673357E-03    0.1774397414E+00    0.6194793084E+00
    0.3900000000E+06    0.5007955437E+00    0.6635893667E-01    0.1404324385E-03    0.1774784753E+00    0.6195110612E+00
    0.4100000000E+06    0.5008513576E+00    0.6633188470E-01    0.1361113887E-03    0.1775140825E+00    0.6195410314E+00
    0.4300000000E+06    0.5009015836E+00    0.6630609997E-01    0.1321482075E-03    0.1775469687E+00    0.6195694069E+00
    0.4500000000E+06    0.5009469839E+00    0.6628146925E-01    0.1284968532E-03    0.1775774702E+00    0.6195963478E+00
    0.4700000000E+06    0.5009881893E+00    0.6625789383E-01    0.1251190818E-03    0.1776058684E+00    0.6196219913E+00
    0.4900000000E+06    0.5010257264E+00    0.6623528713E-01    0.1219828418E-03    0.1776324005E+00    0.6196464561E+00
    0.1000000000E+06    0.4971886058E+00    0.6707914197E-01    0.3787476168E-03    0.1757786643E+00    0.6185731121E+00
    0.3000000000E+06    0.5004444209E+00    0.6650042150E-01    0.1661591151E-03    0.1772712699E+00    0.6193504815E+00
    0.5000000000E+06    0.5010432605E+00    0.6622432284E-01    0.1204966665E-03    0.1776450310E+00    0.6196582792E+00
    0.7000000000E+06    0.5012792349E+00    0.6604133440E-01    0.9864506571E-04    0.1778357826E+00    0.6198520764E+00
    0.9000000000E+06    0.5013987437E+00    0.6590430354E-01    0.8529584255E-04    0.1779584131E+00    0.6199937396E+00
    0.1100000000E+07    0.5014673003E+00    0.6579474453E-01    0.7608744327E-04    0.1780469379E+00    0.6201054444E+00
    0.1300000000E+07    0.5015094944E+00    0.6570347579E-01    0.6925371795E-04    0.1781154329E+00    0.6201976803E+00
    0.1500000000E+07    0.5015365222E+00    0.6562526482E-01    0.6392802561E-04    0.1781709213E+00    0.6202762419E+00
    0.1700000000E+07    0.5015541627E+00    0.6555684522E-01    0.5962944819E-04    0.1782173586E+00    0.6203446691E+00
    0.1900000000E+07    0.5015656755E+00    0.6549604055E-01    0.5606713191E-04    0.1782571708E+00    0.6204052832E+00
    0.2100000000E+07    0.5015730245E+00    0.6544132766E-01    0.5305358817E-04    0.1782919437E+00    0.6204596892E+00
    0.2300000000E+07    0.5015774550E+00    0.6539159890E-01    0.5046185902E-04    0.1783227656E+00    0.6205090429E+00
    0.2500000000E+07    0.5015797895E+00    0.6534602353E-01    0.4820253727E-04    0.1783504135E+00    0.6205542048E+00
    0.2700000000E+07    0.5015805894E+00    0.6530396252E-01    0.4621061394E-04    0.1783754598E+00    0.6205958324E+00
    0.2900000000E+07    0.5015802487E+00    0.6526491373E-01    0.4443754638E-04    0.1783983376E+00    0.6206344397E+00
    0.3100000000E+07    0.5015790503E+00    0.6522847545E-01    0.4284626379E-04    0.1784193819E+00    0.6206704359E+00
    0.3300000000E+07    0.5015772011E+00    0.6519432128E-01    0.4140790618E-04    0.1784388572E+00    0.6207041525E+00
    0.3500000000E+07    0.5015748555E+00    0.6516218239E-01    0.4009962822E-04    0.1784569751E+00    0.6207358614E+00
    0.3700000000E+07    0.5015721298E+00    0.6513183477E-01    0.3890308023E-04    0.1784739081E+00    0.6207657887E+00
    0.3900000000E+07    0.5015691129E+00    0.6510308976E-01    0.3780333285E-04    0.1784897980E+00    0.6207941241E+00
    0.4100000000E+07    0.5015658737E+00    0.6507578702E-01    0.3678809987E-04    0.1785047630E+00    0.6208210286E+00
    0.4300000000E+07    0.5015624658E+00    0.6504978907E-01    0.3584716644E-04    0.1785189027E+00    0.6208466401E+00
    0.4500000000E+07    0.5015589314E+00    0.6502497724E-01    0.3497196135E-04    0.1785323015E+00    0.6208710772E+00
    0.4700000000E+07    0.5015553038E+00    0.6500124828E-01    0.3415523244E-04    0.1785450316E+00    0.6208944431E+00
    0.4900000000E+07    0.5015516097E+00    0.6497851188E-01    0.3339079703E-04    0.1785571553E+00    0.6209168278E+00
    0.1000000000E+07    0.5014373804E+00    0.6584679292E-01    0.8031561517E-04    0.1780058157E+00    0.6200525254E+00
    0.3000000000E+07    0.5015797423E+00    0.6524639021E-01    0.4362114838E-04    0.1784090710E+00    0.6206527419E+00
    0.5000000000E+07    0.5015497446E+00    0.6496749068E-01    0.3302650101E-04    0.1785630070E+00    0.6209276774E+00
    0.7000000000E+07    0.5015123311E+00    0.6478406896E-01    0.2751957956E-04    0.1786582581E+00    0.6211081747E+00
    0.9000000000E+07    0.5014778367E+00    0.6464725261E-01    0.2402115718E-04    0.1787271280E+00    0.6212427997E+00
    0.1100000000E+08    0.5014471049E+00    0.6453813154E-01    0.2155261604E-04    0.1787810149E+00    0.6213502121E+00
    0.1300000000E+08    0.5014197145E+00    0.6444738048E-01    0.1969356104E-04    0.1788252500E+00    0.6214395863E+00
    0.1500000000E+08    0.5013951218E+00    0.6436970964E-01    0.1822983762E-04    0.1788627526E+00    0.6215161186E+00
    0.1700000000E+08    0.5013728546E+00    0.6430182776E-01    0.1703948939E-04    0.1788952935E+00    0.6215830397E+00
    0.1900000000E+08    0.5013525329E+00    0.6424154727E-01    0.1604734630E-04    0.1789240272E+00    0.6216424960E+00
    0.2100000000E+08    0.5013338549E+00    0.6418734025E-01    0.1520424634E-04    0.1789497481E+00    0.6216959864E+00
    0.2300000000E+08    0.5013165803E+00    0.6413809733E-01    0.1447651815E-04    0.1789730255E+00    0.6217445994E+00
    0.2500000000E+08    0.5013005160E+00    0.6409298756E-01    0.1384023068E-04    0.1789942818E+00    0.6217891502E+00
    0.2700000000E+08    0.5012855051E+00    0.6405137248E-01    0.1327785147E-04    0.1790138387E+00    0.6218302652E+00
