  Pressure (Pa) 22mC5-400 (mol/kg) 3mC6-400 (mol/kg) 33mC5-400 (mol/kg) 23mC5-400 (mol/kg) C7-400 (mol/kg)
    0.1000000000E+01    0.1063531406E-02    0.2071723908E-02    0.1916468604E-03    0.9337199975E-04    0.1681046855E-01
    0.3000000000E+01    0.3178521539E-02    0.5886995274E-02    0.5492259815E-03    0.2790569968E-03    0.4778126896E-01
    0.5000000000E+01    0.5277574926E-02    0.9319497195E-02    0.8769491577E-03    0.4633440365E-03    0.7566039175E-01
    0.7000000000E+01    0.7360881061E-02    0.1242401209E-01    0.1179213535E-02    0.6462497371E-03    0.1008896077E+00
    0.9000000000E+01    0.9428626406E-02    0.1524534707E-01    0.1459585714E-02    0.8277904513E-03    0.1238303099E+00
    0.1100000000E+02    0.1148099446E-01    0.1782050520E-01    0.1720986746E-02    0.1007982271E-02    0.1447810012E+00
    0.1300000000E+02    0.1351816580E-01    0.2018031349E-01    0.1965830161E-02    0.1186841035E-02    0.1639904062E+00
    0.1500000000E+02    0.1554031817E-01    0.2235065955E-01    0.2196126322E-02    0.1364382328E-02    0.1816674340E+00
    0.1700000000E+02    0.1754762651E-01    0.2435344271E-01    0.2413562255E-02    0.1540621493E-02    0.1979888402E+00
    0.1900000000E+02    0.1954026300E-01    0.2620731345E-01    0.2619563414E-02    0.1715573631E-02    0.2131051848E+00
    0.2100000000E+02    0.2151839715E-01    0.2792825425E-01    0.2815341929E-02    0.1889253607E-02    0.2271455129E+00
    0.2300000000E+02    0.2348219585E-01    0.2953004014E-01    0.3001934671E-02    0.2061676057E-02    0.2402210660E+00
    0.2500000000E+02    0.2543182336E-01    0.3102460702E-01    0.3180233516E-02    0.2232855387E-02    0.2524282510E+00
    0.2700000000E+02    0.2736744144E-01    0.3242234865E-01    0.3351009626E-02    0.2402805784E-02    0.2638510334E+00
    0.2900000000E+02    0.2928920936E-01    0.3373235790E-01    0.3514933047E-02    0.2571541214E-02    0.2745628829E+00
    0.3100000000E+02    0.3119728394E-01    0.3496262402E-01    0.3672588664E-02    0.2739075430E-02    0.2846283636E+00
    0.3300000000E+02    0.3309181960E-01    0.3612019517E-01    0.3824489255E-02    0.2905421977E-02    0.2941044442E+00
    0.3500000000E+02    0.3497296844E-01    0.3721131299E-01    0.3971086239E-02    0.3070594192E-02    0.3030415837E+00
    0.3700000000E+02    0.3684088022E-01    0.3824152474E-01    0.4112778588E-02    0.3234605210E-02    0.3114846356E+00
    0.3900000000E+02    0.3869570248E-01    0.3921577722E-01    0.4249920240E-02    0.3397467969E-02    0.3194736052E+00
    0.4100000000E+02    0.4053758052E-01    0.4013849589E-01    0.4382826308E-02    0.3559195212E-02    0.3270442883E+00
    0.4300000000E+02    0.4236665745E-01    0.4101365175E-01    0.4511778299E-02    0.3719799492E-02    0.3342288104E+00
    0.4500000000E+02    0.4418307428E-01    0.4184481823E-01    0.4637028528E-02    0.3879293173E-02    0.3410560858E+00
    0.4700000000E+02    0.4598696989E-01    0.4263521972E-01    0.4758803849E-02    0.4037688437E-02    0.3475522092E+00
    0.4900000000E+02    0.4777848113E-01    0.4338777314E-01    0.4877308853E-02    0.4194997284E-02    0.3537407914E+00
    0.1000000000E+02    0.1045672124E-01    0.1656164291E-01    0.1592496244E-02    0.9180539774E-03    0.1345378247E+00
    0.3000000000E+02    0.3024494861E-01    0.3435699798E-01    0.3594510728E-02    0.2655457622E-02    0.2796726945E+00
    0.5000000000E+02    0.4866963482E-01    0.4375069321E-01    0.4935393510E-02    0.4273248003E-02    0.3567265255E+00
    0.7000000000E+02    0.6587440928E-01    0.4954942013E-01    0.5962178751E-02    0.5784021471E-02    0.4045661915E+00
    0.9000000000E+02    0.8198312861E-01    0.5348118563E-01    0.6795846531E-02    0.7198640505E-02    0.4371910224E+00
    0.1100000000E+03    0.9710316367E-01    0.5631982948E-01    0.7491923399E-02    0.8526521928E-02    0.4608820073E+00
    0.1300000000E+03    0.1113280545E+00    0.5846366296E-01    0.8081346769E-02    0.9775869716E-02    0.4788781509E+00
    0.1500000000E+03    0.1247396704E+00    0.6013858460E-01    0.8583950699E-02    0.1095386439E-01    0.4930198670E+00
    0.1700000000E+03    0.1374099787E+00    0.6148223902E-01    0.9013777118E-02    0.1206681813E-01    0.5044306672E+00
    0.1900000000E+03    0.1494025026E+00    0.6258326812E-01    0.9381468892E-02    0.1312030257E-01    0.5138354518E+00
    0.2100000000E+03    0.1607735294E+00    0.6350132728E-01    0.9695473969E-02    0.1411925481E-01    0.5217230023E+00
    0.2300000000E+03    0.1715731175E+00    0.6427803277E-01    0.9962711493E-02    0.1506806567E-01    0.5284349508E+00
    0.2500000000E+03    0.1818459407E+00    0.6494329698E-01    0.1018897201E-01    0.1597065369E-01    0.5342173246E+00
    0.2700000000E+03    0.1916319978E+00    0.6551916972E-01    0.1037917572E-01    0.1683052749E-01    0.5392518329E+00
    0.2900000000E+03    0.2009672145E+00    0.6602226018E-01    0.1053754960E-01    0.1765083840E-01    0.5436756168E+00
    0.3100000000E+03    0.2098839535E+00    0.6646531591E-01    0.1066775501E-01    0.1843442528E-01    0.5475941377E+00
    0.3300000000E+03    0.2184114502E+00    0.6685828224E-01    0.1077298357E-01    0.1918385272E-01    0.5510898366E+00
    0.3500000000E+03    0.2265761862E+00    0.6720903128E-01    0.1085603135E-01    0.1990144377E-01    0.5542280970E+00
    0.3700000000E+03    0.2344022100E+00    0.6752387466E-01    0.1091935803E-01    0.2058930808E-01    0.5570614461E+00
    0.3900000000E+03    0.2419114141E+00    0.6780793136E-01    0.1096513465E-01    0.2124936620E-01    0.5596325701E+00
    0.4100000000E+03    0.2491237750E+00    0.6806539630E-01    0.1099528313E-01    0.2188337064E-01    0.5619765195E+00
    0.4300000000E+03    0.2560575615E+00    0.6829973942E-01    0.1101150907E-01    0.2249292410E-01    0.5641223454E+00
    0.4500000000E+03    0.2627295165E+00    0.6851385560E-01    0.1101532949E-01    0.2307949546E-01    0.5660943328E+00
    0.4700000000E+03    0.2691550157E+00    0.6871017872E-01    0.1100809626E-01    0.2364443366E-01    0.5679129410E+00
    0.4900000000E+03    0.2753482072E+00    0.6889076979E-01    0.1099101624E-01    0.2418898000E-01    0.5695955293E+00
    0.1000000000E+03    0.8966058871E-01    0.5500671436E-01    0.7158793662E-02    0.7872884650E-02    0.4499059001E+00
    0.3000000000E+03    0.2054759979E+00    0.6625061494E-01    0.1060596384E-01    0.1804705604E-01    0.5456924233E+00
    0.5000000000E+03    0.2783618036E+00    0.6897572509E-01    0.1097912547E-01    0.2445396733E-01    0.5703905353E+00
    0.7000000000E+03    0.3291212296E+00    0.7016422869E-01    0.1043246456E-01    0.2891860152E-01    0.5818209738E+00
    0.9000000000E+03    0.3667651947E+00    0.7081279375E-01    0.9622924650E-02    0.3223159799E-01    0.5884402177E+00
    0.1100000000E+04    0.3959013441E+00    0.7121204973E-01    0.8781733545E-02    0.3479731819E-01    0.5927691921E+00
    0.1300000000E+04    0.4191637385E+00    0.7147698429E-01    0.7991211026E-02    0.3684696829E-01    0.5958266923E+00
    0.1500000000E+04    0.4381823236E+00    0.7166192457E-01    0.7276970975E-02    0.3852364549E-01    0.5981041348E+00
    0.1700000000E+04    0.4540266736E+00    0.7179574399E-01    0.6642346704E-02    0.3992126891E-01    0.5998680692E+00
    0.1900000000E+04    0.4674309891E+00    0.7189513761E-01    0.6082169629E-02    0.4110432127E-01    0.6012757514E+00
    0.2100000000E+04    0.4789175391E+00    0.7197039187E-01    0.5588493145E-02    0.4211868101E-01    0.6024260255E+00
    0.2300000000E+04    0.4888687353E+00    0.7202816735E-01    0.5152979303E-02    0.4299794747E-01    0.6033841768E+00
    0.2500000000E+04    0.4975713781E+00    0.7207295248E-01    0.4767848965E-02    0.4376732436E-01    0.6041950795E+00
    0.2700000000E+04    0.5052449601E+00    0.7210787273E-01    0.4426203170E-02    0.4444610422E-01    0.6048906061E+00
    0.2900000000E+04    0.5120604039E+00    0.7213516503E-01    0.4122072037E-02    0.4504931340E-01    0.6054940249E+00
    0.3100000000E+04    0.5181528324E+00    0.7215646800E-01    0.3850351943E-02    0.4558883327E-01    0.6060227237E+00
    0.3300000000E+04    0.5236304917E+00    0.7217300625E-01    0.3606703890E-02    0.4607418375E-01    0.6064899602E+00
    0.3500000000E+04    0.5285811216E+00    0.7218571092E-01    0.3387445516E-02    0.4651308281E-01    0.6069060208E+00
    0.3700000000E+04    0.5330765917E+00    0.7219530088E-01    0.3189450363E-02    0.4691185356E-01    0.6072790103E+00
    0.3900000000E+04    0.5371763309E+00    0.7220233855E-01    0.3010059247E-02    0.4727572563E-01    0.6076154017E+00
    0.4100000000E+04    0.5409299040E+00    0.7220726923E-01    0.2847004569E-02    0.4760906142E-01    0.6079204283E+00
    0.4300000000E+04    0.5443789726E+00    0.7221044926E-01    0.2698346705E-02    0.4791552846E-01    0.6081983669E+00
    0.4500000000E+04    0.5475588063E+00    0.7221216648E-01    0.2562421021E-02    0.4819823215E-01    0.6084527473E+00
    0.4700000000E+04    0.5504994603E+00    0.7221265543E-01    0.2437793904E-02    0.4845981929E-01    0.6086865089E+00
    0.4900000000E+04    0.5532267013E+00    0.7221210871E-01    0.2323226342E-02    0.4870255943E-01    0.6089021193E+00
    0.1000000000E+04    0.3822009934E+00    0.7103428336E-01    0.9199164553E-02    0.3359068631E-01    0.5908090248E+00
    0.3000000000E+04    0.5151896845E+00    0.7214648059E-01    0.3982448438E-02    0.4532639160E-01    0.6057668047E+00
    0.5000000000E+04    0.5545173558E+00    0.7221149786E-01    0.2269373375E-02    0.4881748418E-01    0.6090037828E+00
    0.7000000000E+04    0.5731862249E+00    0.7217200759E-01    0.1523130246E-02    0.5048431359E-01    0.6104545121E+00
    0.9000000000E+04    0.5840417663E+00    0.7211271471E-01    0.1125927514E-02    0.5145914048E-01    0.6112923409E+00
    0.1100000000E+05    0.5911262790E+00    0.7205122262E-01    0.8859919159E-03    0.5209899976E-01    0.6118453049E+00
    0.1300000000E+05    0.5961089062E+00    0.7199220307E-01    0.7280351251E-03    0.5255161090E-01    0.6122417936E+00
    0.1500000000E+05    0.5998021190E+00    0.7193686003E-01    0.6173887192E-03    0.5288901902E-01    0.6125426111E+00
    0.1700000000E+05    0.6026481270E+00    0.7188531478E-01    0.5361681369E-03    0.5315051335E-01    0.6127803836E+00
    0.1900000000E+05    0.6049079739E+00    0.7183733894E-01    0.4743302001E-03    0.5335933220E-01    0.6129742428E+00
    0.2100000000E+05    0.6067455897E+00    0.7179260630E-01    0.4258516928E-03    0.5353009715E-01    0.6131361792E+00
    0.2300000000E+05    0.6082690614E+00    0.7175078357E-01    0.3869256292E-03    0.5367246769E-01    0.6132741083E+00
    0.2500000000E+05    0.6095525230E+00    0.7171156214E-01    0.3550404020E-03    0.5379308185E-01    0.6133934768E+00
    0.2700000000E+05    0.6106485050E+00    0.7167466713E-01    0.3284788287E-03    0.5389665242E-01    0.6134981633E+00
    0.2900000000E+05    0.6115952633E+00    0.7163985771E-01    0.3060309295E-03    0.5398661814E-01    0.6135910092E+00
    0.3100000000E+05    0.6124213156E+00    0.7160692418E-01    0.2868218077E-03    0.5406554743E-01    0.6136741472E+00
    0.3300000000E+05    0.6131483528E+00    0.7157568420E-01    0.2702045441E-03    0.5413539760E-01    0.6137492118E+00
    0.3500000000E+05    0.6137931652E+00    0.7154597896E-01    0.2556913430E-03    0.5419768668E-01    0.6138174782E+00
    0.3700000000E+05    0.6143689518E+00    0.7151766978E-01    0.2429079923E-03    0.5425361031E-01    0.6138799573E+00
    0.3900000000E+05    0.6148862312E+00    0.7149063513E-01    0.2315629829E-03    0.5430412316E-01    0.6139374617E+00
    0.4100000000E+05    0.6153534888E+00    0.7146476810E-01    0.2214260973E-03    0.5434999685E-01    0.6139906527E+00
    0.4300000000E+05    0.6157776452E+00    0.7143997428E-01    0.2123132678E-03    0.5439186191E-01    0.6140400748E+00
    0.4500000000E+05    0.6161644010E+00    0.7141616992E-01    0.2040756757E-03    0.5443023872E-01    0.6140861804E+00
    0.4700000000E+05    0.6165184943E+00    0.7139328052E-01    0.1965917766E-03    0.5446556059E-01    0.6141293491E+00
    0.4900000000E+05    0.6168438950E+00    0.7137123948E-01    0.1897613803E-03    0.5449819133E-01    0.6141699021E+00
    0.1000000000E+05    0.5879215534E+00    0.7208181976E-01    0.9924276978E-03    0.5180910173E-01    0.6115940413E+00
    0.3000000000E+05    0.6120218883E+00    0.7162316845E-01    0.2960663487E-03    0.5402732803E-01    0.6136336797E+00
    0.5000000000E+05    0.6169969040E+00    0.7136051820E-01    0.1865646561E-03    0.5451359558E-01    0.6141892848E+00
    0.7000000000E+05    0.6191438044E+00    0.7117893885E-01    0.1425564246E-03    0.5473503512E-01    0.6144888844E+00
    0.9000000000E+05    0.6203404046E+00    0.7104029089E-01    0.1184073087E-03    0.5486483604E-01    0.6146895050E+00
    0.1100000000E+06    0.6211032835E+00    0.7092817935E-01    0.1029076892E-03    0.5495163665E-01    0.6148389969E+00
    0.1300000000E+06    0.6216320021E+00    0.7083408969E-01    0.9198230702E-04    0.5501459507E-01    0.6149576541E+00
    0.1500000000E+06    0.6220199557E+00    0.7075303753E-01    0.8378896315E-04    0.5506284653E-01    0.6150558239E+00
    0.1700000000E+06    0.6223166924E+00    0.7068185454E-01    0.7736928647E-04    0.5510132623E-01    0.6151394482E+00
    0.1900000000E+06    0.6225509450E+00    0.7061840189E-01    0.7217308283E-04    0.5513294720E-01    0.6152122361E+00
    0.2100000000E+06    0.6227405241E+00    0.7056116785E-01    0.6786057387E-04    0.5515954670E-01    0.6152766502E+00
    0.2300000000E+06    0.6228970586E+00    0.7050904449E-01    0.6420978545E-04    0.5518234481E-01    0.6153344060E+00
    0.2500000000E+06    0.6230284635E+00    0.7046119565E-01    0.6106908124E-04    0.5520218595E-01    0.6153867439E+00
    0.2700000000E+06    0.6231403135E+00    0.7041697475E-01    0.5833104522E-04    0.5521967461E-01    0.6154345894E+00
    0.2900000000E+06    0.6232366482E+00    0.7037587155E-01    0.5591726289E-04    0.5523525594E-01    0.6154786506E+00
    0.3100000000E+06    0.6233204666E+00    0.7033747634E-01    0.5376902346E-04    0.5524926569E-01    0.6155194813E+00
    0.3300000000E+06    0.6233940422E+00    0.7030145513E-01    0.5184140929E-04    0.5526196234E-01    0.6155575222E+00
    0.3500000000E+06    0.6234591295E+00    0.7026753211E-01    0.5009940911E-04    0.5527354846E-01    0.6155931301E+00
    0.3700000000E+06    0.6235171043E+00    0.7023547687E-01    0.4851528655E-04    0.5528418530E-01    0.6156265975E+00
    0.3900000000E+06    0.6235690606E+00    0.7020509494E-01    0.4706675277E-04    0.5529400300E-01    0.6156581673E+00
    0.4100000000E+06    0.6236158792E+00    0.7017622072E-01    0.4573566868E-04    0.5530310787E-01    0.6156880434E+00
    0.4300000000E+06    0.6236582774E+00    0.7014871201E-01    0.4450710507E-04    0.5531158775E-01    0.6157163985E+00
    0.4500000000E+06    0.6236968449E+00    0.7012244581E-01    0.4336864975E-04    0.5531951588E-01    0.6157433803E+00
    0.4700000000E+06    0.6237320714E+00    0.7009731501E-01    0.4230988861E-04    0.5532695393E-01    0.6157691158E+00
    0.4900000000E+06    0.6237643663E+00    0.7007322577E-01    0.4132201144E-04    0.5533395422E-01    0.6157937153E+00
    0.1000000000E+06    0.6207598586E+00    0.7098156386E-01    0.1099107698E-03    0.5491206379E-01    0.6147690329E+00
    0.3000000000E+06    0.6232799657E+00    0.7035635787E-01    0.5481302783E-04    0.5524243959E-01    0.6154994400E+00
    0.5000000000E+06    0.6237795247E+00    0.7006154551E-01    0.4085226361E-04    0.5533730443E-01    0.6158056197E+00
    0.7000000000E+06    0.6239898076E+00    0.6986687678E-01    0.3382641215E-04    0.5538942059E-01    0.6160021330E+00
    0.9000000000E+06    0.6241040251E+00    0.6972138712E-01    0.2942810584E-04    0.5542460912E-01    0.6161472272E+00
    0.1100000000E+07    0.6241748499E+00    0.6960521249E-01    0.2635032322E-04    0.5545093059E-01    0.6162623497E+00
    0.1300000000E+07    0.6242224946E+00    0.6950851932E-01    0.2404476183E-04    0.5547185719E-01    0.6163578111E+00
    0.1500000000E+07    0.6242563593E+00    0.6942571589E-01    0.2223615205E-04    0.5548917854E-01    0.6164393708E+00
    0.1700000000E+07    0.6242813987E+00    0.6935331715E-01    0.2076927460E-04    0.5550393039E-01    0.6165105757E+00
    0.1900000000E+07    0.6243004670E+00    0.6928900386E-01    0.1954913682E-04    0.5551676299E-01    0.6165737664E+00
    0.2100000000E+07    0.6243153209E+00    0.6923115452E-01    0.1851394571E-04    0.5552811004E-01    0.6166305691E+00
    0.2300000000E+07    0.6243270992E+00    0.6917859092E-01    0.1762155611E-04    0.5553827453E-01    0.6166821599E+00
    0.2500000000E+07    0.6243365711E+00    0.6913043000E-01    0.1684211489E-04    0.5554747621E-01    0.6167294169E+00
    0.2700000000E+07    0.6243442740E+00    0.6908599287E-01    0.1615381095E-04    0.5555587930E-01    0.6167730133E+00
    0.2900000000E+07    0.6243505944E+00    0.6904474636E-01    0.1554029203E-04    0.5556360963E-01    0.6168134766E+00
    0.3100000000E+07    0.6243558167E+00    0.6900626411E-01    0.1498902752E-04    0.5557076571E-01    0.6168512277E+00
    0.3300000000E+07    0.6243601547E+00    0.6897019981E-01    0.1449023348E-04    0.5557742602E-01    0.6168866078E+00
    0.3500000000E+07    0.6243637717E+00    0.6893626837E-01    0.1403614523E-04    0.5558365411E-01    0.6169198978E+00
    0.3700000000E+07    0.6243667949E+00    0.6890423227E-01    0.1362051213E-04    0.5558950211E-01    0.6169513311E+00
    0.3900000000E+07    0.6243693245E+00    0.6887389155E-01    0.1323823859E-04    0.5559501333E-01    0.6169811042E+00
    0.4100000000E+07    0.6243714400E+00    0.6884507629E-01    0.1288512385E-04    0.5560022410E-01    0.6170093838E+00
    0.4300000000E+07    0.6243732060E+00    0.6881764088E-01    0.1255766986E-04    0.5560516522E-01    0.6170363128E+00
    0.4500000000E+07    0.6243746749E+00    0.6879145957E-01    0.1225293733E-04    0.5560986300E-01    0.6170620145E+00
    0.4700000000E+07    0.6243758895E+00    0.6876642307E-01    0.1196843613E-04    0.5561434010E-01    0.6170865960E+00
    0.4900000000E+07    0.6243768857E+00    0.6874243575E-01    0.1170204091E-04    0.5561861617E-01    0.6171101509E+00
    0.1000000000E+07    0.6241432180E+00    0.6966038876E-01    0.2776779079E-04    0.5543860384E-01    0.6162077402E+00
    0.3000000000E+07    0.6243533281E+00    0.6902518297E-01    0.1525754400E-04    0.5556725415E-01    0.6168326682E+00
    0.5000000000E+07    0.6243773114E+00    0.6873080884E-01    0.1157505211E-04    0.5562068427E-01    0.6171215696E+00
    0.7000000000E+07    0.6243794999E+00    0.6853736496E-01    0.9652740877E-05    0.5565470813E-01    0.6173116938E+00
    0.9000000000E+07    0.6243760731E+00    0.6839313616E-01    0.8429228100E-05    0.5567968899E-01    0.6174536542E+00
    0.1100000000E+08    0.6243708689E+00    0.6827813585E-01    0.7564982962E-05    0.5569942664E-01    0.6175669877E+00
    0.1300000000E+08    0.6243651363E+00    0.6818251467E-01    0.6913681916E-05    0.5571573989E-01    0.6176613231E+00
    0.1500000000E+08    0.6243593492E+00    0.6810068819E-01    0.6400642597E-05    0.5572964070E-01    0.6177421231E+00
    0.1700000000E+08    0.6243536998E+00    0.6802918302E-01    0.5983280412E-05    0.5574175014E-01    0.6178127872E+00
    0.1900000000E+08    0.6243482646E+00    0.6796569119E-01    0.5635323499E-05    0.5575247681E-01    0.6178755760E+00
    0.2100000000E+08    0.6243430691E+00    0.6790860102E-01    0.5339577963E-05    0.5576210386E-01    0.6179320690E+00
    0.2300000000E+08    0.6243381155E+00    0.6785674253E-01    0.5084261318E-05    0.5577083555E-01    0.6179834135E+00
    0.2500000000E+08    0.6243333954E+00    0.6780923954E-01    0.4860995896E-05    0.5577882410E-01    0.6180304693E+00
    0.2700000000E+08    0.6243288959E+00    0.6776541888E-01    0.4663641885E-05    0.5578618595E-01    0.6180738973E+00
