  Pressure (Pa) 22mC5-400 (mol/kg) 3mC6-400 (mol/kg) 33mC5-400 (mol/kg) 23mC5-400 (mol/kg) C7-400 (mol/kg)
    0.1000000000E+01    0.1062611826E-02    0.5267085182E-03    0.5177564284E-03    0.4664566336E-03    0.6837578437E-02
    0.3000000000E+01    0.3170332235E-02    0.1544924881E-02    0.1519895669E-02    0.1391692813E-02    0.2005793076E-01
    0.5000000000E+01    0.5255064509E-02    0.2518780510E-02    0.2479883605E-02    0.2306846145E-02    0.3270507601E-01
    0.7000000000E+01    0.7317219180E-02    0.3451131247E-02    0.3400325003E-02    0.3212096654E-02    0.4481585780E-01
    0.9000000000E+01    0.9357196881E-02    0.4344592541E-02    0.4283606069E-02    0.4107620026E-02    0.5642402081E-01
    0.1100000000E+02    0.1137538865E-01    0.5201564225E-02    0.5131917173E-02    0.4993587735E-02    0.6756053009E-01
    0.1300000000E+02    0.1337217620E-01    0.6024252301E-02    0.5947272800E-02    0.5870167173E-02    0.7825385170E-01
    0.1500000000E+02    0.1534793223E-01    0.6814688122E-02    0.6731529106E-02    0.6737521769E-02    0.8853019996E-01
    0.1700000000E+02    0.1730302062E-01    0.7574745357E-02    0.7486399401E-02    0.7595811102E-02    0.9841375602E-01
    0.1900000000E+02    0.1923779678E-01    0.8306155001E-02    0.8213467861E-02    0.8445191018E-02    0.1079268613E+00
    0.2100000000E+02    0.2115260781E-01    0.9010518710E-02    0.8914201669E-02    0.9285813735E-02    0.1170901894E+00
    0.2300000000E+02    0.2304779279E-01    0.9689320669E-02    0.9589961822E-02    0.1011782795E-01    0.1259228990E+00
    0.2500000000E+02    0.2492368302E-01    0.1034393817E-01    0.1024201275E-01    0.1094137894E-01    0.1344427702E+00
    0.2700000000E+02    0.2678060218E-01    0.1097565107E-01    0.1087153090E-01    0.1175660865E-01    0.1426663265E+00
    0.2900000000E+02    0.2861886662E-01    0.1158565028E-01    0.1147961244E-01    0.1256365580E-01    0.1506089441E+00
    0.3100000000E+02    0.3043878550E-01    0.1217504534E-01    0.1206728011E-01    0.1336265599E-01    0.1582849496E+00
    0.3300000000E+02    0.3224066107E-01    0.1274487126E-01    0.1263548945E-01    0.1415374174E-01    0.1657077086E+00
    0.3500000000E+02    0.3402478877E-01    0.1329609471E-01    0.1318513435E-01    0.1493704262E-01    0.1728897044E+00
    0.3700000000E+02    0.3579145749E-01    0.1382961954E-01    0.1371705207E-01    0.1571268532E-01    0.1798426105E+00
    0.3900000000E+02    0.3754094973E-01    0.1434629182E-01    0.1423202776E-01    0.1648079373E-01    0.1865773545E+00
    0.4100000000E+02    0.3927354177E-01    0.1484690438E-01    0.1473079860E-01    0.1724148900E-01    0.1931041775E+00
    0.4300000000E+02    0.4098950383E-01    0.1533220095E-01    0.1521405748E-01    0.1799488964E-01    0.1994326869E+00
    0.4500000000E+02    0.4268910028E-01    0.1580287991E-01    0.1568245637E-01    0.1874111158E-01    0.2055719045E+00
    0.4700000000E+02    0.4437258973E-01    0.1625959766E-01    0.1613660944E-01    0.1948026823E-01    0.2115303112E+00
    0.4900000000E+02    0.4604022525E-01    0.1670297178E-01    0.1657709579E-01    0.2021247057E-01    0.2173158863E+00
    0.1000000000E+02    0.1036899193E-01    0.4777497403E-02    0.4712003055E-02    0.4551787782E-02    0.6204939752E-01
    0.3000000000E+02    0.2953110020E-01    0.1188285697E-01    0.1177593678E-01    0.1296415341E-01    0.1544794165E+00
    0.5000000000E+02    0.4686817537E-01    0.1691983805E-01    0.1679238595E-01    0.2057599791E-01    0.2201462276E+00
    0.7000000000E+02    0.6265249762E-01    0.2068128642E-01    0.2049849985E-01    0.2750672609E-01    0.2692904896E+00
    0.9000000000E+02    0.7710354740E-01    0.2360006744E-01    0.2330625399E-01    0.3385259076E-01    0.3075073367E+00
    0.1100000000E+03    0.9040022268E-01    0.2593266924E-01    0.2546715022E-01    0.3969204942E-01    0.3381145043E+00
    0.1300000000E+03    0.1026898263E+00    0.2784080814E-01    0.2714521909E-01    0.4508970482E-01    0.3632053554E+00
    0.1500000000E+03    0.1140947738E+00    0.2943154720E-01    0.2845300722E-01    0.5009924615E-01    0.3841667920E+00
    0.1700000000E+03    0.1247176664E+00    0.3077861595E-01    0.2947085852E-01    0.5476567353E-01    0.4019546050E+00
    0.1900000000E+03    0.1346451744E+00    0.3193446623E-01    0.3025796226E-01    0.5912700072E-01    0.4172492456E+00
    0.2100000000E+03    0.1439510429E+00    0.3293744471E-01    0.3085904305E-01    0.6321557318E-01    0.4305485409E+00
    0.2300000000E+03    0.1526984420E+00    0.3381624470E-01    0.3130860269E-01    0.6705909877E-01    0.4422252648E+00
    0.2500000000E+03    0.1609418226E+00    0.3459277032E-01    0.3163371631E-01    0.7068146132E-01    0.4525641944E+00
    0.2700000000E+03    0.1687283940E+00    0.3528403689E-01    0.3185593714E-01    0.7410336870E-01    0.4617867067E+00
    0.2900000000E+03    0.1760993099E+00    0.3590346603E-01    0.3199263137E-01    0.7734287305E-01    0.4700675488E+00
    0.3100000000E+03    0.1830906290E+00    0.3646178924E-01    0.3205793645E-01    0.8041579175E-01    0.4775465432E+00
    0.3300000000E+03    0.1897340965E+00    0.3696769146E-01    0.3206346373E-01    0.8333605047E-01    0.4843369292E+00
    0.3500000000E+03    0.1960577862E+00    0.3742827809E-01    0.3201882324E-01    0.8611596456E-01    0.4905314173E+00
    0.3700000000E+03    0.2020866303E+00    0.3784941949E-01    0.3193202185E-01    0.8876647138E-01    0.4962066580E+00
    0.3900000000E+03    0.2078428591E+00    0.3823600892E-01    0.3180976975E-01    0.9129732324E-01    0.5014265892E+00
    0.4100000000E+03    0.2133463683E+00    0.3859215828E-01    0.3165771929E-01    0.9371724853E-01    0.5062449778E+00
    0.4300000000E+03    0.2186150278E+00    0.3892134862E-01    0.3148065324E-01    0.9603408698E-01    0.5107073737E+00
    0.4500000000E+03    0.2236649418E+00    0.3922654699E-01    0.3128263462E-01    0.9825490381E-01    0.5148526286E+00
    0.4700000000E+03    0.2285106693E+00    0.3951029822E-01    0.3106712698E-01    0.1003860865E+00    0.5187140894E+00
    0.4900000000E+03    0.2331654121E+00    0.3977479772E-01    0.3083709194E-01    0.1024334273E+00    0.5223205442E+00
    0.1000000000E+03    0.8388632282E-01    0.2482790873E-01    0.2445579139E-01    0.3683129700E-01    0.3236102982E+00
    0.3000000000E+03    0.1796403420E+00    0.3618968128E-01    0.3203342951E-01    0.7889924448E-01    0.4738996566E+00
    0.5000000000E+03    0.2354249587E+00    0.3990043314E-01    0.3071743474E-01    0.1034273219E+00    0.5240360835E+00
    0.7000000000E+03    0.2730004792E+00    0.4175409105E-01    0.2801488610E-01    0.1199615064E+00    0.5495798461E+00
    0.9000000000E+03    0.3003484488E+00    0.4286722791E-01    0.2530243386E-01    0.1320039961E+00    0.5652129381E+00
    0.1100000000E+04    0.3212385444E+00    0.4360936983E-01    0.2288434676E-01    0.1412092611E+00    0.5758305445E+00
    0.1300000000E+04    0.3377404411E+00    0.4413886337E-01    0.2080001077E-01    0.1484858802E+00    0.5835451592E+00
    0.1500000000E+04    0.3511068096E+00    0.4453505078E-01    0.1901884898E-01    0.1543839068E+00    0.5894225168E+00
    0.1700000000E+04    0.3621486656E+00    0.4484213679E-01    0.1749576736E-01    0.1592595508E+00    0.5940603315E+00
    0.1900000000E+04    0.3714175592E+00    0.4508672281E-01    0.1618755626E-01    0.1633551212E+00    0.5978206360E+00
    0.2100000000E+04    0.3793029629E+00    0.4528578471E-01    0.1505715532E-01    0.1668417651E+00    0.6009359409E+00
    0.2300000000E+04    0.3860882381E+00    0.4545066871E-01    0.1407403269E-01    0.1698440311E+00    0.6035626288E+00
    0.2500000000E+04    0.3919846486E+00    0.4558924772E-01    0.1321340885E-01    0.1724548006E+00    0.6058098842E+00
    0.2700000000E+04    0.3971529670E+00    0.4570715627E-01    0.1245525210E-01    0.1747447738E+00    0.6077563287E+00
    0.2900000000E+04    0.4017177060E+00    0.4580853323E-01    0.1178334669E-01    0.1767687188E+00    0.6094600657E+00
    0.3100000000E+04    0.4057767746E+00    0.4589648704E-01    0.1118451280E-01    0.1785697116E+00    0.6109649957E+00
    0.3300000000E+04    0.4094081994E+00    0.4597339736E-01    0.1064798035E-01    0.1801820892E+00    0.6123049283E+00
    0.3500000000E+04    0.4126749047E+00    0.4604111667E-01    0.1016489542E-01    0.1816335489E+00    0.6135063388E+00
    0.3700000000E+04    0.4156281793E+00    0.4610110833E-01    0.9727933868E-02    0.1829466719E+00    0.6145902657E+00
    0.3900000000E+04    0.4183102306E+00    0.4615454353E-01    0.9330999092E-02    0.1841400453E+00    0.6155736455E+00
    0.4100000000E+04    0.4207560968E+00    0.4620237055E-01    0.8968985234E-02    0.1852291027E+00    0.6164702719E+00
    0.4300000000E+04    0.4229950973E+00    0.4624536529E-01    0.8637590816E-02    0.1862267616E+00    0.6172914967E+00
    0.4500000000E+04    0.4250519450E+00    0.4628416857E-01    0.8333171399E-02    0.1871439126E+00    0.6180467504E+00
    0.4700000000E+04    0.4269476106E+00    0.4631931426E-01    0.8052622430E-02    0.1879897995E+00    0.6187439350E+00
    0.4900000000E+04    0.4287000002E+00    0.4635125057E-01    0.7793285562E-02    0.1887723168E+00    0.6193897229E+00
    0.1000000000E+04    0.3114456450E+00    0.4327208306E-01    0.2405133477E-01    0.1368932047E+00    0.5709810258E+00
    0.3000000000E+04    0.4038051701E+00    0.4585402496E-01    0.1147551905E-01    0.1776947613E+00    0.6102350694E+00
    0.5000000000E+04    0.4295273583E+00    0.4636613599E-01    0.7670844090E-02    0.1891419691E+00    0.6196951503E+00
    0.7000000000E+04    0.4413438871E+00    0.4656253228E-01    0.5919877464E-02    0.1944396228E+00    0.6241219542E+00
    0.9000000000E+04    0.4480697301E+00    0.4665546551E-01    0.4915051811E-02    0.1974775678E+00    0.6267391754E+00
    0.1100000000E+05    0.4523916375E+00    0.4670322859E-01    0.4259526531E-02    0.1994444357E+00    0.6284896071E+00
    0.1300000000E+05    0.4553948134E+00    0.4672795347E-01    0.3795039360E-02    0.2008215329E+00    0.6297536157E+00
    0.1500000000E+05    0.4575989183E+00    0.4673973101E-01    0.3446543458E-02    0.2018399154E+00    0.6307154658E+00
    0.1700000000E+05    0.4592832017E+00    0.4674374428E-01    0.3173942934E-02    0.2026240575E+00    0.6314758004E+00
    0.1900000000E+05    0.4606108105E+00    0.4674288856E-01    0.2953864376E-02    0.2032468645E+00    0.6320944841E+00
    0.2100000000E+05    0.4616833166E+00    0.4673888482E-01    0.2771746648E-02    0.2037538401E+00    0.6326094787E+00
    0.2300000000E+05    0.4625671990E+00    0.4673280582E-01    0.2618031705E-02    0.2041748423E+00    0.6330460869E+00
    0.2500000000E+05    0.4633077630E+00    0.4672534569E-01    0.2486175360E-02    0.2045302709E+00    0.6334218619E+00
    0.2700000000E+05    0.4639369302E+00    0.4671696697E-01    0.2371538704E-02    0.2048345357E+00    0.6337493870E+00
    0.2900000000E+05    0.4644778308E+00    0.4670798533E-01    0.2270736491E-02    0.2050981048E+00    0.6340379329E+00
    0.3100000000E+05    0.4649476288E+00    0.4669862025E-01    0.2181236690E-02    0.2053287659E+00    0.6342944911E+00
    0.3300000000E+05    0.4653593252E+00    0.4668902662E-01    0.2101104925E-02    0.2055324330E+00    0.6345244399E+00
    0.3500000000E+05    0.4657229452E+00    0.4667931499E-01    0.2028836015E-02    0.2057136780E+00    0.6347319894E+00
    0.3700000000E+05    0.4660463420E+00    0.4666956489E-01    0.1963239764E-02    0.2058760915E+00    0.6349204858E+00
    0.3900000000E+05    0.4663357534E+00    0.4665983377E-01    0.1903361598E-02    0.2060225329E+00    0.6350926245E+00
    0.4100000000E+05    0.4665961961E+00    0.4665016320E-01    0.1848426206E-02    0.2061553077E+00    0.6352506027E+00
    0.4300000000E+05    0.4668317499E+00    0.4664058317E-01    0.1797796738E-02    0.2062762954E+00    0.6353962310E+00
    0.4500000000E+05    0.4670457660E+00    0.4663111514E-01    0.1750944746E-02    0.2063870442E+00    0.6355310160E+00
    0.4700000000E+05    0.4672410226E+00    0.4662177421E-01    0.1707427698E-02    0.2064888407E+00    0.6356562220E+00
    0.4900000000E+05    0.4674198419E+00    0.4661257078E-01    0.1666871909E-02    0.2065827629E+00    0.6357729187E+00
    0.1000000000E+05    0.4504437335E+00    0.4668318575E-01    0.4556417415E-02    0.1985561300E+00    0.6276921618E+00
    0.3000000000E+05    0.4647207237E+00    0.4670333980E-01    0.2224706395E-02    0.2052171426E+00    0.6341698426E+00
    0.5000000000E+05    0.4675037112E+00    0.4660802287E-01    0.1647603247E-02    0.2066270614E+00    0.6358283663E+00
    0.7000000000E+05    0.4686628687E+00    0.4652486215E-01    0.1360616207E-02    0.2072608556E+00    0.6366545637E+00
    0.9000000000E+05    0.4692893105E+00    0.4645501767E-01    0.1182041221E-02    0.2076295282E+00    0.6371697396E+00
    0.1100000000E+06    0.4696771835E+00    0.4639543955E-01    0.1057523098E-02    0.2078747677E+00    0.6375304792E+00
    0.1300000000E+06    0.4699384062E+00    0.4634366917E-01    0.9644598733E-03    0.2080519475E+00    0.6378016830E+00
    0.1500000000E+06    0.4701246805E+00    0.4629795823E-01    0.8915708297E-03    0.2081873238E+00    0.6380155992E+00
    0.1700000000E+06    0.4702631142E+00    0.4625706173E-01    0.8325212477E-03    0.2082950197E+00    0.6381902623E+00
    0.1900000000E+06    0.4703692542E+00    0.4622007323E-01    0.7834461538E-03    0.2083833421E+00    0.6383366381E+00
    0.2100000000E+06    0.4704526366E+00    0.4618631617E-01    0.7418372209E-03    0.2084575149E+00    0.6384618243E+00
    0.2300000000E+06    0.4705194246E+00    0.4615527378E-01    0.7059867955E-03    0.2085209983E+00    0.6385706439E+00
    0.2500000000E+06    0.4705737711E+00    0.4612654312E-01    0.6746870475E-03    0.2085761818E+00    0.6386665038E+00
    0.2700000000E+06    0.4706185729E+00    0.4609980425E-01    0.6470565730E-03    0.2086247728E+00    0.6387518884E+00
    0.2900000000E+06    0.4706559088E+00    0.4607479909E-01    0.6224352190E-03    0.2086680264E+00    0.6388286581E+00
    0.3100000000E+06    0.4706873072E+00    0.4605131651E-01    0.6003175355E-03    0.2087068877E+00    0.6388982374E+00
    0.3300000000E+06    0.4707139160E+00    0.4602918164E-01    0.5803091444E-03    0.2087420833E+00    0.6389617387E+00
    0.3500000000E+06    0.4707366125E+00    0.4600824807E-01    0.5620972509E-03    0.2087741819E+00    0.6390200447E+00
    0.3700000000E+06    0.4707560783E+00    0.4598839198E-01    0.5454301845E-03    0.2088036358E+00    0.6390738667E+00
    0.3900000000E+06    0.4707728502E+00    0.4596950774E-01    0.5301028743E-03    0.2088308094E+00    0.6391237849E+00
    0.4100000000E+06    0.4707873565E+00    0.4595150453E-01    0.5159463287E-03    0.2088560004E+00    0.6391702782E+00
    0.4300000000E+06    0.4707999423E+00    0.4593430368E-01    0.5028198765E-03    0.2088794541E+00    0.6392137460E+00
    0.4500000000E+06    0.4708108891E+00    0.4591783663E-01    0.4906053526E-03    0.2089013753E+00    0.6392545244E+00
    0.4700000000E+06    0.4708204282E+00    0.4590204321E-01    0.4792026780E-03    0.2089219360E+00    0.6392928986E+00
    0.4900000000E+06    0.4708287511E+00    0.4588687039E-01    0.4685264555E-03    0.2089412822E+00    0.6393291124E+00
    0.1000000000E+06    0.4695039503E+00    0.4642411791E-01    0.1114827316E-02    0.2077630967E+00    0.6373642327E+00
    0.3000000000E+06    0.4706722710E+00    0.4606287915E-01    0.6110902710E-03    0.2086879564E+00    0.6388642708E+00
    0.5000000000E+06    0.4708325076E+00    0.4587950181E-01    0.4634374264E-03    0.2089505395E+00    0.6393464759E+00
    0.7000000000E+06    0.4708715779E+00    0.4575567042E-01    0.3864191719E-03    0.2090944573E+00    0.6396187912E+00
    0.9000000000E+06    0.4708770197E+00    0.4566202609E-01    0.3374127275E-03    0.2091915861E+00    0.6398041244E+00
    0.1100000000E+07    0.4708701625E+00    0.4558668880E-01    0.3028013315E-03    0.2092642541E+00    0.6399428677E+00
    0.1300000000E+07    0.4708582739E+00    0.4552365425E-01    0.2767201380E-03    0.2093220539E+00    0.6400529275E+00
    0.1500000000E+07    0.4708443173E+00    0.4546946135E-01    0.2561767230E-03    0.2093699218E+00    0.6401436980E+00
    0.1700000000E+07    0.4708296362E+00    0.4542193169E-01    0.2394651086E-03    0.2094107121E+00    0.6402206788E+00
    0.1900000000E+07    0.4708148792E+00    0.4537960468E-01    0.2255329544E-03    0.2094462155E+00    0.6402873488E+00
    0.2100000000E+07    0.4708003677E+00    0.4534145307E-01    0.2136916068E-03    0.2094776261E+00    0.6403460393E+00
    0.2300000000E+07    0.4707862593E+00    0.4530672679E-01    0.2034691814E-03    0.2095057779E+00    0.6403983847E+00
    0.2500000000E+07    0.4707726257E+00    0.4527486141E-01    0.1945301723E-03    0.2095312757E+00    0.6404455720E+00
    0.2700000000E+07    0.4707594924E+00    0.4524542148E-01    0.1866287034E-03    0.2095545716E+00    0.6404884894E+00
    0.2900000000E+07    0.4707468599E+00    0.4521806398E-01    0.1795799667E-03    0.2095760118E+00    0.6405278174E+00
    0.3100000000E+07    0.4707347152E+00    0.4519251392E-01    0.1732420404E-03    0.2095958677E+00    0.6405640887E+00
    0.3300000000E+07    0.4707230384E+00    0.4516854740E-01    0.1675039080E-03    0.2096143553E+00    0.6405977275E+00
    0.3500000000E+07    0.4707118062E+00    0.4514597972E-01    0.1622773252E-03    0.2096316496E+00    0.6406290769E+00
    0.3700000000E+07    0.4707009942E+00    0.4512465674E-01    0.1574911564E-03    0.2096478943E+00    0.6406584179E+00
    0.3900000000E+07    0.4706905782E+00    0.4510444846E-01    0.1530873403E-03    0.2096632086E+00    0.6406859838E+00
    0.4100000000E+07    0.4706805348E+00    0.4508524424E-01    0.1490179600E-03    0.2096776926E+00    0.6407119701E+00
    0.4300000000E+07    0.4706708416E+00    0.4506694913E-01    0.1452430763E-03    0.2096914313E+00    0.6407365420E+00
    0.4500000000E+07    0.4706614778E+00    0.4504948105E-01    0.1417291005E-03    0.2097044971E+00    0.6407598406E+00
    0.4700000000E+07    0.4706524237E+00    0.4503276857E-01    0.1384475549E-03    0.2097169526E+00    0.6407819871E+00
    0.4900000000E+07    0.4706436613E+00    0.4501674910E-01    0.1353741163E-03    0.2097288520E+00    0.6408030867E+00
    0.1000000000E+07    0.4708745185E+00    0.4562252695E-01    0.3187720586E-03    0.2092302192E+00    0.6398779128E+00
    0.3000000000E+07    0.4707407277E+00    0.4520507805E-01    0.1763297051E-03    0.2095861232E+00    0.6405463064E+00
    0.5000000000E+07    0.4706393841E+00    0.4500898177E-01    0.1339087850E-03    0.2097346082E+00    0.6408132729E+00
    0.7000000000E+07    0.4705656696E+00    0.4487952918E-01    0.1117095147E-03    0.2098294096E+00    0.6409791255E+00
    0.9000000000E+07    0.4705080855E+00    0.4478277015E-01    0.9756518266E-04    0.2098991348E+00    0.6410988484E+00
    0.1100000000E+08    0.4704608979E+00    0.4470549476E-01    0.8756844775E-04    0.2099542949E+00    0.6411922568E+00
    0.1300000000E+08    0.4704209415E+00    0.4464116728E-01    0.8003222550E-04    0.2099999292E+00    0.6412686997E+00
    0.1500000000E+08    0.4703862987E+00    0.4458607204E-01    0.7409447908E-04    0.2100388452E+00    0.6413333164E+00
    0.1700000000E+08    0.4703557234E+00    0.4453789335E-01    0.6926330541E-04    0.2100727681E+00    0.6413892291E+00
    0.1900000000E+08    0.4703283609E+00    0.4449509010E-01    0.6523507591E-04    0.2101028337E+00    0.6414384741E+00
    0.2100000000E+08    0.4703036000E+00    0.4445658478E-01    0.6181100181E-04    0.2101298298E+00    0.6414824515E+00
    0.2300000000E+08    0.4702809888E+00    0.4442159439E-01    0.5885481907E-04    0.2101543252E+00    0.6415221649E+00
    0.2500000000E+08    0.4702601835E+00    0.4438953202E-01    0.5626961815E-04    0.2101767438E+00    0.6415583573E+00
    0.2700000000E+08    0.4702409167E+00    0.4435994641E-01    0.5398436311E-04    0.2101974104E+00    0.6415915943E+00
