  Pressure (Pa) 22mC5-400 (mol/kg) 3mC6-400 (mol/kg) 33mC5-400 (mol/kg) 23mC5-400 (mol/kg) C7-400 (mol/kg)
    0.1000000000E+01    0.1063085171E-02    0.1559050531E-02    0.6403611752E-04    0.4666643173E-03    0.1518036483E-01
    0.3000000000E+01    0.3174536869E-02    0.4457957001E-02    0.1842965613E-03    0.1393537635E-02    0.4341704907E-01
    0.5000000000E+01    0.5266592656E-02    0.7097244482E-02    0.2953215298E-03    0.2311904249E-02    0.6913747375E-01
    0.7000000000E+01    0.7339522785E-02    0.9510222128E-02    0.3983087503E-03    0.3221882654E-02    0.9266395304E-01
    0.9000000000E+01    0.9393592492E-02    0.1172473753E-01    0.4942531974E-03    0.4123589147E-02    0.1142659950E+00
    0.1100000000E+02    0.1142906211E-01    0.1376425181E-01    0.5839878934E-03    0.5017137875E-02    0.1341706910E+00
    0.1300000000E+02    0.1344618719E-01    0.1564867036E-01    0.6682153081E-03    0.5902640885E-02    0.1525707452E+00
    0.1500000000E+02    0.1544521859E-01    0.1739499173E-01    0.7475317795E-03    0.6780208171E-02    0.1696307465E+00
    0.1700000000E+02    0.1742640261E-01    0.1901781944E-01    0.8224466926E-03    0.7649947725E-02    0.1854921161E+00
    0.1900000000E+02    0.1938998106E-01    0.2052976932E-01    0.8933976774E-03    0.8511965578E-02    0.2002770456E+00
    0.2100000000E+02    0.2133619141E-01    0.2194179651E-01    0.9607627536E-03    0.9366365845E-02    0.2140916582E+00
    0.2300000000E+02    0.2326526684E-01    0.2326345990E-01    0.1024870109E-02    0.1021325077E-01    0.2270285663E+00
    0.2500000000E+02    0.2517743634E-01    0.2450313765E-01    0.1086006032E-02    0.1105272077E-01    0.2391689557E+00
    0.2700000000E+02    0.2707292487E-01    0.2566820403E-01    0.1144421385E-02    0.1188487446E-01    0.2505842950E+00
    0.2900000000E+02    0.2895195333E-01    0.2676517529E-01    0.1200336932E-02    0.1270980871E-01    0.2613377479E+00
    0.3100000000E+02    0.3081473878E-01    0.2779983094E-01    0.1253947731E-02    0.1352761870E-01    0.2714853450E+00
    0.3300000000E+02    0.3266149441E-01    0.2877731499E-01    0.1305426791E-02    0.1433839791E-01    0.2810769639E+00
    0.3500000000E+02    0.3449242972E-01    0.2970222086E-01    0.1354928130E-02    0.1514223818E-01    0.2901571506E+00
    0.3700000000E+02    0.3630775053E-01    0.3057866320E-01    0.1402589334E-02    0.1593922978E-01    0.2987658144E+00
    0.3900000000E+02    0.3810765908E-01    0.3141033856E-01    0.1448533725E-02    0.1672946137E-01    0.3069388152E+00
    0.4100000000E+02    0.3989235415E-01    0.3220057726E-01    0.1492872192E-02    0.1751302012E-01    0.3147084647E+00
    0.4300000000E+02    0.4166203105E-01    0.3295238755E-01    0.1535704747E-02    0.1828999168E-01    0.3221039551E+00
    0.4500000000E+02    0.4341688179E-01    0.3366849367E-01    0.1577121865E-02    0.1906046021E-01    0.3291517262E+00
    0.4700000000E+02    0.4515709506E-01    0.3435136855E-01    0.1617205617E-02    0.1982450848E-01    0.3358757827E+00
    0.4900000000E+02    0.4688285638E-01    0.3500326213E-01    0.1656030661E-02    0.2058221782E-01    0.3422979684E+00
    0.1000000000E+02    0.1041363623E-01    0.1276505076E-01    0.5398501155E-03    0.4571376180E-02    0.1244177421E+00
    0.3000000000E+02    0.2988536302E-01    0.2728995724E-01    0.1227419134E-02    0.1311959836E-01    0.2664840272E+00
    0.5000000000E+02    0.4774037467E-01    0.3531823917E-01    0.1674992680E-02    0.2095872044E-01    0.3454021541E+00
    0.7000000000E+02    0.6417491669E-01    0.4040435286E-01    0.2001899906E-02    0.2817479170E-01    0.3956501169E+00
    0.9000000000E+02    0.7935455539E-01    0.4391075575E-01    0.2253862937E-02    0.3484041117E-01    0.4304658447E+00
    0.1100000000E+03    0.9341994709E-01    0.4647167190E-01    0.2453202229E-02    0.4101725674E-01    0.4560218240E+00
    0.1300000000E+03    0.1064913548E+00    0.4842218086E-01    0.2612808745E-02    0.4675806523E-01    0.4755845691E+00
    0.1500000000E+03    0.1186722180E+00    0.4995593075E-01    0.2741066074E-02    0.5210819729E-01    0.4910449906E+00
    0.1700000000E+03    0.1300519986E+00    0.5119260533E-01    0.2843897825E-02    0.5710688520E-01    0.5035737117E+00
    0.1900000000E+03    0.1407084693E+00    0.5221014153E-01    0.2925736366E-02    0.6178823592E-01    0.5139343106E+00
    0.2100000000E+03    0.1507095664E+00    0.5306146044E-01    0.2990032291E-02    0.6618204347E-01    0.5226461502E+00
    0.2300000000E+03    0.1601149015E+00    0.5378375128E-01    0.3039547308E-02    0.7031445173E-01    0.5300748215E+00
    0.2500000000E+03    0.1689770028E+00    0.5440390787E-01    0.3076535778E-02    0.7420849858E-01    0.5364851567E+00
    0.2700000000E+03    0.1773423405E+00    0.5494185731E-01    0.3102864541E-02    0.7788456557E-01    0.5420737203E+00
    0.2900000000E+03    0.1852521794E+00    0.5541267620E-01    0.3120096215E-02    0.8136075164E-01    0.5469894864E+00
    0.3100000000E+03    0.1927432912E+00    0.5582798002E-01    0.3129549571E-02    0.8465318537E-01    0.5513474274E+00
    0.3300000000E+03    0.1998485525E+00    0.5619686114E-01    0.3132344795E-02    0.8777628736E-01    0.5552376972E+00
    0.3500000000E+03    0.2065974499E+00    0.5652653759E-01    0.3129438323E-02    0.9074299165E-01    0.5587319892E+00
    0.3700000000E+03    0.2130165089E+00    0.5682281162E-01    0.3121650235E-02    0.9356493356E-01    0.5618880349E+00
    0.3900000000E+03    0.2191296580E+00    0.5709039998E-01    0.3109686163E-02    0.9625260966E-01    0.5647528468E+00
    0.4100000000E+03    0.2249585412E+00    0.5733317599E-01    0.3094155040E-02    0.9881551461E-01    0.5673650983E+00
    0.4300000000E+03    0.2305227861E+00    0.5755434957E-01    0.3075583662E-02    0.1012622587E+00    0.5697568951E+00
    0.4500000000E+03    0.2358402346E+00    0.5775660318E-01    0.3054428719E-02    0.1036006692E+00    0.5719551140E+00
    0.4700000000E+03    0.2409271432E+00    0.5794219563E-01    0.3031086832E-02    0.1058378778E+00    0.5739824267E+00
    0.4900000000E+03    0.2457983563E+00    0.5811304231E-01    0.3005902969E-02    0.1079803971E+00    0.5758580918E+00
    0.1000000000E+03    0.8651858354E-01    0.4528395559E-01    0.2359162894E-02    0.3798644518E-01    0.4441533824E+00
    0.3000000000E+03    0.1890479365E+00    0.5562664881E-01    0.3125720967E-02    0.8302899901E-01    0.5492320542E+00
    0.5000000000E+03    0.2481573673E+00    0.5819345638E-01    0.2992715747E-02    0.1090180306E+00    0.5767442969E+00
    0.7000000000E+03    0.2867679472E+00    0.5932160214E-01    0.2687196853E-02    0.1260080073E+00    0.5894779396E+00
    0.9000000000E+03    0.3140163112E+00    0.5994034050E-01    0.2375890661E-02    0.1380078813E+00    0.5968357515E+00
    0.1100000000E+04    0.3342894347E+00    0.6032291282E-01    0.2099312966E-02    0.1469430884E+00    0.6016353682E+00
    0.1300000000E+04    0.3499656378E+00    0.6057789412E-01    0.1863353301E-02    0.1538577551E+00    0.6050168181E+00
    0.1500000000E+04    0.3624496018E+00    0.6075672304E-01    0.1664333866E-02    0.1593687309E+00    0.6075297905E+00
    0.1700000000E+04    0.3726256437E+00    0.6088679247E-01    0.1496532951E-02    0.1638644590E+00    0.6094721279E+00
    0.1900000000E+04    0.3810787512E+00    0.6098396661E-01    0.1354453859E-02    0.1676019695E+00    0.6110193082E+00
    0.2100000000E+04    0.3882115451E+00    0.6105803331E-01    0.1233414042E-02    0.1707582123E+00    0.6122814643E+00
    0.2300000000E+04    0.3943102806E+00    0.6111533807E-01    0.1129593986E-02    0.1734590294E+00    0.6133312278E+00
    0.2500000000E+04    0.3995840817E+00    0.6116016190E-01    0.1039927875E-02    0.1757963793E+00    0.6142184480E+00
    0.2700000000E+04    0.4041892881E+00    0.6119548919E-01    0.9619651828E-03    0.1778390280E+00    0.6149784807E+00
    0.2900000000E+04    0.4082451208E+00    0.6122345819E-01    0.8937442343E-03    0.1796394288E+00    0.6156371021E+00
    0.3100000000E+04    0.4118440785E+00    0.6124563701E-01    0.8336878181E-03    0.1812382892E+00    0.6162135503E+00
    0.3300000000E+04    0.4150590246E+00    0.6126319881E-01    0.7805204868E-03    0.1826676838E+00    0.6167224755E+00
    0.3500000000E+04    0.4179481319E+00    0.6127703667E-01    0.7332041703E-03    0.1839532271E+00    0.6171752328E+00
    0.3700000000E+04    0.4205584046E+00    0.6128784087E-01    0.6908883605E-03    0.1851156218E+00    0.6175807591E+00
    0.3900000000E+04    0.4229282345E+00    0.6129615212E-01    0.6528715852E-03    0.1861717814E+00    0.6179461858E+00
    0.4100000000E+04    0.4250892850E+00    0.6130239908E-01    0.6185715313E-03    0.1871356591E+00    0.6182772728E+00
    0.4300000000E+04    0.4270679020E+00    0.6130692518E-01    0.5875017709E-03    0.1880188678E+00    0.6185787236E+00
    0.4500000000E+04    0.4288861846E+00    0.6131000827E-01    0.5592535307E-03    0.1888311513E+00    0.6188544171E+00
    0.4700000000E+04    0.4305628063E+00    0.6131187503E-01    0.5334813276E-03    0.1895807449E+00    0.6191075812E+00
    0.4900000000E+04    0.4321136537E+00    0.6131271189E-01    0.5098915789E-03    0.1902746570E+00    0.6193409236E+00
    0.1000000000E+04    0.3248454172E+00    0.6015237143E-01    0.2232513039E-02    0.1427798318E+00    0.5994636175E+00
    0.3000000000E+04    0.4100967612E+00    0.6123519037E-01    0.8627814132E-03    0.1804618737E+00    0.6159345923E+00
    0.5000000000E+04    0.4328462401E+00    0.6131279343E-01    0.4988352972E-03    0.1906026421E+00    0.6194508910E+00
    0.7000000000E+04    0.4433534307E+00    0.6128670757E-01    0.3472912848E-03    0.1953244808E+00    0.6210153959E+00
    0.9000000000E+04    0.4493952086E+00    0.6123939576E-01    0.2671578206E-03    0.1980614435E+00    0.6219135780E+00
    0.1100000000E+05    0.4533154143E+00    0.6118845358E-01    0.2183766784E-03    0.1998514964E+00    0.6225031399E+00
    0.1300000000E+05    0.4560626666E+00    0.6113878421E-01    0.1858087507E-03    0.2011159069E+00    0.6229236765E+00
    0.1500000000E+05    0.4580937327E+00    0.6109181062E-01    0.1626052523E-03    0.2020580750E+00    0.6232411514E+00
    0.1700000000E+05    0.4596556211E+00    0.6104782961E-01    0.1452592037E-03    0.2027882939E+00    0.6234908905E+00
    0.1900000000E+05    0.4608935480E+00    0.6100674926E-01    0.1318042616E-03    0.2033715797E+00    0.6236935709E+00
    0.2100000000E+05    0.4618984559E+00    0.6096834968E-01    0.1210586639E-03    0.2038487589E+00    0.6238621295E+00
    0.2300000000E+05    0.4627301928E+00    0.6093238124E-01    0.1122721328E-03    0.2042467707E+00    0.6240050917E+00
    0.2500000000E+05    0.4634297495E+00    0.6089860204E-01    0.1049466806E-03    0.2045841155E+00    0.6241283140E+00
    0.2700000000E+05    0.4640261409E+00    0.6086679114E-01    0.9873939965E-04    0.2048739234E+00    0.6242359599E+00
    0.2900000000E+05    0.4645404798E+00    0.6083675181E-01    0.9340675900E-04    0.2051257741E+00    0.6243310743E+00
    0.3100000000E+05    0.4649884941E+00    0.6080831085E-01    0.8877119020E-04    0.2053468226E+00    0.6244159390E+00
    0.3300000000E+05    0.4653821397E+00    0.6078131644E-01    0.8470024764E-04    0.2055425227E+00    0.6244922997E+00
    0.3500000000E+05    0.4657306665E+00    0.6075563557E-01    0.8109316952E-04    0.2057171046E+00    0.6245615161E+00
    0.3700000000E+05    0.4660413428E+00    0.6073115152E-01    0.7787195526E-04    0.2058739013E+00    0.6246246645E+00
    0.3900000000E+05    0.4663199582E+00    0.6070776161E-01    0.7497528835E-04    0.2060155747E+00    0.6246826084E+00
    0.4100000000E+05    0.4665711815E+00    0.6068537523E-01    0.7235430256E-04    0.2061442767E+00    0.6247360498E+00
    0.4300000000E+05    0.4667988189E+00    0.6066391215E-01    0.6996957250E-04    0.2062617666E+00    0.6247855652E+00
    0.4500000000E+05    0.4670060043E+00    0.6064330107E-01    0.6778893538E-04    0.2063694965E+00    0.6248316334E+00
    0.4700000000E+05    0.4671953416E+00    0.6062347842E-01    0.6578588853E-04    0.2064686763E+00    0.6248746551E+00
    0.4900000000E+05    0.4673690117E+00    0.6060438729E-01    0.6393839304E-04    0.2065603217E+00    0.6249149690E+00
    0.1000000000E+05    0.4515441700E+00    0.6121394086E-01    0.2400874946E-03    0.1990409579E+00    0.6222356328E+00
    0.3000000000E+05    0.4647719565E+00    0.6082234149E-01    0.9101099115E-04    0.2052397744E+00    0.6243746683E+00
    0.5000000000E+05    0.4674505581E+00    0.6059509988E-01    0.6306708304E-04    0.2066035929E+00    0.6249342023E+00
    0.7000000000E+05    0.4685843830E+00    0.6043773013E-01    0.5056796158E-04    0.2072261687E+00    0.6252284349E+00
    0.9000000000E+05    0.4692034902E+00    0.6031751396E-01    0.4321744887E-04    0.2075915765E+00    0.6254220606E+00
    0.1100000000E+06    0.4695898225E+00    0.6022029640E-01    0.3826788465E-04    0.2078361157E+00    0.6255645029E+00
    0.1300000000E+06    0.4698516945E+00    0.6013870816E-01    0.3465494759E-04    0.2080135669E+00    0.6256764570E+00
    0.1500000000E+06    0.4700394959E+00    0.6006843008E-01    0.3187280236E-04    0.2081496053E+00    0.6257683609E+00
    0.1700000000E+06    0.4701797924E+00    0.6000671486E-01    0.2964741612E-04    0.2082581139E+00    0.6258461523E+00
    0.1900000000E+06    0.4702878898E+00    0.5995170714E-01    0.2781612634E-04    0.2083472926E+00    0.6259135072E+00
    0.2100000000E+06    0.4703732130E+00    0.5990209526E-01    0.2627563158E-04    0.2084223155E+00    0.6259728491E+00
    0.2300000000E+06    0.4704418737E+00    0.5985691779E-01    0.2495682725E-04    0.2084866200E+00    0.6260258547E+00
    0.2500000000E+06    0.4704980034E+00    0.5981544905E-01    0.2381153680E-04    0.2085425858E+00    0.6260737300E+00
    0.2700000000E+06    0.4705444914E+00    0.5977712791E-01    0.2280502692E-04    0.2085919170E+00    0.6261173699E+00
    0.2900000000E+06    0.4705834167E+00    0.5974151151E-01    0.2191154920E-04    0.2086358685E+00    0.6261574559E+00
    0.3100000000E+06    0.4706163116E+00    0.5970824428E-01    0.2111156256E-04    0.2086753870E+00    0.6261945186E+00
    0.3300000000E+06    0.4706443294E+00    0.5967703635E-01    0.2038993641E-04    0.2087112017E+00    0.6262289789E+00
    0.3500000000E+06    0.4706683533E+00    0.5964764836E-01    0.1973475041E-04    0.2087438836E+00    0.6262611762E+00
    0.3700000000E+06    0.4706890712E+00    0.5961988035E-01    0.1913647015E-04    0.2087738878E+00    0.6262913877E+00
    0.3900000000E+06    0.4707070256E+00    0.5959356358E-01    0.1858736737E-04    0.2088015812E+00    0.6263198431E+00
    0.4100000000E+06    0.4707226503E+00    0.5956855432E-01    0.1808110329E-04    0.2088272638E+00    0.6263467346E+00
    0.4300000000E+06    0.4707362956E+00    0.5954472921E-01    0.1761242364E-04    0.2088511833E+00    0.6263722245E+00
    0.4500000000E+06    0.4707482475E+00    0.5952198150E-01    0.1717693158E-04    0.2088735464E+00    0.6263964514E+00
    0.4700000000E+06    0.4707587414E+00    0.5950021828E-01    0.1677091609E-04    0.2088945270E+00    0.6264195340E+00
    0.4900000000E+06    0.4707679730E+00    0.5947935811E-01    0.1639122050E-04    0.2089142728E+00    0.6264415756E+00
    0.1000000000E+06    0.4694169468E+00    0.6026658904E-01    0.4052867589E-04    0.2077246118E+00    0.6254980335E+00
    0.3000000000E+06    0.4706005385E+00    0.5972460371E-01    0.2150090221E-04    0.2086561320E+00    0.6261763366E+00
    0.5000000000E+06    0.4707721676E+00    0.5946924393E-01    0.1621038223E-04    0.2089237227E+00    0.6264522344E+00
    0.7000000000E+06    0.4708182553E+00    0.5930071212E-01    0.1348458741E-04    0.2090707271E+00    0.6266275262E+00
    0.9000000000E+06    0.4708285437E+00    0.5917479967E-01    0.1175977400E-04    0.2091699880E+00    0.6267562547E+00
    0.1100000000E+07    0.4708252935E+00    0.5907428306E-01    0.1054542569E-04    0.2092442428E+00    0.6268580419E+00
    0.1300000000E+07    0.4708162281E+00    0.5899063874E-01    0.9632201411E-05    0.2093032842E+00    0.6269422423E+00
    0.1500000000E+07    0.4708045618E+00    0.5891902121E-01    0.8913882749E-05    0.2093521593E+00    0.6270140511E+00
    0.1700000000E+07    0.4707917893E+00    0.5885641121E-01    0.8330141830E-05    0.2093937886E+00    0.6270766547E+00
    0.1900000000E+07    0.4707786561E+00    0.5880079982E-01    0.7843865671E-05    0.2094300058E+00    0.6271321489E+00
    0.2100000000E+07    0.4707655491E+00    0.5875078275E-01    0.7430816944E-05    0.2094620335E+00    0.6271819859E+00
    0.2300000000E+07    0.4707526720E+00    0.5870533975E-01    0.7074413971E-05    0.2094907262E+00    0.6272272140E+00
    0.2500000000E+07    0.4707401299E+00    0.5866370627E-01    0.6762882330E-05    0.2095167034E+00    0.6272686142E+00
    0.2700000000E+07    0.4707279735E+00    0.5862529457E-01    0.6487602115E-05    0.2095404281E+00    0.6273067847E+00
    0.2900000000E+07    0.4707162224E+00    0.5858964312E-01    0.6242099966E-05    0.2095622552E+00    0.6273421932E+00
    0.3100000000E+07    0.4707048786E+00    0.5855638289E-01    0.6021408371E-05    0.2095824625E+00    0.6273752127E+00
    0.3300000000E+07    0.4706939337E+00    0.5852521415E-01    0.5821643995E-05    0.2096012711E+00    0.6274061455E+00
    0.3500000000E+07    0.4706833742E+00    0.5849589018E-01    0.5639721748E-05    0.2096188604E+00    0.6274352396E+00
    0.3700000000E+07    0.4706731833E+00    0.5846820545E-01    0.5473155848E-05    0.2096353774E+00    0.6274627016E+00
    0.3900000000E+07    0.4706633432E+00    0.5844198694E-01    0.5319918238E-05    0.2096509441E+00    0.6274887048E+00
    0.4100000000E+07    0.4706538360E+00    0.5841708761E-01    0.5178335819E-05    0.2096656630E+00    0.6275133964E+00
    0.4300000000E+07    0.4706446436E+00    0.5839338150E-01    0.5047014504E-05    0.2096796210E+00    0.6275369024E+00
    0.4500000000E+07    0.4706357491E+00    0.5837075981E-01    0.4924782220E-05    0.2096928923E+00    0.6275593315E+00
    0.4700000000E+07    0.4706271360E+00    0.5834912799E-01    0.4810645507E-05    0.2097055409E+00    0.6275807780E+00
    0.4900000000E+07    0.4706187890E+00    0.5832840332E-01    0.4703756042E-05    0.2097176221E+00    0.6276013243E+00
    0.1000000000E+07    0.4708279657E+00    0.5912201991E-01    0.1110539806E-04    0.2092094672E+00    0.6268097937E+00
    0.3000000000E+07    0.4707104999E+00    0.5857273424E-01    0.6128917100E-05    0.2095725464E+00    0.6273589813E+00
    0.5000000000E+07    0.4706147108E+00    0.5831835808E-01    0.4652797065E-05    0.2097234653E+00    0.6276112829E+00
    0.7000000000E+07    0.4705440832E+00    0.5815125014E-01    0.3881002751E-05    0.2098196153E+00    0.6277769590E+00
    0.9000000000E+07    0.4704885462E+00    0.5802668119E-01    0.3389436601E-05    0.2098902322E+00    0.6279005111E+00
    0.1100000000E+08    0.4704428496E+00    0.5792737037E-01    0.3042085140E-05    0.2099460399E+00    0.6279990658E+00
    0.1300000000E+08    0.4704040446E+00    0.5784480359E-01    0.2780260475E-05    0.2099921729E+00    0.6280810491E+00
    0.1500000000E+08    0.4703703276E+00    0.5777415431E-01    0.2573987192E-05    0.2100314889E+00    0.6281512353E+00
    0.1700000000E+08    0.4703405185E+00    0.5771242089E-01    0.2406164957E-05    0.2100657419E+00    0.6282125930E+00
    0.1900000000E+08    0.4703138048E+00    0.5765760909E-01    0.2266240502E-05    0.2100960864E+00    0.6282670946E+00
    0.2100000000E+08    0.4702896028E+00    0.5760832638E-01    0.2147305448E-05    0.2101233221E+00    0.6283161175E+00
    0.2300000000E+08    0.4702674800E+00    0.5756356198E-01    0.2044624799E-05    0.2101480264E+00    0.6283606619E+00
    0.2500000000E+08    0.4702471066E+00    0.5752255897E-01    0.1954831356E-05    0.2101706293E+00    0.6284014768E+00
    0.2700000000E+08    0.4702282254E+00    0.5748473585E-01    0.1875457084E-05    0.2101914600E+00    0.6284391377E+00
