  Pressure (Pa) 22mC5-400 (mol/kg) 3mC6-400 (mol/kg) 33mC5-400 (mol/kg) 23mC5-400 (mol/kg) C7-400 (mol/kg)
    0.1000000000E+01    0.1062737816E-02    0.1574233901E-02    0.2581060857E-03    0.5598143274E-03    0.8515262600E-02
    0.3000000000E+01    0.3171446922E-02    0.4584431645E-02    0.7533831193E-03    0.1670618559E-02    0.2480143252E-01
    0.5000000000E+01    0.5258108530E-02    0.7423392266E-02    0.1222691024E-02    0.2769818887E-02    0.4016566371E-01
    0.7000000000E+01    0.7323084920E-02    0.1010533704E-01    0.1668133678E-02    0.3857605938E-02    0.5468440086E-01
    0.9000000000E+01    0.9366730388E-02    0.1264295443E-01    0.2091585111E-02    0.4934166136E-02    0.6842585581E-01
    0.1100000000E+02    0.1138939146E-01    0.1504760121E-01    0.2494720157E-02    0.5999681817E-02    0.8145108706E-01
    0.1300000000E+02    0.1339140711E-01    0.1732947267E-01    0.2879040351E-02    0.7054331344E-02    0.9381491387E-01
    0.1500000000E+02    0.1537310895E-01    0.1949774741E-01    0.3245895896E-02    0.8098289211E-02    0.1055666936E+00
    0.1700000000E+02    0.1733482146E-01    0.2156071101E-01    0.3596504392E-02    0.9131726147E-02    0.1167509855E+00
    0.1900000000E+02    0.1927686212E-01    0.2352586206E-01    0.3931966852E-02    0.1015480922E-01    0.1274081205E+00
    0.2100000000E+02    0.2119954167E-01    0.2540000342E-01    0.4253281457E-02    0.1116770193E-01    0.1375746909E+00
    0.2300000000E+02    0.2310316423E-01    0.2718932110E-01    0.4561355421E-02    0.1217056430E-01    0.1472839744E+00
    0.2500000000E+02    0.2498802750E-01    0.2889945263E-01    0.4857015247E-02    0.1316355298E-01    0.1565663008E+00
    0.2700000000E+02    0.2685442293E-01    0.3053554653E-01    0.5141015632E-02    0.1414682134E-01    0.1654493719E+00
    0.2900000000E+02    0.2870263587E-01    0.3210231423E-01    0.5414047219E-02    0.1512051952E-01    0.1739585400E+00
    0.3100000000E+02    0.3053294573E-01    0.3360407548E-01    0.5676743365E-02    0.1608479454E-01    0.1821170519E+00
    0.3300000000E+02    0.3234562615E-01    0.3504479824E-01    0.5929686073E-02    0.1703979041E-01    0.1899462636E+00
    0.3500000000E+02    0.3414094514E-01    0.3642813377E-01    0.6173411202E-02    0.1798564814E-01    0.1974658281E+00
    0.3700000000E+02    0.3591916520E-01    0.3775744763E-01    0.6408413048E-02    0.1892250586E-01    0.2046938627E+00
    0.3900000000E+02    0.3768054349E-01    0.3903584708E-01    0.6635148396E-02    0.1985049890E-01    0.2116470956E+00
    0.4100000000E+02    0.3942533198E-01    0.4026620542E-01    0.6854040107E-02    0.2076975984E-01    0.2183409970E+00
    0.4300000000E+02    0.4115377752E-01    0.4145118357E-01    0.7065480294E-02    0.2168041857E-01    0.2247898950E+00
    0.4500000000E+02    0.4286612202E-01    0.4259324938E-01    0.7269833152E-02    0.2258260239E-01    0.2310070794E+00
    0.4700000000E+02    0.4456260256E-01    0.4369469481E-01    0.7467437474E-02    0.2347643606E-01    0.2370048938E+00
    0.4900000000E+02    0.4624345151E-01    0.4475765134E-01    0.7658608909E-02    0.2436204185E-01    0.2427948190E+00
    0.1000000000E+02    0.1038066261E-01    0.1386123653E-01    0.2295594550E-02    0.5468293301E-02    0.7502443668E-01
    0.3000000000E+02    0.2962001145E-01    0.3286106485E-01    0.5546649707E-02    0.1560382585E-01    0.1780802512E+00
    0.5000000000E+02    0.4707808550E-01    0.4527532189E-01    0.7751875103E-02    0.2480179683E-01    0.2456151931E+00
    0.7000000000E+02    0.6300333614E-01    0.5402409444E-01    0.9341526353E-02    0.3319294313E-01    0.2933499761E+00
    0.9000000000E+02    0.7759940111E-01    0.6052279059E-01    0.1052833100E-01    0.4088442338E-01    0.3289122243E+00
    0.1100000000E+03    0.9103477467E-01    0.6554084926E-01    0.1143217911E-01    0.4796490539E-01    0.3564525398E+00
    0.1300000000E+03    0.1034500861E+00    0.6953259201E-01    0.1212736787E-01    0.5450839537E-01    0.3784241027E+00
    0.1500000000E+03    0.1149636467E+00    0.7278360333E-01    0.1266330730E-01    0.6057715643E-01    0.3963704962E+00
    0.1700000000E+03    0.1256757265E+00    0.7548243877E-01    0.1307465377E-01    0.6622395839E-01    0.4113118723E+00
    0.1900000000E+03    0.1356718848E+00    0.7775862259E-01    0.1338672353E-01    0.7149383059E-01    0.4239496980E+00
    0.2100000000E+03    0.1450255918E+00    0.7970408198E-01    0.1361859917E-01    0.7642544063E-01    0.4347823197E+00
    0.2300000000E+03    0.1538003076E+00    0.8138587201E-01    0.1378502129E-01    0.8105218889E-01    0.4441736111E+00
    0.2500000000E+03    0.1620511479E+00    0.8285405851E-01    0.1389759941E-01    0.8540308449E-01    0.4523955243E+00
    0.2700000000E+03    0.1698262269E+00    0.8414678070E-01    0.1396562020E-01    0.8950345206E-01    0.4596554335E+00
    0.2900000000E+03    0.1771677482E+00    0.8529360475E-01    0.1399660655E-01    0.9337550595E-01    0.4661142588E+00
    0.3100000000E+03    0.1841128985E+00    0.8631780561E-01    0.1399671601E-01    0.9703882009E-01    0.4718988051E+00
    0.3300000000E+03    0.1906945822E+00    0.8723795661E-01    0.1397103215E-01    0.1005107149E+00    0.4771103630E+00
    0.3500000000E+03    0.1969420309E+00    0.8806906011E-01    0.1392378221E-01    0.1038065778E+00    0.4818308299E+00
    0.3700000000E+03    0.2028813105E+00    0.8882336675E-01    0.1385850284E-01    0.1069401302E+00    0.4861271480E+00
    0.3900000000E+03    0.2085357469E+00    0.8951097889E-01    0.1377816825E-01    0.1099236514E+00    0.4900545756E+00
    0.4100000000E+03    0.2139262833E+00    0.9014030195E-01    0.1368529070E-01    0.1127681667E+00    0.4936591342E+00
    0.4300000000E+03    0.2190717835E+00    0.9071838647E-01    0.1358200022E-01    0.1154836070E+00    0.4969794655E+00
    0.4500000000E+03    0.2239892889E+00    0.9125119060E-01    0.1347010858E-01    0.1180789440E+00    0.5000482564E+00
    0.4700000000E+03    0.2286942387E+00    0.9174378384E-01    0.1335116103E-01    0.1205623060E+00    0.5028933461E+00
    0.4900000000E+03    0.2332006577E+00    0.9220050681E-01    0.1322647848E-01    0.1229410770E+00    0.5055385944E+00
    0.1000000000E+03    0.8445280407E-01    0.6318335344E-01    0.1101022894E-01    0.4449610811E-01    0.3435040406E+00
    0.3000000000E+03    0.1806877205E+00    0.8581977711E-01    0.1400018084E-01    0.9523212419E-01    0.4690839697E+00
    0.5000000000E+03    0.2353834547E+00    0.9241660574E-01    0.1316234668E-01    0.1240933661E+00    0.5067928186E+00
    0.7000000000E+03    0.2711863214E+00    0.9553769963E-01    0.1177945743E-01    0.1430011994E+00    0.5251468494E+00
    0.9000000000E+03    0.2965924516E+00    0.9734363337E-01    0.1045490081E-01    0.1564293364E+00    0.5360668887E+00
    0.1100000000E+04    0.3155965971E+00    0.9851298506E-01    0.9307737920E-02    0.1664818279E+00    0.5433364356E+00
    0.1300000000E+04    0.3303558155E+00    0.9932680989E-01    0.8340851659E-02    0.1742951207E+00    0.5485382929E+00
    0.1500000000E+04    0.3421481475E+00    0.9992241338E-01    0.7529915931E-02    0.1805427394E+00    0.5524532566E+00
    0.1700000000E+04    0.3517829131E+00    0.1003747566E+00    0.6847544940E-02    0.1856513127E+00    0.5555116704E+00
    0.1900000000E+04    0.3597989895E+00    0.1007281872E+00    0.6269635007E-02    0.1899049857E+00    0.5579705255E+00
    0.2100000000E+04    0.3665695960E+00    0.1010105908E+00    0.5776469387E-02    0.1935006077E+00    0.5599929221E+00
    0.2300000000E+04    0.3723615914E+00    0.1012403628E+00    0.5352328201E-02    0.1965789681E+00    0.5616874462E+00
    0.2500000000E+04    0.3773708955E+00    0.1014301169E+00    0.4984770324E-02    0.1992434585E+00    0.5631292396E+00
    0.2700000000E+04    0.3817445967E+00    0.1015887831E+00    0.4663942259E-02    0.2015717219E+00    0.5643719862E+00
    0.2900000000E+04    0.3855952615E+00    0.1017228555E+00    0.4382004131E-02    0.2036231946E+00    0.5654550812E+00
    0.3100000000E+04    0.3890104857E+00    0.1018371655E+00    0.4132678140E-02    0.2054441403E+00    0.5664081015E+00
    0.3300000000E+04    0.3920594401E+00    0.1019353791E+00    0.3910901000E-02    0.2070711014E+00    0.5672536938E+00
    0.3500000000E+04    0.3947974609E+00    0.1020203263E+00    0.3712558422E-02    0.2085333196E+00    0.5680094988E+00
    0.3700000000E+04    0.3972693331E+00    0.1020942246E+00    0.3534282359E-02    0.2098544671E+00    0.5686894663E+00
    0.3900000000E+04    0.3995116838E+00    0.1021588352E+00    0.3373295677E-02    0.2110539092E+00    0.5693047756E+00
    0.4100000000E+04    0.4015547519E+00    0.1022155734E+00    0.3227292538E-02    0.2121476380E+00    0.5698644937E+00
    0.4300000000E+04    0.4034237183E+00    0.1022655889E+00    0.3094345701E-02    0.2131489743E+00    0.5703760532E+00
    0.4500000000E+04    0.4051397167E+00    0.1023098248E+00    0.2972834201E-02    0.2140691007E+00    0.5708456065E+00
    0.4700000000E+04    0.4067206129E+00    0.1023490612E+00    0.2861386536E-02    0.2149174732E+00    0.5712782907E+00
    0.4900000000E+04    0.4081816102E+00    0.1023839490E+00    0.2758835714E-02    0.2157021409E+00    0.5716784302E+00
    0.1000000000E+04    0.3067321605E+00    0.9798536689E-01    0.9857808731E-02    0.1617918728E+00    0.5400315089E+00
    0.3000000000E+04    0.3873526101E+00    0.1017822288E+00    0.4253606078E-02    0.2045600039E+00    0.5659462990E+00
    0.5000000000E+04    0.4088712891E+00    0.1023999364E+00    0.2710578894E-02    0.2160727790E+00    0.5718674636E+00
    0.7000000000E+04    0.4187230682E+00    0.1025871740E+00    0.2032812121E-02    0.2213876680E+00    0.5745930882E+00
    0.9000000000E+04    0.4243440345E+00    0.1026458908E+00    0.1655832319E-02    0.2244453965E+00    0.5761949007E+00
    0.1100000000E+05    0.4279679966E+00    0.1026537352E+00    0.1415590159E-02    0.2264332238E+00    0.5772650555E+00
    0.1300000000E+05    0.4304942731E+00    0.1026384390E+00    0.1248478399E-02    0.2278304952E+00    0.5780391313E+00
    0.1500000000E+05    0.4323536615E+00    0.1026118776E+00    0.1124970235E-02    0.2288674771E+00    0.5786301666E+00
    0.1700000000E+05    0.4337780439E+00    0.1025797516E+00    0.1029561147E-02    0.2296684613E+00    0.5790994807E+00
    0.1900000000E+05    0.4349031814E+00    0.1025450130E+00    0.9533447723E-03    0.2303064214E+00    0.5794833658E+00
    0.2100000000E+05    0.4358137854E+00    0.1025092699E+00    0.8908430185E-03    0.2308270182E+00    0.5798047510E+00
    0.2300000000E+05    0.4365654213E+00    0.1024734258E+00    0.8385003371E-03    0.2312602862E+00    0.5800788785E+00
    0.2500000000E+05    0.4371960361E+00    0.1024379956E+00    0.7939067154E-03    0.2316267939E+00    0.5803163020E+00
    0.2700000000E+05    0.4377324195E+00    0.1024032708E+00    0.7553692234E-03    0.2319411027E+00    0.5805245772E+00
    0.2900000000E+05    0.4381940184E+00    0.1023694108E+00    0.7216625690E-03    0.2322138125E+00    0.5807092665E+00
    0.3100000000E+05    0.4385952881E+00    0.1023364955E+00    0.6918771320E-03    0.2324528243E+00    0.5808745631E+00
    0.3300000000E+05    0.4389471951E+00    0.1023045561E+00    0.6653227568E-03    0.2326641488E+00    0.5810236927E+00
    0.3500000000E+05    0.4392582081E+00    0.1022735939E+00    0.6414658015E-03    0.2328524408E+00    0.5811591810E+00
    0.3700000000E+05    0.4395349698E+00    0.1022435919E+00    0.6198867515E-03    0.2330213616E+00    0.5812830363E+00
    0.3900000000E+05    0.4397827634E+00    0.1022145226E+00    0.6002509543E-03    0.2331738311E+00    0.5813968776E+00
    0.4100000000E+05    0.4400058424E+00    0.1021863522E+00    0.5822879620E-03    0.2333122069E+00    0.5815020259E+00
    0.4300000000E+05    0.4402076699E+00    0.1021590438E+00    0.5657766582E-03    0.2334384135E+00    0.5815995708E+00
    0.4500000000E+05    0.4403910934E+00    0.1021325594E+00    0.5505343605E-03    0.2335540380E+00    0.5816904202E+00
    0.4700000000E+05    0.4405584756E+00    0.1021068608E+00    0.5364087078E-03    0.2336604008E+00    0.5817753367E+00
    0.4900000000E+05    0.4407117933E+00    0.1020819109E+00    0.5232715323E-03    0.2337586098E+00    0.5818549668E+00
    0.1000000000E+05    0.4263331681E+00    0.1026538715E+00    0.1523791144E-02    0.2255344479E+00    0.5767774421E+00
    0.3000000000E+05    0.4384014407E+00    0.1023528323E+00    0.7063271150E-03    0.2323371179E+00    0.5807941182E+00
    0.5000000000E+05    0.4407837091E+00    0.1020697054E+00    0.5170390097E-03    0.2338049550E+00    0.5818929750E+00
    0.7000000000E+05    0.4417776922E+00    0.1018570762E+00    0.4248878293E-03    0.2344698703E+00    0.5824751427E+00
    0.9000000000E+05    0.4423140356E+00    0.1016887030E+00    0.3681502916E-03    0.2348583387E+00    0.5828576890E+00
    0.1100000000E+06    0.4426450593E+00    0.1015496799E+00    0.3288357515E-03    0.2351174899E+00    0.5831378569E+00
    0.1300000000E+06    0.4428670426E+00    0.1014313925E+00    0.2995740310E-03    0.2353051049E+00    0.5833568523E+00
    0.1500000000E+06    0.4430245288E+00    0.1013284945E+00    0.2767224913E-03    0.2354486752E+00    0.5835356006E+00
    0.1700000000E+06    0.4431408878E+00    0.1012374584E+00    0.2582497477E-03    0.2355630265E+00    0.5836860515E+00
    0.1900000000E+06    0.4432295249E+00    0.1011558399E+00    0.2429228000E-03    0.2356568970E+00    0.5838156176E+00
    0.2100000000E+06    0.4432986605E+00    0.1010818773E+00    0.2299446426E-03    0.2357357905E+00    0.5839291886E+00
    0.2300000000E+06    0.4433536043E+00    0.1010142600E+00    0.2187744052E-03    0.2358033580E+00    0.5840301476E+00
    0.2500000000E+06    0.4433979322E+00    0.1009519868E+00    0.2090305192E-03    0.2358621236E+00    0.5841209253E+00
    0.2700000000E+06    0.4434341354E+00    0.1008942759E+00    0.2004351353E-03    0.2359138925E+00    0.5842033236E+00
    0.2900000000E+06    0.4434640001E+00    0.1008405052E+00    0.1927805262E-03    0.2359599930E+00    0.5842787125E+00
    0.3100000000E+06    0.4434888381E+00    0.1007901715E+00    0.1859078890E-03    0.2360014263E+00    0.5843481568E+00
    0.3300000000E+06    0.4435096330E+00    0.1007428623E+00    0.1796934816E-03    0.2360389623E+00    0.5844124996E+00
    0.3500000000E+06    0.4435271358E+00    0.1006982350E+00    0.1740392731E-03    0.2360732042E+00    0.5844724190E+00
    0.3700000000E+06    0.4435419288E+00    0.1006560022E+00    0.1688664690E-03    0.2361046319E+00    0.5845284684E+00
    0.3900000000E+06    0.4435544701E+00    0.1006159201E+00    0.1641109216E-03    0.2361336323E+00    0.5845811049E+00
    0.4100000000E+06    0.4435651243E+00    0.1005777806E+00    0.1597198112E-03    0.2361605214E+00    0.5846307103E+00
    0.4300000000E+06    0.4435741850E+00    0.1005414042E+00    0.1556492010E-03    0.2361855602E+00    0.5846776063E+00
    0.4500000000E+06    0.4435818909E+00    0.1005066353E+00    0.1518622075E-03    0.2362089660E+00    0.5847220668E+00
    0.4700000000E+06    0.4435884381E+00    0.1004733379E+00    0.1483276102E-03    0.2362309220E+00    0.5847643268E+00
    0.4900000000E+06    0.4435939884E+00    0.1004413927E+00    0.1450187828E-03    0.2362515834E+00    0.5848045891E+00
    0.1000000000E+06    0.4424973725E+00    0.1016161624E+00    0.3469046193E-03    0.2349994084E+00    0.5830073001E+00
    0.3000000000E+06    0.4434769796E+00    0.1008149363E+00    0.1892548900E-03    0.2359812404E+00    0.5843141206E+00
    0.5000000000E+06    0.4435964329E+00    0.1004258937E+00    0.1434417595E-03    0.2362614708E+00    0.5848240271E+00
    0.7000000000E+06    0.4436163388E+00    0.1001667468E+00    0.1195886016E-03    0.2364152363E+00    0.5851407637E+00
    0.9000000000E+06    0.4436101498E+00    0.9997218204E-01    0.1044222767E-03    0.2365190505E+00    0.5853699775E+00
    0.1100000000E+07    0.4435952513E+00    0.9981637053E-01    0.9371491976E-04    0.2365967293E+00    0.5855493212E+00
    0.1300000000E+07    0.4435773475E+00    0.9968642324E-01    0.8564815753E-04    0.2366585154E+00    0.5856964902E+00
    0.1500000000E+07    0.4435586483E+00    0.9957497262E-01    0.7929497792E-04    0.2367096826E+00    0.5858212002E+00
    0.1700000000E+07    0.4435400860E+00    0.9947740958E-01    0.7412717953E-04    0.2367532817E+00    0.5859293540E+00
    0.1900000000E+07    0.4435220629E+00    0.9939065809E-01    0.6981906123E-04    0.2367912272E+00    0.5860248033E+00
    0.2100000000E+07    0.4435047434E+00    0.9931256267E-01    0.6615754123E-04    0.2368247958E+00    0.5861101994E+00
    0.2300000000E+07    0.4434881796E+00    0.9924155422E-01    0.6299663944E-04    0.2368548794E+00    0.5861874443E+00
    0.2500000000E+07    0.4434723691E+00    0.9917645491E-01    0.6023258098E-04    0.2368821248E+00    0.5862579481E+00
    0.2700000000E+07    0.4434572840E+00    0.9911635803E-01    0.5778932330E-04    0.2369070155E+00    0.5863227854E+00
    0.2900000000E+07    0.4434428846E+00    0.9906055069E-01    0.5560971571E-04    0.2369299221E+00    0.5863827933E+00
    0.3100000000E+07    0.4434291277E+00    0.9900846225E-01    0.5364987307E-04    0.2369511344E+00    0.5864386368E+00
    0.3300000000E+07    0.4434159694E+00    0.9895962882E-01    0.5187546869E-04    0.2369708837E+00    0.5864908527E+00
    0.3500000000E+07    0.4434033678E+00    0.9891366818E-01    0.5025921845E-04    0.2369893572E+00    0.5865398805E+00
    0.3700000000E+07    0.4433912832E+00    0.9887026169E-01    0.4877912874E-04    0.2370067084E+00    0.5865860848E+00
    0.3900000000E+07    0.4433796793E+00    0.9882914094E-01    0.4741724888E-04    0.2370230649E+00    0.5866297710E+00
    0.4100000000E+07    0.4433685223E+00    0.9879007768E-01    0.4615876478E-04    0.2370385339E+00    0.5866711977E+00
    0.4300000000E+07    0.4433577816E+00    0.9875287623E-01    0.4499132900E-04    0.2370532061E+00    0.5867105857E+00
    0.4500000000E+07    0.4433474290E+00    0.9871736754E-01    0.4390455752E-04    0.2370671590E+00    0.5867481251E+00
    0.4700000000E+07    0.4433374390E+00    0.9868340457E-01    0.4288964648E-04    0.2370804595E+00    0.5867839805E+00
    0.4900000000E+07    0.4433277881E+00    0.9865085864E-01    0.4193907644E-04    0.2370931657E+00    0.5868182957E+00
    0.1000000000E+07    0.4436033052E+00    0.9989041781E-01    0.9865525504E-04    0.2365603471E+00    0.5854645119E+00
    0.3000000000E+07    0.4434359286E+00    0.9903407277E-01    0.5460465919E-04    0.2369407244E+00    0.5864111995E+00
    0.5000000000E+07    0.4433230830E+00    0.9863508113E-01    0.4148586281E-04    0.2370993119E+00    0.5868349157E+00
    0.7000000000E+07    0.4432424864E+00    0.9837238910E-01    0.3461909455E-04    0.2372005183E+00    0.5871103114E+00
    0.9000000000E+07    0.4431800051E+00    0.9817631645E-01    0.3024301173E-04    0.2372749318E+00    0.5873144586E+00
    0.1100000000E+08    0.4431290203E+00    0.9801986344E-01    0.2714959790E-04    0.2373337876E+00    0.5874766411E+00
    0.1300000000E+08    0.4430859643E+00    0.9788970400E-01    0.2481721382E-04    0.2373824708E+00    0.5876111504E+00
    0.1500000000E+08    0.4430487034E+00    0.9777827440E-01    0.2297929423E-04    0.2374239810E+00    0.5877260371E+00
    0.1700000000E+08    0.4430158622E+00    0.9768086636E-01    0.2148371434E-04    0.2374601609E+00    0.5878262848E+00
    0.1900000000E+08    0.4429865026E+00    0.9759434941E-01    0.2023656596E-04    0.2374922236E+00    0.5879151933E+00
    0.2100000000E+08    0.4429599565E+00    0.9751653633E-01    0.1917636113E-04    0.2375210103E+00    0.5879950601E+00
    0.2300000000E+08    0.4429357312E+00    0.9744583869E-01    0.1826094816E-04    0.2375471284E+00    0.5880675490E+00
    0.2500000000E+08    0.4429134530E+00    0.9738106648E-01    0.1746034696E-04    0.2375710306E+00    0.5881339037E+00
    0.2700000000E+08    0.4428928319E+00    0.9732130511E-01    0.1675258016E-04    0.2375930634E+00    0.5881950783E+00
