  Pressure (Pa) 22mC5-400 (mol/kg) 3mC6-400 (mol/kg) 33mC5-400 (mol/kg) 23mC5-400 (mol/kg) C7-400 (mol/kg)
    0.1000000000E+01    0.1062517311E-02    0.3172993686E-02    0.1947694222E-03    0.7462643921E-03    0.1716253928E-02
    0.3000000000E+01    0.3169482707E-02    0.9380005923E-02    0.5752319183E-03    0.2226113272E-02    0.5073944810E-02
    0.5000000000E+01    0.5252707933E-02    0.1540841278E-01    0.9440069835E-03    0.3689302651E-02    0.8335478190E-02
    0.7000000000E+01    0.7312606877E-02    0.2126584702E-01    0.1301567934E-02    0.5136122896E-02    0.1150495685E-01
    0.9000000000E+01    0.9349583780E-02    0.2695951211E-01    0.1648362449E-02    0.6566857605E-02    0.1458625301E-01
    0.1100000000E+02    0.1136403351E-01    0.3249621202E-01    0.1984814324E-02    0.7981783803E-02    0.1758302430E-01
    0.1300000000E+02    0.1335634185E-01    0.3788237850E-01    0.2311325075E-02    0.9381172133E-02    0.2049872842E-01
    0.1500000000E+02    0.1532688572E-01    0.4312409625E-01    0.2628275421E-02    0.1076528704E-01    0.2333663667E-01
    0.1700000000E+02    0.1727603346E-01    0.4822712597E-01    0.2936026640E-02    0.1213438693E-01    0.2609984629E-01
    0.1900000000E+02    0.1920414508E-01    0.5319692570E-01    0.3234921825E-02    0.1348872438E-01    0.2879129193E-01
    0.2100000000E+02    0.2111157245E-01    0.5803867042E-01    0.3525287040E-02    0.1482854626E-01    0.3141375618E-01
    0.2300000000E+02    0.2299865958E-01    0.6275727014E-01    0.3807432389E-02    0.1615409390E-01    0.3396987930E-01
    0.2500000000E+02    0.2486574280E-01    0.6735738671E-01    0.4081653004E-02    0.1746560327E-01    0.3646216821E-01
    0.2700000000E+02    0.2671315099E-01    0.7184344928E-01    0.4348229956E-02    0.1876330511E-01    0.3889300479E-01
    0.2900000000E+02    0.2854120579E-01    0.7621966863E-01    0.4607431106E-02    0.2004742507E-01    0.4126465362E-01
    0.3100000000E+02    0.3035022177E-01    0.8049005050E-01    0.4859511889E-02    0.2131818384E-01    0.4357926910E-01
    0.3300000000E+02    0.3214050665E-01    0.8465840788E-01    0.5104716042E-02    0.2257579734E-01    0.4583890208E-01
    0.3500000000E+02    0.3391236149E-01    0.8872837254E-01    0.5343276285E-02    0.2382047676E-01    0.4804550599E-01
    0.3700000000E+02    0.3566608085E-01    0.9270340560E-01    0.5575414946E-02    0.2505242876E-01    0.5020094260E-01
    0.3900000000E+02    0.3740195295E-01    0.9658680750E-01    0.5801344556E-02    0.2627185558E-01    0.5230698731E-01
    0.4100000000E+02    0.3912025989E-01    0.1003817272E+00    0.6021268388E-02    0.2747895511E-01    0.5436533412E-01
    0.4300000000E+02    0.4082127776E-01    0.1040911707E+00    0.6235380971E-02    0.2867392108E-01    0.5637760023E-01
    0.4500000000E+02    0.4250527683E-01    0.1077180092E+00    0.6443868566E-02    0.2985694309E-01    0.5834533037E-01
    0.4700000000E+02    0.4417252170E-01    0.1112649866E+00    0.6646909610E-02    0.3102820679E-01    0.6027000079E-01
    0.4900000000E+02    0.4582327141E-01    0.1147347263E+00    0.6844675133E-02    0.3218789393E-01    0.6215302303E-01
    0.1000000000E+02    0.1035960022E-01    0.2974707231E-01    0.1817855617E-02    0.7276279705E-02    0.1609498363E-01
    0.3000000000E+02    0.2944807424E-01    0.7836784656E-01    0.4734346044E-02    0.2068446100E-01    0.4242896000E-01
    0.5000000000E+02    0.4664254007E-01    0.1164414205E+00    0.6941631091E-02    0.3276345206E-01    0.6307934038E-01
    0.7000000000E+02    0.6222106229E-01    0.1470760860E+00    0.8640308429E-02    0.4370834155E-01    0.7971823733E-01
    0.9000000000E+02    0.7640922449E-01    0.1722666944E+00    0.9962346687E-02    0.5367740277E-01    0.9341929999E-01
    0.1100000000E+03    0.8939195705E-01    0.1933524234E+00    0.1099848630E-01    0.6280039002E-01    0.1049036318E+00
    0.1300000000E+03    0.1013223130E+00    0.2112658348E+00    0.1181333903E-01    0.7118469448E-01    0.1146736264E+00
    0.1500000000E+03    0.1123280701E+00    0.2266764033E+00    0.1245422511E-01    0.7891997541E-01    0.1230901174E+00
    0.1700000000E+03    0.1225167606E+00    0.2400772435E+00    0.1295660760E-01    0.8608168839E-01    0.1304190102E+00
    0.1900000000E+03    0.1319795475E+00    0.2518396414E+00    0.1334757525E-01    0.9273380455E-01    0.1368606106E+00
    0.2100000000E+03    0.1407942436E+00    0.2622485237E+00    0.1364815363E-01    0.9893092864E-01    0.1425687068E+00
    0.2300000000E+03    0.1490276869E+00    0.2715262114E+00    0.1387488500E-01    0.1047199651E+00    0.1476633527E+00
    0.2500000000E+03    0.1567376252E+00    0.2798487385E+00    0.1404093617E-01    0.1101414403E+00    0.1522396516E+00
    0.2700000000E+03    0.1639742252E+00    0.2873573167E+00    0.1415689265E-01    0.1152305616E+00    0.1563739300E+00
    0.2900000000E+03    0.1707812899E+00    0.2941665510E+00    0.1423133905E-01    0.1200180711E+00    0.1601281619E+00
    0.3100000000E+03    0.1771972482E+00    0.3003704327E+00    0.1427129036E-01    0.1245309399E+00    0.1635531985E+00
    0.3300000000E+03    0.1832559645E+00    0.3060467814E+00    0.1428251736E-01    0.1287929364E+00    0.1666911609E+00
    0.3500000000E+03    0.1889874061E+00    0.3112605847E+00    0.1426979529E-01    0.1328250940E+00    0.1695772415E+00
    0.3700000000E+03    0.1944181954E+00    0.3160665428E+00    0.1423709619E-01    0.1366460994E+00    0.1722410755E+00
    0.3900000000E+03    0.1995720712E+00    0.3205110296E+00    0.1418773923E-01    0.1402726153E+00    0.1747077987E+00
    0.4100000000E+03    0.2044702745E+00    0.3246336218E+00    0.1412450935E-01    0.1437195520E+00    0.1769988728E+00
    0.4300000000E+03    0.2091318740E+00    0.3284683023E+00    0.1404975165E-01    0.1470002950E+00    0.1791327343E+00
    0.4500000000E+03    0.2135740412E+00    0.3320444168E+00    0.1396544713E-01    0.1501268986E+00    0.1811253116E+00
    0.4700000000E+03    0.2178122849E+00    0.3353874397E+00    0.1387327386E-01    0.1531102500E+00    0.1829904381E+00
    0.4900000000E+03    0.2218606505E+00    0.3385195938E+00    0.1377465670E-01    0.1559602097E+00    0.1847401868E+00
    0.1000000000E+03    0.8304104281E-01    0.1832568962E+00    0.1051162827E-01    0.5833748008E-01    0.9940312947E-01
    0.3000000000E+03    0.1740359423E+00    0.2973389618E+00    0.1425523998E-01    0.1223072810E+00    0.1618790160E+00
    0.5000000000E+03    0.2238176611E+00    0.3400127763E+00    0.1372331788E-01    0.1573379984E+00    0.1855751540E+00
    0.7000000000E+03    0.2555406702E+00    0.3624636533E+00    0.1257120028E-01    0.1796820289E+00    0.1982070799E+00
    0.9000000000E+03    0.2776021336E+00    0.3763501642E+00    0.1143890630E-01    0.1952353184E+00    0.2061206826E+00
    0.1100000000E+04    0.2938490714E+00    0.3858016805E+00    0.1044920495E-01    0.2066998552E+00    0.2115745006E+00
    0.1300000000E+04    0.3063129630E+00    0.3926560279E+00    0.9608515803E-02    0.2155029212E+00    0.2155783919E+00
    0.1500000000E+04    0.3161741237E+00    0.3978569371E+00    0.8897146919E-02    0.2224740481E+00    0.2186532665E+00
    0.1700000000E+04    0.3241672870E+00    0.4019394097E+00    0.8292404800E-02    0.2281297734E+00    0.2210957371E+00
    0.1900000000E+04    0.3307744092E+00    0.4052296459E+00    0.7774365972E-02    0.2328090316E+00    0.2230874423E+00
    0.2100000000E+04    0.3363249735E+00    0.4079379847E+00    0.7326816084E-02    0.2367436027E+00    0.2247460096E+00
    0.2300000000E+04    0.3410519163E+00    0.4102062174E+00    0.6936882473E-02    0.2400974006E+00    0.2261510698E+00
    0.2500000000E+04    0.3451245757E+00    0.4121334452E+00    0.6594405234E-02    0.2429896225E+00    0.2273585131E+00
    0.2700000000E+04    0.3486689943E+00    0.4137910427E+00    0.6291347429E-02    0.2455090172E+00    0.2284087606E+00
    0.2900000000E+04    0.3517809082E+00    0.4152317337E+00    0.6021313589E-02    0.2477230149E+00    0.2293317948E+00
    0.3100000000E+04    0.3545343241E+00    0.4164953175E+00    0.5779175757E-02    0.2496837571E+00    0.2301503414E+00
    0.3300000000E+04    0.3569873420E+00    0.4176124057E+00    0.5560788434E-02    0.2514321904E+00    0.2308819509E+00
    0.3500000000E+04    0.3591862011E+00    0.4186069320E+00    0.5362772429E-02    0.2530009127E+00    0.2315404011E+00
    0.3700000000E+04    0.3611681528E+00    0.4194978812E+00    0.5182350736E-02    0.2544161936E+00    0.2321366649E+00
    0.3900000000E+04    0.3629635380E+00    0.4203005071E+00    0.5017223327E-02    0.2556994358E+00    0.2326795938E+00
    0.4100000000E+04    0.3645973143E+00    0.4210272066E+00    0.4865471006E-02    0.2568682500E+00    0.2331764105E+00
    0.4300000000E+04    0.3660901961E+00    0.4216881599E+00    0.4725481045E-02    0.2579372575E+00    0.2336330695E+00
    0.4500000000E+04    0.3674595175E+00    0.4222918050E+00    0.4595889228E-02    0.2589186970E+00    0.2340545259E+00
    0.4700000000E+04    0.3687198926E+00    0.4228451952E+00    0.4475534327E-02    0.2598228901E+00    0.2344449378E+00
    0.4900000000E+04    0.3698837277E+00    0.4233542726E+00    0.4363422082E-02    0.2606586017E+00    0.2348078219E+00
    0.1000000000E+04    0.2862983378E+00    0.3814852957E+00    0.1092471280E-01    0.2013704368E+00    0.2090754884E+00
    0.3000000000E+04    0.3531984786E+00    0.4158835695E+00    0.5897036968E-02    0.2487322596E+00    0.2297529299E+00
    0.5000000000E+04    0.3704328165E+00    0.4235937998E+00    0.4310184712E-02    0.2610531611E+00    0.2349798946E+00
    0.7000000000E+04    0.3782556861E+00    0.4269567807E+00    0.3522113136E-02    0.2666992586E+00    0.2375139981E+00
    0.9000000000E+04    0.3827028650E+00    0.4288173209E+00    0.3039343928E-02    0.2699395343E+00    0.2390618263E+00
    0.1100000000E+05    0.3855639327E+00    0.4299845180E+00    0.2707398229E-02    0.2720439651E+00    0.2401291689E+00
    0.1300000000E+05    0.3875552438E+00    0.4307761880E+00    0.2462036316E-02    0.2735225681E+00    0.2409224449E+00
    0.1500000000E+05    0.3890189131E+00    0.4313424141E+00    0.2271507938E-02    0.2746196995E+00    0.2415427548E+00
    0.1700000000E+05    0.3901387558E+00    0.4317631847E+00    0.2118188132E-02    0.2754670694E+00    0.2420459137E+00
    0.1900000000E+05    0.3910222642E+00    0.4320849640E+00    0.1991441429E-02    0.2761419456E+00    0.2424654738E+00
    0.2100000000E+05    0.3917364542E+00    0.4323365445E+00    0.1884433641E-02    0.2766926536E+00    0.2428229342E+00
    0.2300000000E+05    0.3923252564E+00    0.4325366907E+00    0.1792552498E-02    0.2771509728E+00    0.2431327726E+00
    0.2500000000E+05    0.3928186565E+00    0.4326981359E+00    0.1712560464E-02    0.2775386634E+00    0.2434051344E+00
    0.2700000000E+05    0.3932378141E+00    0.4328298123E+00    0.1642110606E-02    0.2778711297E+00    0.2436473656E+00
    0.2900000000E+05    0.3935980834E+00    0.4329381618E+00    0.1579455285E-02    0.2781595847E+00    0.2438649315E+00
    0.3100000000E+05    0.3939108730E+00    0.4330279411E+00    0.1523263195E-02    0.2784123867E+00    0.2440619939E+00
    0.3300000000E+05    0.3941848350E+00    0.4331027337E+00    0.1472500213E-02    0.2786358943E+00    0.2442417847E+00
    0.3500000000E+05    0.3944266486E+00    0.4331652875E+00    0.1426349376E-02    0.2788350320E+00    0.2444068576E+00
    0.3700000000E+05    0.3946415510E+00    0.4332177420E+00    0.1384155660E-02    0.2790136732E+00    0.2445592610E+00
    0.3900000000E+05    0.3948337061E+00    0.4332617857E+00    0.1345386991E-02    0.2791749071E+00    0.2447006598E+00
    0.4100000000E+05    0.3950064651E+00    0.4332987678E+00    0.1309606121E-02    0.2793212282E+00    0.2448324234E+00
    0.4300000000E+05    0.3951625557E+00    0.4333297774E+00    0.1276449988E-02    0.2794546729E+00    0.2449556900E+00
    0.4500000000E+05    0.3953042197E+00    0.4333557029E+00    0.1245614301E-02    0.2795769204E+00    0.2450714149E+00
    0.4700000000E+05    0.3954333168E+00    0.4333772749E+00    0.1216841863E-02    0.2796893680E+00    0.2451804066E+00
    0.4900000000E+05    0.3955514022E+00    0.4333950993E+00    0.1189913612E-02    0.2797931880E+00    0.2452833547E+00
    0.1000000000E+05    0.3842738775E+00    0.4294618622E+00    0.2859651857E-02    0.2710926245E+00    0.2396390129E+00
    0.3000000000E+05    0.3937598185E+00    0.4329851259E+00    0.1550621848E-02    0.2782900057E+00    0.2439658053E+00
    0.5000000000E+05    0.3956067333E+00    0.4334027677E+00    0.1177081280E-02    0.2798421783E+00    0.2453327510E+00
    0.7000000000E+05    0.3963663571E+00    0.4334471460E+00    0.9830847696E-03    0.2805447950E+00    0.2461115666E+00
    0.9000000000E+05    0.3967699621E+00    0.4333940827E+00    0.8597491845E-03    0.2809549793E+00    0.2466479476E+00
    0.1100000000E+06    0.3970149574E+00    0.4333096589E+00    0.7726273156E-03    0.2812284276E+00    0.2470541759E+00
    0.1300000000E+06    0.3971763313E+00    0.4332155469E+00    0.7069430958E-03    0.2814262723E+00    0.2473798739E+00
    0.1500000000E+06    0.3972886164E+00    0.4331200443E+00    0.6551721390E-03    0.2815775909E+00    0.2476510919E+00
    0.1700000000E+06    0.3973698439E+00    0.4330265556E+00    0.6130289604E-03    0.2816980591E+00    0.2478831182E+00
    0.1900000000E+06    0.3974303063E+00    0.4329364670E+00    0.5778712098E-03    0.2817969125E+00    0.2480856567E+00
    0.2100000000E+06    0.3974762835E+00    0.4328502686E+00    0.5479699739E-03    0.2818799665E+00    0.2482652366E+00
    0.2300000000E+06    0.3975118111E+00    0.4327680366E+00    0.5221405101E-03    0.2819510770E+00    0.2484264532E+00
    0.2500000000E+06    0.3975395926E+00    0.4326896551E+00    0.4995403499E-03    0.2820129091E+00    0.2485726593E+00
    0.2700000000E+06    0.3975615014E+00    0.4326149235E+00    0.4795519548E-03    0.2820673683E+00    0.2487063733E+00
    0.2900000000E+06    0.3975788734E+00    0.4325436096E+00    0.4617110419E-03    0.2821158562E+00    0.2488295337E+00
    0.3100000000E+06    0.3975926841E+00    0.4324754759E+00    0.4456609664E-03    0.2821594287E+00    0.2489436638E+00
    0.3300000000E+06    0.3976036607E+00    0.4324102929E+00    0.4311226617E-03    0.2821988979E+00    0.2490499814E+00
    0.3500000000E+06    0.3976123551E+00    0.4323478450E+00    0.4178742354E-03    0.2822348997E+00    0.2491494753E+00
    0.3700000000E+06    0.3976191929E+00    0.4322879330E+00    0.4057367581E-03    0.2822679398E+00    0.2492429587E+00
    0.3900000000E+06    0.3976245066E+00    0.4322303740E+00    0.3945641408E-03    0.2822984260E+00    0.2493311089E+00
    0.4100000000E+06    0.3976285592E+00    0.4321750014E+00    0.3842357806E-03    0.2823266912E+00    0.2494144953E+00
    0.4300000000E+06    0.3976315612E+00    0.4321216634E+00    0.3746511223E-03    0.2823530101E+00    0.2494936012E+00
    0.4500000000E+06    0.3976336825E+00    0.4320702222E+00    0.3657255738E-03    0.2823776120E+00    0.2495688405E+00
    0.4700000000E+06    0.3976350616E+00    0.4320205521E+00    0.3573873930E-03    0.2824006893E+00    0.2496405701E+00
    0.4900000000E+06    0.3976358122E+00    0.4319725390E+00    0.3495752859E-03    0.2824224056E+00    0.2497090998E+00
    0.1000000000E+06    0.3969061725E+00    0.4333539488E+00    0.8128323895E-03    0.2811038537E+00    0.2468634315E+00
    0.3000000000E+06    0.3975861737E+00    0.4325091598E+00    0.4534811334E-03    0.2821382013E+00    0.2488876453E+00
    0.5000000000E+06    0.3976359819E+00    0.4319491208E+00    0.3458497424E-03    0.2824327978E+00    0.2497422506E+00
    0.7000000000E+06    0.3976224244E+00    0.4315468030E+00    0.2893280356E-03    0.2825944230E+00    0.2502881568E+00
    0.9000000000E+06    0.3975957548E+00    0.4312333210E+00    0.2532256543E-03    0.2827035798E+00    0.2506893862E+00
    0.1100000000E+07    0.3975666651E+00    0.4309764788E+00    0.2276606998E-03    0.2827852944E+00    0.2510065280E+00
    0.1300000000E+07    0.3975381563E+00    0.4307588666E+00    0.2083579203E-03    0.2828503226E+00    0.2512686847E+00
    0.1500000000E+07    0.3975111196E+00    0.4305700331E+00    0.1931292927E-03    0.2829042008E+00    0.2514920794E+00
    0.1700000000E+07    0.3974857599E+00    0.4304032170E+00    0.1807245718E-03    0.2829501308E+00    0.2516866807E+00
    0.1900000000E+07    0.3974620422E+00    0.4302537929E+00    0.1703711364E-03    0.2829901222E+00    0.2518590517E+00
    0.2100000000E+07    0.3974398504E+00    0.4301184569E+00    0.1615626225E-03    0.2830255146E+00    0.2520137423E+00
    0.2300000000E+07    0.3974190468E+00    0.4299947668E+00    0.1539516133E-03    0.2830572446E+00    0.2521540363E+00
    0.2500000000E+07    0.3973994962E+00    0.4298808660E+00    0.1472908248E-03    0.2830859909E+00    0.2522823808E+00
    0.2700000000E+07    0.3973810740E+00    0.4297753103E+00    0.1413988579E-03    0.2831122612E+00    0.2524006485E+00
    0.2900000000E+07    0.3973636686E+00    0.4296769535E+00    0.1361392484E-03    0.2831364446E+00    0.2525103041E+00
    0.3100000000E+07    0.3973471817E+00    0.4295848712E+00    0.1314071173E-03    0.2831588456E+00    0.2526125149E+00
    0.3300000000E+07    0.3973315267E+00    0.4294983065E+00    0.1271203654E-03    0.2831797072E+00    0.2527082259E+00
    0.3500000000E+07    0.3973166275E+00    0.4294166320E+00    0.1232136910E-03    0.2831992258E+00    0.2527982134E+00
    0.3700000000E+07    0.3973024175E+00    0.4293393219E+00    0.1196344207E-03    0.2832175629E+00    0.2528831222E+00
    0.3900000000E+07    0.3972888379E+00    0.4292659311E+00    0.1163395381E-03    0.2832348527E+00    0.2529634943E+00
    0.4100000000E+07    0.3972758367E+00    0.4291960791E+00    0.1132935238E-03    0.2832512076E+00    0.2530397892E+00
    0.4300000000E+07    0.3972633679E+00    0.4291294389E+00    0.1104667569E-03    0.2832667231E+00    0.2531124002E+00
    0.4500000000E+07    0.3972513906E+00    0.4290657264E+00    0.1078343153E-03    0.2832814809E+00    0.2531816661E+00
    0.4700000000E+07    0.3972398683E+00    0.4290046940E+00    0.1053750593E-03    0.2832955511E+00    0.2532478813E+00
    0.4900000000E+07    0.3972287683E+00    0.4289461241E+00    0.1030709259E-03    0.2833089948E+00    0.2533113028E+00
    0.1000000000E+07    0.3975812455E+00    0.4310991290E+00    0.2394642178E-03    0.2827470170E+00    0.2508562239E+00
    0.3000000000E+07    0.3973553161E+00    0.4296301788E+00    0.1337128323E-03    0.2831478515E+00    0.2525622765E+00
    0.5000000000E+07    0.3972233674E+00    0.4289177018E+00    0.1019720884E-03    0.2833154986E+00    0.2533420377E+00
    0.7000000000E+07    0.3971317500E+00    0.4284418563E+00    0.8530068809E-04    0.2834226669E+00    0.2538529177E+00
    0.9000000000E+07    0.3970616340E+00    0.4280837407E+00    0.7465211778E-04    0.2835015507E+00    0.2542334494E+00
    0.1100000000E+08    0.3970048500E+00    0.4277963712E+00    0.6711191621E-04    0.2835639921E+00    0.2545367811E+00
    0.1300000000E+08    0.3969571377E+00    0.4275562878E+00    0.6141896851E-04    0.2836156731E+00    0.2547890050E+00
    0.1500000000E+08    0.3969159972E+00    0.4273500675E+00    0.5692781417E-04    0.2836597613E+00    0.2550048812E+00
    0.1700000000E+08    0.3968798366E+00    0.4271693044E+00    0.5326963056E-04    0.2836982039E+00    0.2551935767E+00
    0.1900000000E+08    0.3968475802E+00    0.4270083827E+00    0.5021649643E-04    0.2837322838E+00    0.2553611761E+00
    0.2100000000E+08    0.3968184666E+00    0.4268633635E+00    0.4761903865E-04    0.2837628909E+00    0.2555119255E+00
    0.2300000000E+08    0.3967919376E+00    0.4267313768E+00    0.4537477464E-04    0.2837906679E+00    0.2556489056E+00
    0.2500000000E+08    0.3967675716E+00    0.4266102664E+00    0.4341076135E-04    0.2838160943E+00    0.2557744227E+00
    0.2700000000E+08    0.3967450422E+00    0.4264983712E+00    0.4167349163E-04    0.2838395370E+00    0.2558902482E+00
