  Pressure (Pa) 22mC5-400 (mol/kg) 3mC6-400 (mol/kg) 33mC5-400 (mol/kg) 23mC5-400 (mol/kg) C7-400 (mol/kg)
    0.1000000000E+01    0.1063099994E-02    0.5271925571E-02    0.1943524043E-03    0.3733366355E-03    0.1710958437E-02
    0.3000000000E+01    0.3174672077E-02    0.1549091885E-01    0.5716369726E-03    0.1114877378E-02    0.5027946383E-02
    0.5000000000E+01    0.5266973125E-02    0.2529862841E-01    0.9344358831E-03    0.1849656424E-02    0.8212078848E-02
    0.7000000000E+01    0.7340277846E-02    0.3471946819E-01    0.1283576865E-02    0.2577770136E-02    0.1127122965E-01
    0.9000000000E+01    0.9394855700E-02    0.4377595584E-01    0.1619823197E-02    0.3299313037E-02    0.1421266150E-01
    0.1100000000E+02    0.1143097102E-01    0.5248889334E-01    0.1943879920E-02    0.4014377851E-02    0.1704308419E-01
    0.1300000000E+02    0.1344888314E-01    0.6087752739E-01    0.2256399347E-02    0.4723055547E-02    0.1976870628E-01
    0.1500000000E+02    0.1544884650E-01    0.6895969211E-01    0.2557985958E-02    0.5425435380E-02    0.2239528103E-01
    0.1700000000E+02    0.1743111076E-01    0.7675193636E-01    0.2849200760E-02    0.6121604932E-02    0.2492814742E-01
    0.1900000000E+02    0.1939592095E-01    0.8426963744E-01    0.3130565178E-02    0.6811650149E-02    0.2737226680E-01
    0.2100000000E+02    0.2134351751E-01    0.9152710305E-01    0.3402564538E-02    0.7495655379E-02    0.2973225574E-01
    0.2300000000E+02    0.2327413645E-01    0.9853766267E-01    0.3665651186E-02    0.8173703411E-02    0.3201241545E-01
    0.2500000000E+02    0.2518800943E-01    0.1053137498E+00    0.3920247288E-02    0.8845875511E-02    0.3421675828E-01
    0.2700000000E+02    0.2708536387E-01    0.1118669761E+00    0.4166747354E-02    0.9512251451E-02    0.3634903161E-01
    0.2900000000E+02    0.2896642302E-01    0.1182081980E+00    0.4405520503E-02    0.1017290955E-01    0.3841273937E-01
    0.3100000000E+02    0.3083140609E-01    0.1243475773E+00    0.4636912520E-02    0.1082792671E-01    0.4041116147E-01
    0.3300000000E+02    0.3268052834E-01    0.1302946360E+00    0.4861247708E-02    0.1147737843E-01    0.4234737150E-01
    0.3500000000E+02    0.3451400111E-01    0.1360583056E+00    0.5078830566E-02    0.1212133886E-01    0.4422425265E-01
    0.3700000000E+02    0.3633203199E-01    0.1416469723E+00    0.5289947316E-02    0.1275988081E-01    0.4604451231E-01
    0.3900000000E+02    0.3813482485E-01    0.1470685180E+00    0.5494867287E-02    0.1339307581E-01    0.4781069519E-01
    0.4100000000E+02    0.3992257994E-01    0.1523303578E+00    0.5693844174E-02    0.1402099410E-01    0.4952519544E-01
    0.4300000000E+02    0.4169549398E-01    0.1574394740E+00    0.5887117188E-02    0.1464370468E-01    0.5119026762E-01
    0.4500000000E+02    0.4345376019E-01    0.1624024471E+00    0.6074912104E-02    0.1526127535E-01    0.5280803669E-01
    0.4700000000E+02    0.4519756844E-01    0.1672254843E+00    0.6257442218E-02    0.1587377271E-01    0.5438050726E-01
    0.4900000000E+02    0.4692710526E-01    0.1719144459E+00    0.6434909224E-02    0.1648126219E-01    0.5590957195E-01
    0.1000000000E+02    0.1041520485E-01    0.4817413074E-01    0.1783333315E-02    0.3657649478E-02    0.1564134977E-01
    0.3000000000E+02    0.2990091052E-01    0.1213025085E+00    0.4522118401E-02    0.1050111850E-01    0.3941991438E-01
    0.5000000000E+02    0.4778657929E-01    0.1742103906E+00    0.6521804118E-02    0.1678314911E-01    0.5665838984E-01
    0.7000000000E+02    0.6426988658E-01    0.2142853503E+00    0.8035261732E-02    0.2257308554E-01    0.6974197217E-01
    0.9000000000E+02    0.7951682801E-01    0.2457041717E+00    0.9207939732E-02    0.2792916022E-01    0.8002011754E-01
    0.1100000000E+03    0.9366781989E-01    0.2710067197E+00    0.1013050265E-01    0.3290063340E-01    0.8831397327E-01
    0.1300000000E+03    0.1068424472E+00    0.2918265888E+00    0.1086307449E-01    0.3752945837E-01    0.9515204368E-01
    0.1500000000E+03    0.1191431954E+00    0.3092624093E+00    0.1144751107E-01    0.4185159039E-01    0.1008900005E+00
    0.1700000000E+03    0.1306584101E+00    0.3240803864E+00    0.1191409871E-01    0.4589802470E-01    0.1057760639E+00
    0.1900000000E+03    0.1414646638E+00    0.3368312746E+00    0.1228544372E-01    0.4969562671E-01    0.1099887772E+00
    0.2100000000E+03    0.1516286642E+00    0.3479211890E+00    0.1257885083E-01    0.5326780127E-01    0.1136598840E+00
    0.2300000000E+03    0.1612088027E+00    0.3576562016E+00    0.1280784285E-01    0.5663503591E-01    0.1168887412E+00
    0.2500000000E+03    0.1702564209E+00    0.3662713881E+00    0.1298316899E-01    0.5981534506E-01    0.1197517106E+00
    0.2700000000E+03    0.1788168527E+00    0.3739503051E+00    0.1311349606E-01    0.6282463549E-01    0.1223084591E+00
    0.2900000000E+03    0.1869302860E+00    0.3808383852E+00    0.1320589572E-01    0.6567700874E-01    0.1246062929E+00
    0.3100000000E+03    0.1946324810E+00    0.3870523573E+00    0.1326619675E-01    0.6838501294E-01    0.1266832074E+00
    0.3300000000E+03    0.2019553705E+00    0.3926870034E+00    0.1329924506E-01    0.7095985349E-01    0.1285700750E+00
    0.3500000000E+03    0.2089275654E+00    0.3978200908E+00    0.1330909933E-01    0.7341157031E-01    0.1302922433E+00
    0.3700000000E+03    0.2155747814E+00    0.4025160312E+00    0.1329918074E-01    0.7574918762E-01    0.1318707208E+00
    0.3900000000E+03    0.2219202019E+00    0.4068286335E+00    0.1327238915E-01    0.7798084111E-01    0.1333230697E+00
    0.4100000000E+03    0.2279847869E+00    0.4108032018E+00    0.1323119447E-01    0.8011388641E-01    0.1346640865E+00
    0.4300000000E+03    0.2337875377E+00    0.4144781544E+00    0.1317770934E-01    0.8215499192E-01    0.1359063271E+00
    0.4500000000E+03    0.2393457243E+00    0.4178862858E+00    0.1311374753E-01    0.8411021864E-01    0.1370605165E+00
    0.4700000000E+03    0.2446750822E+00    0.4210557611E+00    0.1304087135E-01    0.8598508906E-01    0.1381358721E+00
    0.4900000000E+03    0.2497899817E+00    0.4240109058E+00    0.1296043030E-01    0.8778464674E-01    0.1391403600E+00
    0.1000000000E+03    0.8672140337E-01    0.2590021122E+00    0.9696192985E-02    0.3046019550E-01    0.8437695693E-01
    0.3000000000E+03    0.1908307091E+00    0.3840232616E+00    0.1323973521E-01    0.6704832739E-01    0.1256702897E+00
    0.5000000000E+03    0.2522711639E+00    0.4254148148E+00    0.1291774447E-01    0.8865764137E-01    0.1396182274E+00
    0.7000000000E+03    0.2933059758E+00    0.4461468827E+00    0.1187935605E-01    0.1031008488E+00    0.1467367211E+00
    0.9000000000E+03    0.3228127339E+00    0.4586201023E+00    0.1077472438E-01    0.1134940686E+00    0.1510974408E+00
    0.1100000000E+04    0.3451021025E+00    0.4669566614E+00    0.9766815440E-02    0.1213507533E+00    0.1540634803E+00
    0.1300000000E+04    0.3625482023E+00    0.4729238925E+00    0.8887729805E-02    0.1275046501E+00    0.1562231967E+00
    0.1500000000E+04    0.3765772097E+00    0.4774067481E+00    0.8131509185E-02    0.1324567297E+00    0.1578731230E+00
    0.1700000000E+04    0.3881018507E+00    0.4808977712E+00    0.7482286085E-02    0.1365276837E+00    0.1591793544E+00
    0.1900000000E+04    0.3977351300E+00    0.4836930604E+00    0.6923272957E-02    0.1399329478E+00    0.1602423650E+00
    0.2100000000E+04    0.4059047403E+00    0.4859814035E+00    0.6439479810E-02    0.1428228688E+00    0.1611266086E+00
    0.2300000000E+04    0.4129184590E+00    0.4878888907E+00    0.6018294056E-02    0.1453056657E+00    0.1618753939E+00
    0.2500000000E+04    0.4190035362E+00    0.4895029671E+00    0.5649350657E-02    0.1474612626E+00    0.1625189351E+00
    0.2700000000E+04    0.4243314531E+00    0.4908861956E+00    0.5324203489E-02    0.1493499844E+00    0.1630789764E+00
    0.2900000000E+04    0.4290340493E+00    0.4920845252E+00    0.5035978782E-02    0.1510182217E+00    0.1635715812E+00
    0.3100000000E+04    0.4332143472E+00    0.4931324664E+00    0.4779068930E-02    0.1525022339E+00    0.1640088836E+00
    0.3300000000E+04    0.4369540099E+00    0.4940564443E+00    0.4548879472E-02    0.1538307697E+00    0.1644002279E+00
    0.3500000000E+04    0.4403185952E+00    0.4948770365E+00    0.4341626095E-02    0.1550269138E+00    0.1647529321E+00
    0.3700000000E+04    0.4433613311E+00    0.4956105067E+00    0.4154173854E-02    0.1561094135E+00    0.1650728128E+00
    0.3900000000E+04    0.4461258780E+00    0.4962698795E+00    0.3983910437E-02    0.1570936503E+00    0.1653645538E+00
    0.4100000000E+04    0.4486483799E+00    0.4968657085E+00    0.3828646260E-02    0.1579923604E+00    0.1656319718E+00
    0.4300000000E+04    0.4509590112E+00    0.4974066363E+00    0.3686535538E-02    0.1588161792E+00    0.1658782093E+00
    0.4500000000E+04    0.4530831559E+00    0.4978998079E+00    0.3556013669E-02    0.1595740559E+00    0.1661058788E+00
    0.4700000000E+04    0.4550423196E+00    0.4983511822E+00    0.3435747336E-02    0.1602735738E+00    0.1663171707E+00
    0.4900000000E+04    0.4568548405E+00    0.4987657680E+00    0.3324594525E-02    0.1609212013E+00    0.1665139364E+00
    0.1000000000E+04    0.3346814448E+00    0.4631649271E+00    0.1025520714E-01    0.1176769205E+00    0.1527080933E+00
    0.3000000000E+04    0.4311839512E+00    0.4926254837E+00    0.4903917793E-02    0.1517813078E+00    0.1637965061E+00
    0.5000000000E+04    0.4577111149E+00    0.4989606163E+00    0.3272123065E-02    0.1612273217E+00    0.1666073737E+00
    0.7000000000E+04    0.4699900298E+00    0.5016798495E+00    0.2522459837E-02    0.1656321761E+00    0.1679963134E+00
    0.9000000000E+04    0.4770376791E+00    0.5031683164E+00    0.2093104730E-02    0.1681791315E+00    0.1688613650E+00
    0.1100000000E+05    0.4815990592E+00    0.5040941799E+00    0.1813498819E-02    0.1698397745E+00    0.1694687885E+00
    0.1300000000E+05    0.4847877365E+00    0.5047174638E+00    0.1615675386E-02    0.1710092484E+00    0.1699277517E+00
    0.1500000000E+05    0.4871398133E+00    0.5051601325E+00    0.1467438211E-02    0.1718782630E+00    0.1702920522E+00
    0.1700000000E+05    0.4889448846E+00    0.5054868399E+00    0.1351604433E-02    0.1725500942E+00    0.1705915914E+00
    0.1900000000E+05    0.4903729587E+00    0.5057349746E+00    0.1258168485E-02    0.1730855215E+00    0.1708444697E+00
    0.2100000000E+05    0.4915303408E+00    0.5059276148E+00    0.1180903704E-02    0.1735226444E+00    0.1710623661E+00
    0.2300000000E+05    0.4924868813E+00    0.5060797484E+00    0.1115726962E-02    0.1738865591E+00    0.1712531999E+00
    0.2500000000E+05    0.4932903509E+00    0.5062015134E+00    0.1059845252E-02    0.1741944717E+00    0.1714225582E+00
    0.2700000000E+05    0.4939745159E+00    0.5063000007E+00    0.1011280458E-02    0.1744585742E+00    0.1715745129E+00
    0.2900000000E+05    0.4945639136E+00    0.5063803100E+00    0.9685902147E-03    0.1746877482E+00    0.1717121130E+00
    0.3100000000E+05    0.4950768001E+00    0.5064461969E+00    0.9306964935E-03    0.1748886182E+00    0.1718376946E+00
    0.3300000000E+05    0.4955270369E+00    0.5065004835E+00    0.8967762879E-03    0.1750662265E+00    0.1719530826E+00
    0.3500000000E+05    0.4959253363E+00    0.5065453287E+00    0.8661896030E-03    0.1752244793E+00    0.1720597274E+00
    0.3700000000E+05    0.4962801068E+00    0.5065824093E+00    0.8384306670E-03    0.1753664506E+00    0.1721587989E+00
    0.3900000000E+05    0.4965980396E+00    0.5066130456E+00    0.8130940518E-03    0.1754945924E+00    0.1722512532E+00
    0.4100000000E+05    0.4968845257E+00    0.5066382900E+00    0.7898506274E-03    0.1756108853E+00    0.1723378806E+00
    0.4300000000E+05    0.4971439562E+00    0.5066589903E+00    0.7684301636E-03    0.1757169463E+00    0.1724193416E+00
    0.4500000000E+05    0.4973799437E+00    0.5066758365E+00    0.7486085206E-03    0.1758141092E+00    0.1724961929E+00
    0.4700000000E+05    0.4975954871E+00    0.5066893947E+00    0.7301980705E-03    0.1759034838E+00    0.1725689083E+00
    0.4900000000E+05    0.4977930965E+00    0.5067001334E+00    0.7130404319E-03    0.1759860015E+00    0.1726378934E+00
    0.1000000000E+05    0.4795395506E+00    0.5036804851E+00    0.1940077622E-02    0.1690884684E+00    0.1691885434E+00
    0.3000000000E+05    0.4948289684E+00    0.5064148617E+00    0.9491002201E-03    0.1747913751E+00    0.1717762819E+00
    0.5000000000E+05    0.4978858508E+00    0.5067045700E+00    0.7048885196E-03    0.1760249399E+00    0.1726710986E+00
    0.7000000000E+05    0.4991732485E+00    0.5067127049E+00    0.5834497645E-03    0.1765833825E+00    0.1732038012E+00
    0.9000000000E+05    0.4998744118E+00    0.5066510002E+00    0.5078305771E-03    0.1769093755E+00    0.1735808464E+00
    0.1100000000E+06    0.5003113928E+00    0.5065688222E+00    0.4550548461E-03    0.1771266832E+00    0.1738718818E+00
    0.1300000000E+06    0.5006074638E+00    0.5064818285E+00    0.4155750264E-03    0.1772839018E+00    0.1741085443E+00
    0.1500000000E+06    0.5008198224E+00    0.5063957345E+00    0.3846265856E-03    0.1774041449E+00    0.1743077998E+00
    0.1700000000E+06    0.5009785623E+00    0.5063127077E+00    0.3595336831E-03    0.1774998718E+00    0.1744797776E+00
    0.1900000000E+06    0.5011009944E+00    0.5062334986E+00    0.3386633146E-03    0.1775784230E+00    0.1746309993E+00
    0.2100000000E+06    0.5011977644E+00    0.5061582556E+00    0.3209553376E-03    0.1776444200E+00    0.1747659063E+00
    0.2300000000E+06    0.5012757684E+00    0.5060868672E+00    0.3056877538E-03    0.1777009272E+00    0.1748876570E+00
    0.2500000000E+06    0.5013396640E+00    0.5060191145E+00    0.2923496976E-03    0.1777500622E+00    0.1749985768E+00
    0.2700000000E+06    0.5013927062E+00    0.5059547420E+00    0.2805682250E-03    0.1777933392E+00    0.1751004263E+00
    0.2900000000E+06    0.5014372355E+00    0.5058934909E+00    0.2700639009E-03    0.1778318718E+00    0.1751945706E+00
    0.3100000000E+06    0.5014749764E+00    0.5058351139E+00    0.2606226921E-03    0.1778664991E+00    0.1752820888E+00
    0.3300000000E+06    0.5015072259E+00    0.5057793817E+00    0.2520775360E-03    0.1778978662E+00    0.1753638488E+00
    0.3500000000E+06    0.5015349776E+00    0.5057260847E+00    0.2442958808E-03    0.1779264785E+00    0.1754405589E+00
    0.3700000000E+06    0.5015590045E+00    0.5056750330E+00    0.2371710385E-03    0.1779527377E+00    0.1755128047E+00
    0.3900000000E+06    0.5015799167E+00    0.5056260551E+00    0.2306160454E-03    0.1779769678E+00    0.1755810756E+00
    0.4100000000E+06    0.5015982014E+00    0.5055789967E+00    0.2245592132E-03    0.1779994332E+00    0.1756457849E+00
    0.4300000000E+06    0.5016142526E+00    0.5055337183E+00    0.2189408476E-03    0.1780203523E+00    0.1757072848E+00
    0.4500000000E+06    0.5016283916E+00    0.5054900942E+00    0.2137107889E-03    0.1780399072E+00    0.1757658778E+00
    0.4700000000E+06    0.5016408830E+00    0.5054480110E+00    0.2088265413E-03    0.1780582507E+00    0.1758218256E+00
    0.4900000000E+06    0.5016519467E+00    0.5054073659E+00    0.2042518320E-03    0.1780755128E+00    0.1758753562E+00
    0.1000000000E+06    0.5001158948E+00    0.5066111268E+00    0.4793486524E-03    0.1770276866E+00    0.1737346453E+00
    0.3000000000E+06    0.5014568651E+00    0.5058639579E+00    0.2652217806E-03    0.1778496295E+00    0.1752390994E+00
    0.5000000000E+06    0.5016570018E+00    0.5053875530E+00    0.2020706390E-03    0.1780837736E+00    0.1759012785E+00
    0.7000000000E+06    0.5017151654E+00    0.5050481891E+00    0.1690112243E-03    0.1782122657E+00    0.1763305302E+00
    0.9000000000E+06    0.5017323278E+00    0.5047848109E+00    0.1479213818E-03    0.1782990634E+00    0.1766486084E+00
    0.1100000000E+07    0.5017336499E+00    0.5045695311E+00    0.1329963891E-03    0.1783640509E+00    0.1769013788E+00
    0.1300000000E+07    0.5017279317E+00    0.5043874226E+00    0.1217311098E-03    0.1784157748E+00    0.1771111344E+00
    0.1500000000E+07    0.5017188778E+00    0.5042295785E+00    0.1128452676E-03    0.1784586347E+00    0.1772904052E+00
    0.1700000000E+07    0.5017082387E+00    0.5040902592E+00    0.1056079734E-03    0.1784951754E+00    0.1774469378E+00
    0.1900000000E+07    0.5016969065E+00    0.5039655498E+00    0.9956783569E-04    0.1785269939E+00    0.1775858569E+00
    0.2100000000E+07    0.5016853585E+00    0.5038526599E+00    0.9442915084E-04    0.1785551555E+00    0.1777107291E+00
    0.2300000000E+07    0.5016738574E+00    0.5037495307E+00    0.8998910218E-04    0.1785804044E+00    0.1778241371E+00
    0.2500000000E+07    0.5016625485E+00    0.5036545992E+00    0.8610336453E-04    0.1786032803E+00    0.1779280108E+00
    0.2700000000E+07    0.5016515112E+00    0.5035666508E+00    0.8266608567E-04    0.1786241870E+00    0.1780238303E+00
    0.2900000000E+07    0.5016407858E+00    0.5034847230E+00    0.7959764591E-04    0.1786434336E+00    0.1781127561E+00
    0.3100000000E+07    0.5016303899E+00    0.5034080396E+00    0.7683686085E-04    0.1786612625E+00    0.1781957144E+00
    0.3300000000E+07    0.5016203273E+00    0.5033359661E+00    0.7433583956E-04    0.1786778667E+00    0.1782734565E+00
    0.3500000000E+07    0.5016105939E+00    0.5032679765E+00    0.7205649232E-04    0.1786934026E+00    0.1783466002E+00
    0.3700000000E+07    0.5016011803E+00    0.5032036303E+00    0.6996809707E-04    0.1787079986E+00    0.1784156597E+00
    0.3900000000E+07    0.5015920750E+00    0.5031425549E+00    0.6804556528E-04    0.1787217612E+00    0.1784810674E+00
    0.4100000000E+07    0.5015832647E+00    0.5030844320E+00    0.6626818150E-04    0.1787347801E+00    0.1785431905E+00
    0.4300000000E+07    0.5015747359E+00    0.5030289879E+00    0.6461867106E-04    0.1787471312E+00    0.1786023435E+00
    0.4500000000E+07    0.5015664748E+00    0.5029759851E+00    0.6308249954E-04    0.1787588793E+00    0.1786587977E+00
    0.4700000000E+07    0.5015584682E+00    0.5029252167E+00    0.6164733883E-04    0.1787700803E+00    0.1787127889E+00
    0.4900000000E+07    0.5015507030E+00    0.5028765009E+00    0.6030265500E-04    0.1787807828E+00    0.1787645233E+00
    0.1000000000E+07    0.5017342356E+00    0.5046722834E+00    0.1398865550E-03    0.1783336078E+00    0.1767814426E+00
    0.3000000000E+07    0.5016355462E+00    0.5034457683E+00    0.7818205408E-04    0.1786525122E+00    0.1781549307E+00
    0.5000000000E+07    0.5015469071E+00    0.5028528619E+00    0.5966135999E-04    0.1787859605E+00    0.1787896017E+00
    0.7000000000E+07    0.5014810355E+00    0.5024572129E+00    0.4993010830E-04    0.1788712853E+00    0.1792071172E+00
    0.9000000000E+07    0.5014291497E+00    0.5021595586E+00    0.4371247644E-04    0.1789340988E+00    0.1795188440E+00
    0.1100000000E+08    0.5013864481E+00    0.5019207468E+00    0.3930862268E-04    0.1789838239E+00    0.1797677330E+00
    0.1300000000E+08    0.5013501965E+00    0.5017212471E+00    0.3598289249E-04    0.1790249828E+00    0.1799749378E+00
    0.1500000000E+08    0.5013187122E+00    0.5015498921E+00    0.3335870371E-04    0.1790600966E+00    0.1801524518E+00
    0.1700000000E+08    0.5012908916E+00    0.5013996909E+00    0.3122084021E-04    0.1790907153E+00    0.1803077361E+00
    0.1900000000E+08    0.5012659727E+00    0.5012659749E+00    0.2943628574E-04    0.1791178601E+00    0.1804457502E+00
    0.2100000000E+08    0.5012434085E+00    0.5011454702E+00    0.2791785359E-04    0.1791422397E+00    0.1805699587E+00
    0.2300000000E+08    0.5012227928E+00    0.5010357916E+00    0.2660571889E-04    0.1791643656E+00    0.1806828775E+00
    0.2500000000E+08    0.5012038161E+00    0.5009351476E+00    0.2545729574E-04    0.1791846195E+00    0.1807863917E+00
    0.2700000000E+08    0.5011862372E+00    0.5008421579E+00    0.2444134204E-04    0.1792032936E+00    0.1808819504E+00
