  Pressure (Pa) 22mC5-400 (mol/kg) 3mC6-400 (mol/kg) 33mC5-400 (mol/kg) 23mC5-400 (mol/kg) C7-400 (mol/kg)
    0.1000000000E+01    0.1063041324E-02    0.4223111990E-02    0.3891194838E-03    0.2799870156E-03    0.1713207301E-02
    0.3000000000E+01    0.3174153466E-02    0.1244098740E-01    0.1146853472E-02    0.8360213620E-03    0.5047423818E-02
    0.5000000000E+01    0.5265558215E-02    0.2036797782E-01    0.1878415983E-02    0.1386869435E-02    0.8264184053E-02
    0.7000000000E+01    0.7337554047E-02    0.2801937738E-01    0.2585123519E-02    0.1932609765E-02    0.1136965391E-01
    0.9000000000E+01    0.9390433344E-02    0.3540942440E-01    0.3268202313E-02    0.2473319279E-02    0.1436957400E-01
    0.1100000000E+02    0.1142448254E-01    0.4255139101E-01    0.3928796046E-02    0.3009073341E-02    0.1726929566E-01
    0.1300000000E+02    0.1343998229E-01    0.4945766381E-01    0.4567972777E-02    0.3539945789E-02    0.2007381350E-01
    0.1500000000E+02    0.1543720758E-01    0.5613981651E-01    0.5186731193E-02    0.4066008976E-02    0.2278779461E-01
    0.1700000000E+02    0.1741642789E-01    0.6260867560E-01    0.5786006242E-02    0.4587333807E-02    0.2541560500E-01
    0.1900000000E+02    0.1937790736E-01    0.6887437972E-01    0.6366674226E-02    0.5103989774E-02    0.2796133356E-01
    0.2100000000E+02    0.2132190485E-01    0.7494643347E-01    0.6929557410E-02    0.5616044989E-02    0.3042881366E-01
    0.2300000000E+02    0.2324867413E-01    0.8083375624E-01    0.7475428208E-02    0.6123566223E-02    0.3282164287E-01
    0.2500000000E+02    0.2515846400E-01    0.8654472661E-01    0.8005012973E-02    0.6626618933E-02    0.3514320083E-01
    0.2700000000E+02    0.2705151838E-01    0.9208722272E-01    0.8518995456E-02    0.7125267299E-02    0.3739666548E-01
    0.2900000000E+02    0.2892807645E-01    0.9746865916E-01    0.9018019948E-02    0.7619574251E-02    0.3958502797E-01
    0.3100000000E+02    0.3078837275E-01    0.1026960206E+00    0.9502694152E-02    0.8109601503E-02    0.4171110613E-01
    0.3300000000E+02    0.3263263732E-01    0.1077758924E+00    0.9973591802E-02    0.8595409577E-02    0.4377755693E-01
    0.3500000000E+02    0.3446109578E-01    0.1127144889E+00    0.1043125506E-01    0.9077057838E-02    0.4578688774E-01
    0.3700000000E+02    0.3627396944E-01    0.1175176794E+00    0.1087619672E-01    0.9554604516E-02    0.4774146679E-01
    0.3900000000E+02    0.3807147541E-01    0.1221910112E+00    0.1130890221E-01    0.1002810674E-01    0.4964353264E-01
    0.4100000000E+02    0.3985382669E-01    0.1267397321E+00    0.1172983144E-01    0.1049762055E-01    0.5149520301E-01
    0.4300000000E+02    0.4162123229E-01    0.1311688098E+00    0.1213942052E-01    0.1096320093E-01    0.5329848277E-01
    0.4500000000E+02    0.4337389729E-01    0.1354829508E+00    0.1253808330E-01    0.1142490186E-01    0.5505527145E-01
    0.4700000000E+02    0.4511202295E-01    0.1396866171E+00    0.1292621284E-01    0.1188277627E-01    0.5676736998E-01
    0.4900000000E+02    0.4683580679E-01    0.1437840419E+00    0.1330418272E-01    0.1233687616E-01    0.5843648709E-01
    0.1000000000E+02    0.1040979403E-01    0.3901062373E-01    0.3601241362E-02    0.2741811091E-02    0.1583163946E-01
    0.3000000000E+02    0.2986024284E-01    0.1001011786E+00    0.9262114211E-02    0.7865119029E-02    0.4065568290E-01
    0.5000000000E+02    0.4769238125E-01    0.1457941777E+00    0.1348946950E-01    0.1256252663E-01    0.5925543783E-01
    0.7000000000E+02    0.6411637223E-01    0.1812952329E+00    0.1673961499E-01    0.1688933102E-01    0.7373159346E-01
    0.9000000000E+02    0.7930676712E-01    0.2096966726E+00    0.1928875573E-01    0.2089146047E-01    0.8533276930E-01
    0.1100000000E+03    0.9340974260E-01    0.2329518328E+00    0.2131547665E-01    0.2460737812E-01    0.9484814335E-01
    0.1300000000E+03    0.1065486490E+00    0.2523557040E+00    0.2294133804E-01    0.2806954163E-01    0.1028012166E+00
    0.1500000000E+03    0.1188283106E+00    0.2688010388E+00    0.2425253505E-01    0.3130553442E-01    0.1095530949E+00
    0.1700000000E+03    0.1303383923E+00    0.2829234770E+00    0.2531223306E-01    0.3433895137E-01    0.1153610350E+00
    0.1900000000E+03    0.1411560602E+00    0.2951880296E+00    0.2616798224E-01    0.3719009876E-01    0.1204133457E+00
    0.2100000000E+03    0.1513481013E+00    0.3059428303E+00    0.2685638102E-01    0.3987655205E-01    0.1248510875E+00
    0.2300000000E+03    0.1609726280E+00    0.3154537552E+00    0.2740612451E-01    0.4241360414E-01    0.1287820534E+00
    0.2500000000E+03    0.1700804564E+00    0.3239274129E+00    0.2784006428E-01    0.4481462816E-01    0.1322900561E+00
    0.2700000000E+03    0.1787162309E+00    0.3315268250E+00    0.2817664068E-01    0.4709137323E-01    0.1354412651E+00
    0.2900000000E+03    0.1869193465E+00    0.3383823720E+00    0.2843090379E-01    0.4925420720E-01    0.1382886317E+00
    0.3100000000E+03    0.1947247104E+00    0.3445995942E+00    0.2861525732E-01    0.5131231704E-01    0.1408750434E+00
    0.3300000000E+03    0.2021633745E+00    0.3502648547E+00    0.2874001111E-01    0.5327387518E-01    0.1432356153E+00
    0.3500000000E+03    0.2092630636E+00    0.3554495185E+00    0.2881379843E-01    0.5514617858E-01    0.1453993806E+00
    0.3700000000E+03    0.2160486187E+00    0.3602130818E+00    0.2884389596E-01    0.5693576526E-01    0.1473905581E+00
    0.3900000000E+03    0.2225423705E+00    0.3646055492E+00    0.2883647240E-01    0.5864851278E-01    0.1492295144E+00
    0.4100000000E+03    0.2287644572E+00    0.3686692595E+00    0.2879678404E-01    0.6028972155E-01    0.1509335039E+00
    0.4300000000E+03    0.2347330932E+00    0.3724403057E+00    0.2872933013E-01    0.6186418587E-01    0.1525172439E+00
    0.4500000000E+03    0.2404648002E+00    0.3759496491E+00    0.2863797764E-01    0.6337625454E-01    0.1539933662E+00
    0.4700000000E+03    0.2459746054E+00    0.3792240037E+00    0.2852606220E-01    0.6482988296E-01    0.1553727763E+00
    0.4900000000E+03    0.2512762111E+00    0.3822865429E+00    0.2839647052E-01    0.6622867800E-01    0.1566649395E+00
    0.1000000000E+03    0.8648599351E-01    0.2218748973E+00    0.2035879945E-01    0.2278304104E-01    0.9031373860E-01
    0.3000000000E+03    0.1908697229E+00    0.3415649815E+00    0.2853113125E-01    0.5029581983E-01    0.1396121023E+00
    0.5000000000E+03    0.2538528957E+00    0.3837447976E+00    0.2832584233E-01    0.6690855450E-01    0.1572809254E+00
    0.7000000000E+03    0.2969946190E+00    0.4055523441E+00    0.2644370252E-01    0.7829557076E-01    0.1665596334E+00
    0.9000000000E+03    0.3287390434E+00    0.4189583032E+00    0.2429853349E-01    0.8667980478E-01    0.1723488418E+00
    0.1100000000E+04    0.3531948827E+00    0.4280669089E+00    0.2227254350E-01    0.9314310365E-01    0.1763387702E+00
    0.1300000000E+04    0.3726531381E+00    0.4346746852E+00    0.2046256094E-01    0.9828882888E-01    0.1792734593E+00
    0.1500000000E+04    0.3885138253E+00    0.4396954256E+00    0.1887610500E-01    0.1024857711E+00    0.1815334299E+00
    0.1700000000E+04    0.4016898843E+00    0.4436442010E+00    0.1749302957E-01    0.1059744692E+00    0.1833343060E+00
    0.1900000000E+04    0.4128059989E+00    0.4468339607E+00    0.1628662194E-01    0.1089195495E+00    0.1848077761E+00
    0.2100000000E+04    0.4223057705E+00    0.4494660750E+00    0.1523090584E-01    0.1114379426E+00    0.1860390060E+00
    0.2300000000E+04    0.4305136586E+00    0.4516761290E+00    0.1430292636E-01    0.1136151928E+00    0.1870856238E+00
    0.2500000000E+04    0.4376727924E+00    0.4535588350E+00    0.1348317156E-01    0.1155154156E+00    0.1879880822E+00
    0.2700000000E+04    0.4439690861E+00    0.4551823998E+00    0.1275533023E-01    0.1171876487E+00    0.1887756529E+00
    0.2900000000E+04    0.4495471827E+00    0.4565972187E+00    0.1210585315E-01    0.1186700524E+00    0.1894700659E+00
    0.3100000000E+04    0.4545213133E+00    0.4578413507E+00    0.1152349744E-01    0.1199927699E+00    0.1900878089E+00
    0.3300000000E+04    0.4589828847E+00    0.4589440877E+00    0.1099891734E-01    0.1211799267E+00    0.1906416298E+00
    0.3500000000E+04    0.4630058968E+00    0.4599283491E+00    0.1052431805E-01    0.1222510582E+00    0.1911415487E+00
    0.3700000000E+04    0.4666508846E+00    0.4608123310E+00    0.1009317100E-01    0.1232221484E+00    0.1915955565E+00
    0.3900000000E+04    0.4699678357E+00    0.4616106672E+00    0.9699982775E-02    0.1241063992E+00    0.1920101084E+00
    0.4100000000E+04    0.4729983804E+00    0.4623352626E+00    0.9340108656E-02    0.1249148076E+00    0.1923904792E+00
    0.4300000000E+04    0.4757774596E+00    0.4629959037E+00    0.9009602402E-02    0.1256566055E+00    0.1927410238E+00
    0.4500000000E+04    0.4783346090E+00    0.4636007106E+00    0.8705095113E-02    0.1263395981E+00    0.1930653713E+00
    0.4700000000E+04    0.4806949589E+00    0.4641564787E+00    0.8423697272E-02    0.1269704281E+00    0.1933665719E+00
    0.4900000000E+04    0.4828800214E+00    0.4646689387E+00    0.8162919278E-02    0.1275547828E+00    0.1936472087E+00
    0.1000000000E+04    0.3417069395E+00    0.4239075842E+00    0.2326126302E-01    0.9010651375E-01    0.1745099155E+00
    0.3000000000E+04    0.4521035680E+00    0.4572386168E+00    0.1180690933E-01    0.1193497420E+00    0.1897876505E+00
    0.5000000000E+04    0.4839127093E+00    0.4649104786E+00    0.8039577893E-02    0.1278310892E+00    0.1937805172E+00
    0.7000000000E+04    0.4987386633E+00    0.4683373214E+00    0.6260260851E-02    0.1318100239E+00    0.1957638290E+00
    0.9000000000E+04    0.5072459779E+00    0.4702738553E+00    0.5226015977E-02    0.1341082614E+00    0.1969976128E+00
    0.1100000000E+05    0.5127415699E+00    0.4715130468E+00    0.4546093584E-02    0.1356027603E+00    0.1978608191E+00
    0.1300000000E+05    0.5165748975E+00    0.4723697689E+00    0.4061814849E-02    0.1366521788E+00    0.1985100218E+00
    0.1500000000E+05    0.5193966001E+00    0.4729941862E+00    0.3697092570E-02    0.1374298270E+00    0.1990227267E+00
    0.1700000000E+05    0.5215580380E+00    0.4734670612E+00    0.3410965527E-02    0.1380295040E+00    0.1994421232E+00
    0.1900000000E+05    0.5232652561E+00    0.4738357093E+00    0.3179423730E-02    0.1385063376E+00    0.1997943899E+00
    0.2100000000E+05    0.5246469120E+00    0.4741296883E+00    0.2987446315E-02    0.1388948274E+00    0.2000964266E+00
    0.2300000000E+05    0.5257874151E+00    0.4743684101E+00    0.2825140518E-02    0.1392176582E+00    0.2003596908E+00
    0.2500000000E+05    0.5267444048E+00    0.4745651461E+00    0.2685714529E-02    0.1394903552E+00    0.2005922615E+00
    0.2700000000E+05    0.5275585626E+00    0.4747292729E+00    0.2564342972E-02    0.1397239006E+00    0.2008000214E+00
    0.2900000000E+05    0.5282594096E+00    0.4748676009E+00    0.2457497717E-02    0.1399262814E+00    0.2009873705E+00
    0.3100000000E+05    0.5288688802E+00    0.4749851931E+00    0.2362535449E-02    0.1401034457E+00    0.2011576752E+00
    0.3300000000E+05    0.5294036083E+00    0.4750858899E+00    0.2277433813E-02    0.1402599142E+00    0.2013135621E+00
    0.3500000000E+05    0.5298764335E+00    0.4751726556E+00    0.2200617121E-02    0.1403991842E+00    0.2014571150E+00
    0.3700000000E+05    0.5302974232E+00    0.4752478135E+00    0.2130837971E-02    0.1405240043E+00    0.2015900120E+00
    0.3900000000E+05    0.5306745810E+00    0.4753132092E+00    0.2067094851E-02    0.1406365642E+00    0.2017136224E+00
    0.4100000000E+05    0.5310143484E+00    0.4753703268E+00    0.2008573543E-02    0.1407386307E+00    0.2018290761E+00
    0.4300000000E+05    0.5313219681E+00    0.4754203722E+00    0.1954604647E-02    0.1408316445E+00    0.2019373156E+00
    0.4500000000E+05    0.5316017496E+00    0.4754643353E+00    0.1904632253E-02    0.1409167929E+00    0.2020391340E+00
    0.4700000000E+05    0.5318572675E+00    0.4755030354E+00    0.1858190477E-02    0.1409950629E+00    0.2021352049E+00
    0.4900000000E+05    0.5320915118E+00    0.4755371566E+00    0.1814885639E-02    0.1410672817E+00    0.2022261043E+00
    0.1000000000E+05    0.5102617297E+00    0.4709552001E+00    0.4854544950E-02    0.1349271556E+00    0.1974630255E+00
    0.3000000000E+05    0.5285744237E+00    0.4749287250E+00    0.2408669782E-02    0.1400177052E+00    0.2010744746E+00
    0.5000000000E+05    0.5322014596E+00    0.4755526833E+00    0.1794302852E-02    0.1411013447E+00    0.2022697726E+00
    0.7000000000E+05    0.5337280868E+00    0.4757236854E+00    0.1487097374E-02    0.1415887190E+00    0.2029626375E+00
    0.9000000000E+05    0.5345613970E+00    0.4757597319E+00    0.1295274242E-02    0.1418721792E+00    0.2034441925E+00
    0.1100000000E+06    0.5350826121E+00    0.4757430501E+00    0.1161175833E-02    0.1420606817E+00    0.2038109338E+00
    0.1300000000E+06    0.5354373368E+00    0.4757030528E+00    0.1060749849E-02    0.1421968294E+00    0.2041060613E+00
    0.1500000000E+06    0.5356930646E+00    0.4756522977E+00    0.9819629183E-03    0.1423008259E+00    0.2043524611E+00
    0.1700000000E+06    0.5358852977E+00    0.4755967636E+00    0.9180446931E-03    0.1423835381E+00    0.2045636556E+00
    0.1900000000E+06    0.5360344620E+00    0.4755395020E+00    0.8648577878E-03    0.1424513571E+00    0.2047482735E+00
    0.2100000000E+06    0.5361531255E+00    0.4754821374E+00    0.8197133862E-03    0.1425083013E+00    0.2049121446E+00
    0.2300000000E+06    0.5362494360E+00    0.4754255503E+00    0.7807787506E-03    0.1425570320E+00    0.2050593863E+00
    0.2500000000E+06    0.5363289017E+00    0.4753702149E+00    0.7467561872E-03    0.1425993866E+00    0.2051930108E+00
    0.2700000000E+06    0.5363953765E+00    0.4753163748E+00    0.7166977998E-03    0.1426366778E+00    0.2053152866E+00
    0.2900000000E+06    0.5364516350E+00    0.4752641398E+00    0.6898930106E-03    0.1426698703E+00    0.2054279629E+00
    0.3100000000E+06    0.5364997242E+00    0.4752135415E+00    0.6657973235E-03    0.1426996904E+00    0.2055324168E+00
    0.3300000000E+06    0.5365411861E+00    0.4751645652E+00    0.6439855789E-03    0.1427266966E+00    0.2056297508E+00
    0.3500000000E+06    0.5365772034E+00    0.4751171692E+00    0.6241203361E-03    0.1427513257E+00    0.2057208612E+00
    0.3700000000E+06    0.5366086980E+00    0.4750712973E+00    0.6059299196E-03    0.1427739252E+00    0.2058064864E+00
    0.3900000000E+06    0.5366363986E+00    0.4750268852E+00    0.5891928250E-03    0.1427947748E+00    0.2058872413E+00
    0.4100000000E+06    0.5366608884E+00    0.4749838659E+00    0.5737264146E-03    0.1428141032E+00    0.2059636438E+00
    0.4300000000E+06    0.5366826393E+00    0.4749421717E+00    0.5593785767E-03    0.1428320989E+00    0.2060361338E+00
    0.4500000000E+06    0.5367020373E+00    0.4749017365E+00    0.5460214716E-03    0.1428489189E+00    0.2061050882E+00
    0.4700000000E+06    0.5367194009E+00    0.4748624966E+00    0.5335467743E-03    0.1428646953E+00    0.2061708320E+00
    0.4900000000E+06    0.5367349950E+00    0.4748243910E+00    0.5218620090E-03    0.1428795403E+00    0.2062336480E+00
    0.1000000000E+06    0.5348491650E+00    0.4757555414E+00    0.1222926000E-02    0.1419748533E+00    0.2036385298E+00
    0.3000000000E+06    0.5364765946E+00    0.4752386362E+00    0.6775354706E-03    0.1426851637E+00    0.2054811432E+00
    0.5000000000E+06    0.5367421993E+00    0.4748057455E+00    0.5162905693E-03    0.1428866438E+00    0.2062640365E+00
    0.7000000000E+06    0.5368322036E+00    0.4744801330E+00    0.4318309656E-03    0.1429971006E+00    0.2067645442E+00
    0.9000000000E+06    0.5368691843E+00    0.4742207824E+00    0.3779378114E-03    0.1430716851E+00    0.2071324351E+00
    0.1100000000E+07    0.5368844794E+00    0.4740054225E+00    0.3397935301E-03    0.1431275171E+00    0.2074231943E+00
    0.1300000000E+07    0.5368893795E+00    0.4738212634E+00    0.3110004391E-03    0.1431719492E+00    0.2076635047E+00
    0.1500000000E+07    0.5368888060E+00    0.4736603616E+00    0.2882880419E-03    0.1432087647E+00    0.2078682497E+00
    0.1700000000E+07    0.5368851827E+00    0.4735174614E+00    0.2697889249E-03    0.1432401509E+00    0.2080465769E+00
    0.1900000000E+07    0.5368798085E+00    0.4733889090E+00    0.2543496402E-03    0.1432674806E+00    0.2082045096E+00
    0.2100000000E+07    0.5368734231E+00    0.4732720623E+00    0.2412144996E-03    0.1432916689E+00    0.2083462237E+00
    0.2300000000E+07    0.5368664672E+00    0.4731649492E+00    0.2298651566E-03    0.1433133553E+00    0.2084747329E+00
    0.2500000000E+07    0.5368592119E+00    0.4730660586E+00    0.2199327332E-03    0.1433330036E+00    0.2085922832E+00
    0.2700000000E+07    0.5368518283E+00    0.4729742068E+00    0.2111466723E-03    0.1433509604E+00    0.2087005930E+00
    0.2900000000E+07    0.5368444257E+00    0.4728884497E+00    0.2033034598E-03    0.1433674916E+00    0.2088010064E+00
    0.3100000000E+07    0.5368370745E+00    0.4728080215E+00    0.1962466995E-03    0.1433828050E+00    0.2088945943E+00
    0.3300000000E+07    0.5368298201E+00    0.4727322928E+00    0.1898539726E-03    0.1433970666E+00    0.2089822239E+00
    0.3500000000E+07    0.5368226910E+00    0.4726607400E+00    0.1840279124E-03    0.1434104107E+00    0.2090646072E+00
    0.3700000000E+07    0.5368157050E+00    0.4725929226E+00    0.1786899848E-03    0.1434229476E+00    0.2091423357E+00
    0.3900000000E+07    0.5368088720E+00    0.4725284665E+00    0.1737760557E-03    0.1434347688E+00    0.2092159065E+00
    0.4100000000E+07    0.5368021971E+00    0.4724670514E+00    0.1692331696E-03    0.1434459512E+00    0.2092857411E+00
    0.4300000000E+07    0.5367956818E+00    0.4724084009E+00    0.1650171664E-03    0.1434565600E+00    0.2093522001E+00
    0.4500000000E+07    0.5367893252E+00    0.4723522746E+00    0.1610908910E-03    0.1434666510E+00    0.2094155942E+00
    0.4700000000E+07    0.5367831250E+00    0.4722984625E+00    0.1574228281E-03    0.1434762722E+00    0.2094761934E+00
    0.4900000000E+07    0.5367770776E+00    0.4722467796E+00    0.1539860490E-03    0.1434854652E+00    0.2095342334E+00
    0.1000000000E+07    0.5368786093E+00    0.4741085535E+00    0.3574033791E-03    0.1431013638E+00    0.2072853990E+00
    0.3000000000E+07    0.5368407404E+00    0.4728476116E+00    0.1996851000E-03    0.1433752893E+00    0.2088485952E+00
    0.5000000000E+07    0.5367741099E+00    0.4722216849E+00    0.1523470236E-03    0.1434899127E+00    0.2095623593E+00
    0.7000000000E+07    0.5367216476E+00    0.4718002443E+00    0.1274771168E-03    0.1435632058E+00    0.2100297962E+00
    0.9000000000E+07    0.5366793888E+00    0.4714816254E+00    0.1115884611E-03    0.1436171647E+00    0.2103778864E+00
    0.1100000000E+08    0.5366441907E+00    0.4712251737E+00    0.1003357454E-03    0.1436598821E+00    0.2106553179E+00
    0.1300000000E+08    0.5366140843E+00    0.4710104469E+00    0.9183849491E-04    0.1436952417E+00    0.2108859842E+00
    0.1500000000E+08    0.5365878023E+00    0.4708256920E+00    0.8513413785E-04    0.1437254089E+00    0.2110833974E+00
    0.1700000000E+08    0.5365644911E+00    0.4706635228E+00    0.7967259087E-04    0.1437517149E+00    0.2112559474E+00
    0.1900000000E+08    0.5365435515E+00    0.4705189906E+00    0.7511388481E-04    0.1437750370E+00    0.2114092023E+00
    0.2100000000E+08    0.5365245476E+00    0.4703886168E+00    0.7123519290E-04    0.1437959835E+00    0.2115470469E+00
    0.2300000000E+08    0.5365071531E+00    0.4702698617E+00    0.6788362412E-04    0.1438149941E+00    0.2116722998E+00
    0.2500000000E+08    0.5364911172E+00    0.4701608144E+00    0.6495034807E-04    0.1438323966E+00    0.2117870705E+00
    0.2700000000E+08    0.5364762436E+00    0.4700600005E+00    0.6235552671E-04    0.1438484420E+00    0.2118929793E+00
