  Pressure (Pa) 22mC5-400 (mol/kg) 3mC6-400 (mol/kg) 33mC5-400 (mol/kg) 23mC5-400 (mol/kg) C7-400 (mol/kg)
    0.1000000000E+01    0.1063174265E-02    0.2613178595E-02    0.2573403488E-03    0.2800220125E-03    0.1017744942E-01
    0.3000000000E+01    0.3175335788E-02    0.7551972147E-02    0.7470142239E-03    0.8363326133E-03    0.2941774164E-01
    0.5000000000E+01    0.5268803786E-02    0.1214127670E-01    0.1206306993E-02    0.1387723850E-02    0.4730319814E-01
    0.7000000000E+01    0.7343840810E-02    0.1641693500E-01    0.1638335402E-02    0.1934264797E-02    0.6397254537E-01
    0.9000000000E+01    0.9400704449E-02    0.2041004988E-01    0.2045792714E-02    0.2476023227E-02    0.7954617875E-01
    0.1100000000E+02    0.1143964745E-01    0.2414774264E-01    0.2431017881E-02    0.3013065637E-02    0.9412909442E-01
    0.1300000000E+02    0.1346091784E-01    0.2765377043E-01    0.2796051676E-02    0.3545457280E-02    0.1078132756E+00
    0.1500000000E+02    0.1546475902E-01    0.3094903210E-01    0.3142682549E-02    0.4073262194E-02    0.1206796488E+00
    0.1700000000E+02    0.1745140987E-01    0.3405198560E-01    0.3472484332E-02    0.4596543231E-02    0.1327996969E+00
    0.1900000000E+02    0.1942110487E-01    0.3697899416E-01    0.3786847419E-02    0.5115362082E-02    0.1442367984E+00
    0.2100000000E+02    0.2137407420E-01    0.3974461530E-01    0.4087004706E-02    0.5629779304E-02    0.1550473444E+00
    0.2300000000E+02    0.2331054381E-01    0.4236184319E-01    0.4374053276E-02    0.6139854348E-02    0.1652816764E+00
    0.2500000000E+02    0.2523073556E-01    0.4484231310E-01    0.4648972626E-02    0.6645645582E-02    0.1749848767E+00
    0.2700000000E+02    0.2713486726E-01    0.4719647446E-01    0.4912640045E-02    0.7147210316E-02    0.1841974376E+00
    0.2900000000E+02    0.2902315283E-01    0.4943373823E-01    0.5165843671E-02    0.7644604828E-02    0.1929558320E+00
    0.3100000000E+02    0.3089580230E-01    0.5156260276E-01    0.5409293596E-02    0.8137884381E-02    0.2012929996E+00
    0.3300000000E+02    0.3275302197E-01    0.5359076183E-01    0.5643631368E-02    0.8627103253E-02    0.2092387654E+00
    0.3500000000E+02    0.3459501448E-01    0.5552519769E-01    0.5869438144E-02    0.9112314756E-02    0.2168201991E+00
    0.3700000000E+02    0.3642197884E-01    0.5737226140E-01    0.6087241719E-02    0.9593571253E-02    0.2240619267E+00
    0.3900000000E+02    0.3823411058E-01    0.5913774267E-01    0.6297522589E-02    0.1007092419E-01    0.2309863999E+00
    0.4100000000E+02    0.4003160177E-01    0.6082693048E-01    0.6500719222E-02    0.1054442410E-01    0.2376141315E+00
    0.4300000000E+02    0.4181464114E-01    0.6244466612E-01    0.6697232638E-02    0.1101412063E-01    0.2439639000E+00
    0.4500000000E+02    0.4358341412E-01    0.6399538956E-01    0.6887430404E-02    0.1148006259E-01    0.2500529294E+00
    0.4700000000E+02    0.4533810292E-01    0.6548318022E-01    0.7071650130E-02    0.1194229790E-01    0.2558970470E+00
    0.4900000000E+02    0.4707888661E-01    0.6691179282E-01    0.7250202542E-02    0.1240087368E-01    0.2615108220E+00
    0.1000000000E+02    0.1042240042E-01    0.2230926677E-01    0.2241050361E-02    0.2745129827E-02    0.8695544714E-01
    0.3000000000E+02    0.2996141909E-01    0.5051122183E-01    0.5288746245E-02    0.7891755559E-02    0.1971751366E+00
    0.5000000000E+02    0.4794411916E-01    0.6760499979E-01    0.7337443927E-02    0.1262880375E-01    0.2642355704E+00
    0.7000000000E+02    0.6456012888E-01    0.7907403405E-01    0.8843763279E-02    0.1700616662E-01    0.3094003346E+00
    0.9000000000E+02    0.7996898555E-01    0.8730188743E-01    0.1000642276E-01    0.2106582026E-01    0.3419240756E+00
    0.1100000000E+03    0.9430587481E-01    0.9349171544E-01    0.1092869781E-01    0.2484333434E-01    0.3664841468E+00
    0.1300000000E+03    0.1076861100E+00    0.9831658410E-01    0.1167157234E-01    0.2836905051E-01    0.3857004221E+00
    0.1500000000E+03    0.1202086614E+00    0.1021824944E+00    0.1227462979E-01    0.3166901075E-01    0.4011552237E+00
    0.1700000000E+03    0.1319589621E+00    0.1053489175E+00    0.1276544023E-01    0.3476569546E-01    0.4138610705E+00
    0.1900000000E+03    0.1430111561E+00    0.1079894443E+00    0.1316424358E-01    0.3767861493E-01    0.4244962117E+00
    0.2100000000E+03    0.1534299140E+00    0.1102246098E+00    0.1348649428E-01    0.4042478702E-01    0.4335321940E+00
    0.2300000000E+03    0.1632719106E+00    0.1121407289E+00    0.1374434700E-01    0.4301912576E-01    0.4413071199E+00
    0.2500000000E+03    0.1725870332E+00    0.1138012379E+00    0.1394757844E-01    0.4547475940E-01    0.4480697921E+00
    0.2700000000E+03    0.1814193791E+00    0.1152538057E+00    0.1410418984E-01    0.4780329262E-01    0.4540074095E+00
    0.2900000000E+03    0.1898080803E+00    0.1165349465E+00    0.1422081864E-01    0.5001502379E-01    0.4592635497E+00
    0.3100000000E+03    0.1977879930E+00    0.1176731030E+00    0.1430303051E-01    0.5211912607E-01    0.4639501952E+00
    0.3300000000E+03    0.2053902733E+00    0.1186907598E+00    0.1435553312E-01    0.5412379912E-01    0.4681559847E+00
    0.3500000000E+03    0.2126428635E+00    0.1196059263E+00    0.1438233690E-01    0.5603639690E-01    0.4719520051E+00
    0.3700000000E+03    0.2195709027E+00    0.1204331969E+00    0.1438687860E-01    0.5786353574E-01    0.4753959388E+00
    0.3900000000E+03    0.2261970760E+00    0.1211845242E+00    0.1437211810E-01    0.5961118622E-01    0.4785350863E+00
    0.4100000000E+03    0.2325419124E+00    0.1218697905E+00    0.1434061549E-01    0.6128475160E-01    0.4814086064E+00
    0.4300000000E+03    0.2386240403E+00    0.1224972377E+00    0.1429459310E-01    0.6288913494E-01    0.4840491986E+00
    0.4500000000E+03    0.2444604069E+00    0.1230737937E+00    0.1423598625E-01    0.6442879696E-01    0.4864843851E+00
    0.4700000000E+03    0.2500664683E+00    0.1236053241E+00    0.1416648496E-01    0.6590780593E-01    0.4887374988E+00
    0.4900000000E+03    0.2554563534E+00    0.1240968288E+00    0.1408756858E-01    0.6732988087E-01    0.4908284523E+00
    0.1000000000E+03    0.8726379864E-01    0.9060116356E-01    0.1049313337E-01    0.2298783780E-01    0.3550034991E+00
    0.3000000000E+03    0.1938471074E+00    0.1171203727E+00    0.1426591445E-01    0.5107999485E-01    0.4616720498E+00
    0.5000000000E+03    0.2580743179E+00    0.1243289356E+00    0.1404499167E-01    0.6802064416E-01    0.4918185584E+00
    0.7000000000E+03    0.3017177348E+00    0.1276469835E+00    0.1294064174E-01    0.7954007900E-01    0.5062144291E+00
    0.9000000000E+03    0.3335508954E+00    0.1295337644E+00    0.1169905852E-01    0.8794792098E-01    0.5147012294E+00
    0.1100000000E+04    0.3578817042E+00    0.1307392424E+00    0.1053432640E-01    0.9437846725E-01    0.5203218074E+00
    0.1300000000E+04    0.3771110679E+00    0.1315686919E+00    0.9501342016E-02    0.9946403182E-01    0.5243311221E+00
    0.1500000000E+04    0.3926986492E+00    0.1321694615E+00    0.8603327656E-02    0.1035891253E+00    0.5273426765E+00
    0.1700000000E+04    0.4055894990E+00    0.1326212588E+00    0.7827331184E-02    0.1070027538E+00    0.5296925054E+00
    0.1900000000E+04    0.4164252710E+00    0.1329708894E+00    0.7156677806E-02    0.1098740214E+00    0.5315803694E+00
    0.2100000000E+04    0.4256581450E+00    0.1332476001E+00    0.6575313388E-02    0.1123221245E+00    0.5331326101E+00
    0.2300000000E+04    0.4336164881E+00    0.1334705782E+00    0.6069146659E-02    0.1144336417E+00    0.5344331146E+00
    0.2500000000E+04    0.4405447463E+00    0.1336529160E+00    0.5626270851E-02    0.1162730388E+00    0.5355398082E+00
    0.2700000000E+04    0.4466287384E+00    0.1338038411E+00    0.5236788914E-02    0.1178893315E+00    0.5364940028E+00
    0.2900000000E+04    0.4520122718E+00    0.1339300358E+00    0.4892525609E-02    0.1193204620E+00    0.5373259708E+00
    0.3100000000E+04    0.4568083872E+00    0.1340364524E+00    0.4586734813E-02    0.1205962615E+00    0.5380584126E+00
    0.3300000000E+04    0.4611071646E+00    0.1341268349E+00    0.4313839514E-02    0.1217405073E+00    0.5387086925E+00
    0.3500000000E+04    0.4649812634E+00    0.1342040630E+00    0.4069213513E-02    0.1227723825E+00    0.5392903248E+00
    0.3700000000E+04    0.4684899306E+00    0.1342703857E+00    0.3849002977E-02    0.1237075326E+00    0.5398139885E+00
    0.3900000000E+04    0.4716819510E+00    0.1343275832E+00    0.3649982395E-02    0.1245588432E+00    0.5402882367E+00
    0.4100000000E+04    0.4745978516E+00    0.1343770814E+00    0.3469438947E-02    0.1253370210E+00    0.5407200028E+00
    0.4300000000E+04    0.4772715721E+00    0.1344200352E+00    0.3305079784E-02    0.1260510344E+00    0.5411149676E+00
    0.4500000000E+04    0.4797317459E+00    0.1344573886E+00    0.3154957586E-02    0.1267084512E+00    0.5414778319E+00
    0.4700000000E+04    0.4820026940E+00    0.1344899206E+00    0.3017410649E-02    0.1273157011E+00    0.5418125196E+00
    0.4900000000E+04    0.4841052041E+00    0.1345182785E+00    0.2891014472E-02    0.1278782806E+00    0.5421223327E+00
    0.1000000000E+04    0.3464745849E+00    0.1301971225E+00    0.1110174311E-01    0.9136308298E-01    0.5177692435E+00
    0.3000000000E+04    0.4544776625E+00    0.1339854587E+00    0.4735194348E-02    0.1199761696E+00    0.5377034423E+00
    0.5000000000E+04    0.4850989794E+00    0.1345310653E+00    0.2831607803E-02    0.1281443224E+00    0.5422688030E+00
    0.7000000000E+04    0.4993822427E+00    0.1346621921E+00    0.2006048302E-02    0.1319800581E+00    0.5443911305E+00
    0.9000000000E+04    0.5076042240E+00    0.1346763970E+00    0.1560167033E-02    0.1342029618E+00    0.5456521275E+00
    0.1100000000E+05    0.5129334104E+00    0.1346476139E+00    0.1285076134E-02    0.1356535043E+00    0.5465039057E+00
    0.1300000000E+05    0.5166622729E+00    0.1346012851E+00    0.1099665835E-02    0.1366753153E+00    0.5471266550E+00
    0.1500000000E+05    0.5194147740E+00    0.1345478386E+00    0.9666117378E-03    0.1374346672E+00    0.5476070624E+00
    0.1700000000E+05    0.5215284858E+00    0.1344920148E+00    0.8665721568E-03    0.1380217201E+00    0.5479922960E+00
    0.1900000000E+05    0.5232017591E+00    0.1344361001E+00    0.7886049160E-03    0.1384895709E+00    0.5483103653E+00
    0.2100000000E+05    0.5245586903E+00    0.1343812236E+00    0.7260873994E-03    0.1388715146E+00    0.5485790280E+00
    0.2300000000E+05    0.5256808491E+00    0.1343279335E+00    0.6747908418E-03    0.1391894861E+00    0.5488101310E+00
    0.2500000000E+05    0.5266240346E+00    0.1342764738E+00    0.6318949143E-03    0.1394585245E+00    0.5490119065E+00
    0.2700000000E+05    0.5274276955E+00    0.1342269252E+00    0.5954495503E-03    0.1396892859E+00    0.5491902701E+00
    0.2900000000E+05    0.5281205021E+00    0.1341792800E+00    0.5640648361E-03    0.1398895329E+00    0.5493495925E+00
    0.3100000000E+05    0.5287237885E+00    0.1341334830E+00    0.5367240995E-03    0.1400650546E+00    0.5494931806E+00
    0.3300000000E+05    0.5292537550E+00    0.1340894551E+00    0.5126668592E-03    0.1402202572E+00    0.5496235873E+00
    0.3500000000E+05    0.5297229227E+00    0.1340471062E+00    0.4913130678E-03    0.1403585536E+00    0.5497428188E+00
    0.3700000000E+05    0.5301411211E+00    0.1340063430E+00    0.4722126531E-03    0.1404826296E+00    0.5498524761E+00
    0.3900000000E+05    0.5305161733E+00    0.1339670731E+00    0.4550110509E-03    0.1405946272E+00    0.5499538542E+00
    0.4100000000E+05    0.5308543829E+00    0.1339292076E+00    0.4394251309E-03    0.1406962765E+00    0.5500480133E+00
    0.4300000000E+05    0.5311608849E+00    0.1338926621E+00    0.4252260428E-03    0.1407889899E+00    0.5501358311E+00
    0.4500000000E+05    0.5314399046E+00    0.1338573575E+00    0.4122267733E-03    0.1408739323E+00    0.5502180412E+00
    0.4700000000E+05    0.5316949501E+00    0.1338232199E+00    0.4002729738E-03    0.1409520731E+00    0.5502952620E+00
    0.4900000000E+05    0.5319289582E+00    0.1337901807E+00    0.3892360993E-03    0.1410242255E+00    0.5503680192E+00
    0.1000000000E+05    0.5105265148E+00    0.1346652470E+00    0.1407878699E-02    0.1349971706E+00    0.5461146505E+00
    0.3000000000E+05    0.5284322224E+00    0.1341561550E+00    0.5499414641E-03    0.1399800820E+00    0.5494231789E+00
    0.5000000000E+05    0.5320388628E+00    0.1337740530E+00    0.3840270880E-03    0.1410582752E+00    0.5504028672E+00
    0.7000000000E+05    0.5335700838E+00    0.1334960617E+00    0.3090219781E-03    0.1415468357E+00    0.5509471857E+00
    0.9000000000E+05    0.5344111314E+00    0.1332788567E+00    0.2646572651E-03    0.1418323248E+00    0.5513168764E+00
    0.1100000000E+06    0.5349398886E+00    0.1331008547E+00    0.2346735972E-03    0.1420228103E+00    0.5515943839E+00
    0.1300000000E+06    0.5353013694E+00    0.1329501339E+00    0.2127308693E-03    0.1421607366E+00    0.5518155138E+00
    0.1500000000E+06    0.5355630422E+00    0.1328194674E+00    0.1958018517E-03    0.1422662991E+00    0.5519988283E+00
    0.1700000000E+06    0.5357605051E+00    0.1327041561E+00    0.1822408785E-03    0.1423503898E+00    0.5521551169E+00
    0.1900000000E+06    0.5359142941E+00    0.1326009760E+00    0.1710684644E-03    0.1424194282E+00    0.5522911765E+00
    0.2100000000E+06    0.5360370750E+00    0.1325076206E+00    0.1616612224E-03    0.1424774583E+00    0.5524115523E+00
    0.2300000000E+06    0.5361370768E+00    0.1324223836E+00    0.1536013866E-03    0.1425271627E+00    0.5525194268E+00
    0.2500000000E+06    0.5362198740E+00    0.1323439672E+00    0.1465972749E-03    0.1425703963E+00    0.5526171122E+00
    0.2700000000E+06    0.5362893738E+00    0.1322713617E+00    0.1404383288E-03    0.1426084857E+00    0.5527063390E+00
    0.2900000000E+06    0.5363483946E+00    0.1322037660E+00    0.1349682864E-03    0.1426424072E+00    0.5527884350E+00
    0.3100000000E+06    0.5363990189E+00    0.1321405339E+00    0.1300684438E-03    0.1426728965E+00    0.5528644405E+00
    0.3300000000E+06    0.5364428181E+00    0.1320811368E+00    0.1256468118E-03    0.1427005197E+00    0.5529351854E+00
    0.3500000000E+06    0.5364809995E+00    0.1320251363E+00    0.1216308644E-03    0.1427257201E+00    0.5530013420E+00
    0.3700000000E+06    0.5365145055E+00    0.1319721654E+00    0.1179625535E-03    0.1427488505E+00    0.5530634624E+00
    0.3900000000E+06    0.5365440819E+00    0.1319219133E+00    0.1145947994E-03    0.1427701954E+00    0.5531220053E+00
    0.4100000000E+06    0.5365703266E+00    0.1318741149E+00    0.1114889657E-03    0.1427899872E+00    0.5531773559E+00
    0.4300000000E+06    0.5365937243E+00    0.1318285418E+00    0.1086130110E-03    0.1428084177E+00    0.5532298407E+00
    0.4500000000E+06    0.5366146716E+00    0.1317849963E+00    0.1059401102E-03    0.1428256468E+00    0.5532797390E+00
    0.4700000000E+06    0.5366334963E+00    0.1317433059E+00    0.1034476132E-03    0.1428418091E+00    0.5533272911E+00
    0.4900000000E+06    0.5366504716E+00    0.1317033190E+00    0.1011162461E-03    0.1428570188E+00    0.5533727059E+00
    0.1000000000E+06    0.5347027552E+00    0.1331858484E+00    0.2483801569E-03    0.1419360122E+00    0.5514643285E+00
    0.3000000000E+06    0.5363746481E+00    0.1321716400E+00    0.1324533670E-03    0.1426580421E+00    0.5528271429E+00
    0.5000000000E+06    0.5366583388E+00    0.1316839221E+00    0.1000057310E-03    0.1428642974E+00    0.5533946695E+00
    0.7000000000E+06    0.5367587441E+00    0.1313599092E+00    0.8325515020E-04    0.1429775012E+00    0.5537558934E+00
    0.9000000000E+06    0.5368027263E+00    0.1311169607E+00    0.7264462396E-04    0.1430539349E+00    0.5540209178E+00
    0.1100000000E+07    0.5368231650E+00    0.1309225541E+00    0.6516913073E-04    0.1431111254E+00    0.5542301694E+00
    0.1300000000E+07    0.5368320603E+00    0.1307605027E+00    0.5954448872E-04    0.1431566125E+00    0.5544030059E+00
    0.1500000000E+07    0.5368347120E+00    0.1306215691E+00    0.5511853394E-04    0.1431942796E+00    0.5545501977E+00
    0.1700000000E+07    0.5368337673E+00    0.1304999814E+00    0.5152062257E-04    0.1432263729E+00    0.5546783539E+00
    0.1900000000E+07    0.5368306665E+00    0.1303918906E+00    0.4852262404E-04    0.1432543026E+00    0.5547918219E+00
    0.2100000000E+07    0.5368262441E+00    0.1302946017E+00    0.4597549265E-04    0.1432790088E+00    0.5548936134E+00
    0.2300000000E+07    0.5368210067E+00    0.1302061536E+00    0.4377722592E-04    0.1433011486E+00    0.5549859006E+00
    0.2500000000E+07    0.5368152735E+00    0.1301250751E+00    0.4185537222E-04    0.1433211983E+00    0.5550703017E+00
    0.2700000000E+07    0.5368092511E+00    0.1300502339E+00    0.4015687730E-04    0.1433395141E+00    0.5551480545E+00
    0.2900000000E+07    0.5368030757E+00    0.1299807402E+00    0.3864188974E-04    0.1433563687E+00    0.5552201268E+00
    0.3100000000E+07    0.5367968390E+00    0.1299158818E+00    0.3727982236E-04    0.1433719759E+00    0.5552872895E+00
    0.3300000000E+07    0.5367906029E+00    0.1298550799E+00    0.3604675951E-04    0.1433865059E+00    0.5553501670E+00
    0.3500000000E+07    0.5367844095E+00    0.1297978578E+00    0.3492369845E-04    0.1434000964E+00    0.5554092716E+00
    0.3700000000E+07    0.5367782871E+00    0.1297438180E+00    0.3389532564E-04    0.1434128608E+00    0.5554650290E+00
    0.3900000000E+07    0.5367722550E+00    0.1296926257E+00    0.3294914564E-04    0.1434248928E+00    0.5555177969E+00
    0.4100000000E+07    0.5367663254E+00    0.1296439966E+00    0.3207484868E-04    0.1434362714E+00    0.5555678785E+00
    0.4300000000E+07    0.5367605063E+00    0.1295976865E+00    0.3126384328E-04    0.1434470635E+00    0.5556155334E+00
    0.4500000000E+07    0.5367548020E+00    0.1295534847E+00    0.3050890539E-04    0.1434573261E+00    0.5556609850E+00
    0.4700000000E+07    0.5367492148E+00    0.1295112081E+00    0.2980391122E-04    0.1434671085E+00    0.5557044275E+00
    0.4900000000E+07    0.5367437449E+00    0.1294706962E+00    0.2914363110E-04    0.1434764534E+00    0.5557460304E+00
    0.1000000000E+07    0.5368149000E+00    0.1310149282E+00    0.6861684025E-04    0.1430843396E+00    0.5541310215E+00
    0.3000000000E+07    0.5367999606E+00    0.1299477705E+00    0.3794336833E-04    0.1433643168E+00    0.5552542799E+00
    0.5000000000E+07    0.5367410537E+00    0.1294510572E+00    0.2882882870E-04    0.1434809735E+00    0.5557661893E+00
    0.7000000000E+07    0.5366928835E+00    0.1291240925E+00    0.2405957234E-04    0.1435553937E+00    0.5561010389E+00
    0.9000000000E+07    0.5366534739E+00    0.1288800609E+00    0.2102043125E-04    0.1436100990E+00    0.5563501514E+00
    0.1100000000E+08    0.5366203538E+00    0.1286853414E+00    0.1887209616E-04    0.1436533594E+00    0.5565485289E+00
    0.1300000000E+08    0.5365918543E+00    0.1285233446E+00    0.1725224765E-04    0.1436891380E+00    0.5567133431E+00
    0.1500000000E+08    0.5365668659E+00    0.1283846558E+00    0.1597576222E-04    0.1437196417E+00    0.5568543021E+00
    0.1700000000E+08    0.5365446270E+00    0.1282634154E+00    0.1493700083E-04    0.1437462260E+00    0.5569774319E+00
    0.1900000000E+08    0.5365245963E+00    0.1281557276E+00    0.1407075403E-04    0.1437697835E+00    0.5570867309E+00
    0.2100000000E+08    0.5365063765E+00    0.1280588706E+00    0.1333432566E-04    0.1437909327E+00    0.5571849879E+00
    0.2300000000E+08    0.5364896679E+00    0.1279708678E+00    0.1269844650E-04    0.1438101202E+00    0.5572742255E+00
    0.2500000000E+08    0.5364742392E+00    0.1278902384E+00    0.1214229899E-04    0.1438276790E+00    0.5573559574E+00
    0.2700000000E+08    0.5364599084E+00    0.1278158444E+00    0.1165062237E-04    0.1438438639E+00    0.5574313459E+00
