  Pressure (Pa) 22mC5-400 (mol/kg) 3mC6-400 (mol/kg) 33mC5-400 (mol/kg) 23mC5-400 (mol/kg) C7-400 (mol/kg)
    0.1000000000E+01    0.1062158219E-02    0.1590083143E-02    0.2601120685E-03    0.9325154887E-03    0.1720114448E-02
    0.3000000000E+01    0.3166292333E-02    0.4721483137E-02    0.7706448693E-03    0.2779842930E-02    0.5107833341E-02
    0.5000000000E+01    0.5243958738E-02    0.7789520820E-02    0.1268583357E-02    0.4603953316E-02    0.8427322928E-02
    0.7000000000E+01    0.7295675661E-02    0.1079611691E-01    0.1754307237E-02    0.6405301112E-02    0.1168064823E-01
    0.9000000000E+01    0.9321947755E-02    0.1374311509E-01    0.2228181716E-02    0.8184328876E-02    0.1486979152E-01
    0.1100000000E+02    0.1132326654E-01    0.1663228585E-01    0.2690558183E-02    0.9941467649E-02    0.1799665643E-01
    0.1300000000E+02    0.1330011081E-01    0.1946533008E-01    0.3141774862E-02    0.1167713733E-01    0.2106307184E-01
    0.1500000000E+02    0.1525294708E-01    0.2224388247E-01    0.3582157416E-02    0.1339174701E-01    0.2407079546E-01
    0.1700000000E+02    0.1718222993E-01    0.2496951468E-01    0.4012019526E-02    0.1508569537E-01    0.2702151732E-01
    0.1900000000E+02    0.1908840242E-01    0.2764373836E-01    0.4431663435E-02    0.1675937094E-01    0.2991686297E-01
    0.2100000000E+02    0.2097189641E-01    0.3026800798E-01    0.4841380463E-02    0.1841315246E-01    0.3275839654E-01
    0.2300000000E+02    0.2283313296E-01    0.3284372354E-01    0.5241451492E-02    0.2004740920E-01    0.3554762359E-01
    0.2500000000E+02    0.2467252264E-01    0.3537223307E-01    0.5632147427E-02    0.2166250122E-01    0.3828599386E-01
    0.2700000000E+02    0.2649046585E-01    0.3785483503E-01    0.6013729636E-02    0.2325877965E-01    0.4097490383E-01
    0.2900000000E+02    0.2828735313E-01    0.4029278055E-01    0.6386450359E-02    0.2483658701E-01    0.4361569913E-01
    0.3100000000E+02    0.3006356549E-01    0.4268727560E-01    0.6750553103E-02    0.2639625742E-01    0.4620967686E-01
    0.3300000000E+02    0.3181947467E-01    0.4503948301E-01    0.7106273013E-02    0.2793811691E-01    0.4875808773E-01
    0.3500000000E+02    0.3355544341E-01    0.4735052435E-01    0.7453837224E-02    0.2946248361E-01    0.5126213815E-01
    0.3700000000E+02    0.3527182577E-01    0.4962148177E-01    0.7793465198E-02    0.3096966801E-01    0.5372299214E-01
    0.3900000000E+02    0.3696896732E-01    0.5185339971E-01    0.8125369041E-02    0.3245997319E-01    0.5614177322E-01
    0.4100000000E+02    0.3864720546E-01    0.5404728655E-01    0.8449753805E-02    0.3393369505E-01    0.5851956612E-01
    0.4300000000E+02    0.4030686961E-01    0.5620411612E-01    0.8766817778E-02    0.3539112249E-01    0.6085741847E-01
    0.4500000000E+02    0.4194828147E-01    0.5832482919E-01    0.9076752754E-02    0.3683253766E-01    0.6315634237E-01
    0.4700000000E+02    0.4357175524E-01    0.6041033486E-01    0.9379744297E-02    0.3825821610E-01    0.6541731585E-01
    0.4900000000E+02    0.4517759784E-01    0.6246151188E-01    0.9675971986E-02    0.3966842699E-01    0.6764128434E-01
    0.1000000000E+02    0.1032569609E-01    0.1519482100E-01    0.2460785760E-02    0.9065607886E-02    0.1644089276E-01
    0.3000000000E+02    0.2917802023E-01    0.4149538572E-01    0.6569564090E-02    0.2561866877E-01    0.4491846096E-01
    0.5000000000E+02    0.4597400141E-01    0.6347449377E-01    0.9821603926E-02    0.4036781451E-01    0.6873967858E-01
    0.7000000000E+02    0.6104597535E-01    0.8212444114E-01    0.1241863069E-01    0.5360450648E-01    0.8897199887E-01
    0.9000000000E+02    0.7465741323E-01    0.9815466826E-01    0.1450649330E-01    0.6555981918E-01    0.1063788479E+00
    0.1100000000E+03    0.8701989367E-01    0.1120859078E+00    0.1619304078E-01    0.7641932163E-01    0.1215207676E+00
    0.1300000000E+03    0.9830530527E-01    0.1243090679E+00    0.1755954701E-01    0.8633377696E-01    0.1348186882E+00
    0.1500000000E+03    0.1086547685E+00    0.1351233571E+00    0.1866825626E-01    0.9542696568E-01    0.1465949014E+00
    0.1700000000E+03    0.1181852588E+00    0.1447617135E+00    0.1956750777E-01    0.1038014933E+00    0.1571003976E+00
    0.1900000000E+03    0.1269945911E+00    0.1534082144E+00    0.2029530089E-01    0.1115431614E+00    0.1665335829E+00
    0.2100000000E+03    0.1351652189E+00    0.1612102673E+00    0.2088182739E-01    0.1187242993E+00    0.1750533901E+00
    0.2300000000E+03    0.1427671641E+00    0.1682873228E+00    0.2135130360E-01    0.1254063327E+00    0.1827886508E+00
    0.2500000000E+03    0.1498602988E+00    0.1747372143E+00    0.2172331728E-01    0.1316417854E+00    0.1898449147E+00
    0.2700000000E+03    0.1564961425E+00    0.1806408459E+00    0.2201383236E-01    0.1374758550E+00    0.1963094947E+00
    0.2900000000E+03    0.1627192881E+00    0.1860657097E+00    0.2223594798E-01    0.1429476641E+00    0.2022552526E+00
    0.3100000000E+03    0.1685685453E+00    0.1910685608E+00    0.2240047874E-01    0.1480912623E+00    0.2077434778E+00
    0.3300000000E+03    0.1740778629E+00    0.1956974756E+00    0.2251640292E-01    0.1529364353E+00    0.2128261045E+00
    0.3500000000E+03    0.1792770790E+00    0.1999934538E+00    0.2259121199E-01    0.1575093633E+00    0.2175474360E+00
    0.3700000000E+03    0.1841925359E+00    0.2039916777E+00    0.2263118566E-01    0.1618331599E+00    0.2219455013E+00
    0.3900000000E+03    0.1888475865E+00    0.2077225114E+00    0.2264160998E-01    0.1659283164E+00    0.2260531315E+00
    0.4100000000E+03    0.1932630150E+00    0.2112123006E+00    0.2262695162E-01    0.1698130706E+00    0.2298988221E+00
    0.4300000000E+03    0.1974573870E+00    0.2144840180E+00    0.2259099804E-01    0.1735037141E+00    0.2335074277E+00
    0.4500000000E+03    0.2014473440E+00    0.2175577882E+00    0.2253697103E-01    0.1770148507E+00    0.2369007285E+00
    0.4700000000E+03    0.2052478514E+00    0.2204513169E+00    0.2246761914E-01    0.1803596136E+00    0.2400978928E+00
    0.4900000000E+03    0.2088724085E+00    0.2231802451E+00    0.2238529331E-01    0.1835498498E+00    0.2431158587E+00
    0.1000000000E+03    0.8098321761E-01    0.1053557106E+00    0.1539433193E-01    0.7111641149E-01    0.1142039064E+00
    0.3000000000E+03    0.1656884266E+00    0.1886166993E+00    0.2232481180E-01    0.1455585364E+00    0.2050531139E+00
    0.5000000000E+03    0.2106225680E+00    0.2244873806E+00    0.2233990670E-01    0.1850904101E+00    0.2445624047E+00
    0.7000000000E+03    0.2388153991E+00    0.2446466346E+00    0.2111089949E-01    0.2099191469E+00    0.2669665747E+00
    0.9000000000E+03    0.2582261308E+00    0.2576305968E+00    0.1973225393E-01    0.2270308873E+00    0.2815222129E+00
    0.1100000000E+04    0.2724158935E+00    0.2667216510E+00    0.1845599601E-01    0.2395524843E+00    0.2918002580E+00
    0.1300000000E+04    0.2832385806E+00    0.2734574556E+00    0.1733029137E-01    0.2491123203E+00    0.2994787803E+00
    0.1500000000E+04    0.2917606450E+00    0.2786565307E+00    0.1634922960E-01    0.2566474485E+00    0.3054537749E+00
    0.1700000000E+04    0.2986408639E+00    0.2827956679E+00    0.1549397299E-01    0.2627369121E+00    0.3102487297E+00
    0.1900000000E+04    0.3043086656E+00    0.2861718953E+00    0.1474475334E-01    0.2677582933E+00    0.3141907285E+00
    0.2100000000E+04    0.3090560665E+00    0.2889801497E+00    0.1408415749E-01    0.2719684400E+00    0.3174950589E+00
    0.2300000000E+04    0.3130885667E+00    0.2913538051E+00    0.1349769299E-01    0.2755481640E+00    0.3203094440E+00
    0.2500000000E+04    0.3165549550E+00    0.2933872766E+00    0.1297353679E-01    0.2786284231E+00    0.3227387547E+00
    0.2700000000E+04    0.3195655808E+00    0.2951493255E+00    0.1250209300E-01    0.2813063751E+00    0.3248595829E+00
    0.2900000000E+04    0.3222039903E+00    0.2966912483E+00    0.1207556102E-01    0.2836556033E+00    0.3267292266E+00
    0.3100000000E+04    0.3245345799E+00    0.2980521101E+00    0.1168756915E-01    0.2857328435E+00    0.3283914423E+00
    0.3300000000E+04    0.3266077710E+00    0.2992621981E+00    0.1133288005E-01    0.2875825342E+00    0.3298802479E+00
    0.3500000000E+04    0.3284635959E+00    0.3003453647E+00    0.1100715896E-01    0.2892399690E+00    0.3312225070E+00
    0.3700000000E+04    0.3301342344E+00    0.3013206565E+00    0.1070679272E-01    0.2907335281E+00    0.3324397288E+00
    0.3900000000E+04    0.3316458435E+00    0.3022034708E+00    0.1042874857E-01    0.2920862878E+00    0.3335493481E+00
    0.4100000000E+04    0.3330198991E+00    0.3030063929E+00    0.1017046377E-01    0.2933172011E+00    0.3345656538E+00
    0.4300000000E+04    0.3342741953E+00    0.3037398124E+00    0.9929758691E-02    0.2944419765E+00    0.3355004729E+00
    0.4500000000E+04    0.3354235984E+00    0.3044123834E+00    0.9704768239E-02    0.2954737427E+00    0.3363636832E+00
    0.4700000000E+04    0.3364806234E+00    0.3050313739E+00    0.9493887181E-02    0.2964235553E+00    0.3371636020E+00
    0.4900000000E+04    0.3374558797E+00    0.3056029335E+00    0.9295726393E-02    0.2973007899E+00    0.3379072850E+00
    0.1000000000E+04    0.2658325588E+00    0.2625427774E+00    0.1907617974E-01    0.2337415524E+00    0.2870651333E+00
    0.3000000000E+04    0.3234043319E+00    0.2973922449E+00    0.1187709850E-01    0.2847251986E+00    0.3275839435E+00
    0.5000000000E+04    0.3379157262E+00    0.3058725948E+00    0.9201032267E-02    0.2977147378E+00    0.3382599563E+00
    0.7000000000E+04    0.3444471470E+00    0.3097161926E+00    0.7750684050E-02    0.3036228080E+00    0.3434480435E+00
    0.9000000000E+04    0.3481417799E+00    0.3119017480E+00    0.6812463308E-02    0.3069999549E+00    0.3465973143E+00
    0.1100000000E+05    0.3505104090E+00    0.3133043119E+00    0.6143089355E-02    0.3091878003E+00    0.3487489563E+00
    0.1300000000E+05    0.3521544780E+00    0.3142751124E+00    0.5635007601E-02    0.3107223572E+00    0.3503315137E+00
    0.1500000000E+05    0.3533601487E+00    0.3149827787E+00    0.5232535597E-02    0.3118595596E+00    0.3515557119E+00
    0.1700000000E+05    0.3542807464E+00    0.3155184150E+00    0.4903618407E-02    0.3127370196E+00    0.3525380515E+00
    0.1900000000E+05    0.3550057374E+00    0.3159355664E+00    0.4628338909E-02    0.3134353172E+00    0.3533485527E+00
    0.2100000000E+05    0.3555907996E+00    0.3162677596E+00    0.4393587733E-02    0.3140047757E+00    0.3540320266E+00
    0.2300000000E+05    0.3560723760E+00    0.3165370513E+00    0.4190338615E-02    0.3144784491E+00    0.3546185907E+00
    0.2500000000E+05    0.3564753090E+00    0.3167585394E+00    0.4012147373E-02    0.3148789484E+00    0.3551292988E+00
    0.2700000000E+05    0.3568171084E+00    0.3169429013E+00    0.3854274244E-02    0.3152222667E+00    0.3555793512E+00
    0.2900000000E+05    0.3571104668E+00    0.3170978971E+00    0.3713145179E-02    0.3155200375E+00    0.3559800227E+00
    0.3100000000E+05    0.3573648063E+00    0.3172292984E+00    0.3586007542E-02    0.3157809272E+00    0.3563398695E+00
    0.3300000000E+05    0.3575872660E+00    0.3173414846E+00    0.3470702438E-02    0.3160115252E+00    0.3566655143E+00
    0.3500000000E+05    0.3577833530E+00    0.3174378363E+00    0.3365509669E-02    0.3162169324E+00    0.3569621712E+00
    0.3700000000E+05    0.3579573820E+00    0.3175210035E+00    0.3269039461E-02    0.3164011592E+00    0.3572340073E+00
    0.3900000000E+05    0.3581127809E+00    0.3175930909E+00    0.3180155147E-02    0.3165674031E+00    0.3574843975E+00
    0.4100000000E+05    0.3582523069E+00    0.3176557907E+00    0.3097916857E-02    0.3167182448E+00    0.3577161073E+00
    0.4300000000E+05    0.3583782024E+00    0.3177104779E+00    0.3021539802E-02    0.3168557906E+00    0.3579314271E+00
    0.4500000000E+05    0.3584923096E+00    0.3177582806E+00    0.2950362879E-02    0.3169817769E+00    0.3581322719E+00
    0.4700000000E+05    0.3585961555E+00    0.3178001325E+00    0.2883824697E-02    0.3170976482E+00    0.3583202566E+00
    0.4900000000E+05    0.3586910165E+00    0.3178368124E+00    0.2821445058E-02    0.3172046160E+00    0.3584967538E+00
    0.1000000000E+05    0.3494432748E+00    0.3126726088E+00    0.6452646909E-02    0.3081992945E+00    0.3477635374E+00
    0.3000000000E+05    0.3572420231E+00    0.3171662461E+00    0.3647974184E-02    0.3156546400E+00    0.3561645971E+00
    0.5000000000E+05    0.3587354204E+00    0.3178534216E+00    0.2791683200E-02    0.3172550873E+00    0.3585810686E+00
    0.7000000000E+05    0.3593411694E+00    0.3180288053E+00    0.2339106767E-02    0.3179786297E+00    0.3598773409E+00
    0.9000000000E+05    0.3596583907E+00    0.3180538798E+00    0.2049029793E-02    0.3184007545E+00    0.3607324463E+00
    0.1100000000E+06    0.3598479400E+00    0.3180214382E+00    0.1843169630E-02    0.3186820474E+00    0.3613591255E+00
    0.1300000000E+06    0.3599706321E+00    0.3179643521E+00    0.1687499610E-02    0.3188855096E+00    0.3618486060E+00
    0.1500000000E+06    0.3600543468E+00    0.3178964850E+00    0.1564549582E-02    0.3190410914E+00    0.3622475614E+00
    0.1700000000E+06    0.3601135771E+00    0.3178243363E+00    0.1464313572E-02    0.3191649328E+00    0.3625827761E+00
    0.1900000000E+06    0.3601565590E+00    0.3177511565E+00    0.1380596929E-02    0.3192665404E+00    0.3628709189E+00
    0.2100000000E+06    0.3601882947E+00    0.3176786282E+00    0.1309333914E-02    0.3193518987E+00    0.3631230098E+00
    0.2300000000E+06    0.3602119840E+00    0.3176076273E+00    0.1247731728E-02    0.3194249753E+00    0.3633466835E+00
    0.2500000000E+06    0.3602297603E+00    0.3175385947E+00    0.1193800558E-02    0.3194885117E+00    0.3635474311E+00
    0.2700000000E+06    0.3602430948E+00    0.3174717298E+00    0.1146079527E-02    0.3195444680E+00    0.3637293243E+00
    0.2900000000E+06    0.3602530311E+00    0.3174070949E+00    0.1103468850E-02    0.3195942857E+00    0.3638954600E+00
    0.3100000000E+06    0.3602603275E+00    0.3173446749E+00    0.1065122768E-02    0.3196390507E+00    0.3640482449E+00
    0.3300000000E+06    0.3602655463E+00    0.3172844107E+00    0.1030378858E-02    0.3196795980E+00    0.3641895840E+00
    0.3500000000E+06    0.3602691117E+00    0.3172262200E+00    0.9987099788E-03    0.3197165816E+00    0.3643210094E+00
    0.3700000000E+06    0.3602713490E+00    0.3171700089E+00    0.9696907468E-03    0.3197505213E+00    0.3644437705E+00
    0.3900000000E+06    0.3602725107E+00    0.3171156793E+00    0.9429736339E-03    0.3197818364E+00    0.3645588988E+00
    0.4100000000E+06    0.3602727956E+00    0.3170631331E+00    0.9182715801E-03    0.3198108691E+00    0.3646672552E+00
    0.4300000000E+06    0.3602723615E+00    0.3170122749E+00    0.8953451247E-03    0.3198379019E+00    0.3647695652E+00
    0.4500000000E+06    0.3602713349E+00    0.3169630132E+00    0.8739927312E-03    0.3198631702E+00    0.3648664459E+00
    0.4700000000E+06    0.3602698184E+00    0.3169152614E+00    0.8540434099E-03    0.3198868721E+00    0.3649584257E+00
    0.4900000000E+06    0.3602678954E+00    0.3168689378E+00    0.8353510208E-03    0.3199091756E+00    0.3650459610E+00
    0.1000000000E+06    0.3597641606E+00    0.3180421132E+00    0.1938261821E-02    0.3185539113E+00    0.3610671165E+00
    0.3000000000E+06    0.3602569704E+00    0.3173756110E+00    0.1083807783E-02    0.3196172426E+00    0.3639733922E+00
    0.5000000000E+06    0.3602668035E+00    0.3168462874E+00    0.8264361860E-03    0.3199198485E+00    0.3650881879E+00
    0.7000000000E+06    0.3602351437E+00    0.3164522188E+00    0.6911498947E-03    0.3200858255E+00    0.3657731332E+00
    0.9000000000E+06    0.3601978944E+00    0.3161399651E+00    0.6047149908E-03    0.3201979061E+00    0.3662651476E+00
    0.1100000000E+07    0.3601617444E+00    0.3158815366E+00    0.5435055214E-03    0.3202818023E+00    0.3666480309E+00
    0.1300000000E+07    0.3601281227E+00    0.3156610778E+00    0.4972912790E-03    0.3203485628E+00    0.3669609122E+00
    0.1500000000E+07    0.3600971724E+00    0.3154688166E+00    0.4608341713E-03    0.3204038739E+00    0.3672251604E+00
    0.1700000000E+07    0.3600686952E+00    0.3152983204E+00    0.4311403509E-03    0.3204510239E+00    0.3674536984E+00
    0.1900000000E+07    0.3600424183E+00    0.3151451337E+00    0.4063594099E-03    0.3204920764E+00    0.3676549258E+00
    0.2100000000E+07    0.3600180754E+00    0.3150060438E+00    0.3852785139E-03    0.3205284073E+00    0.3678346043E+00
    0.2300000000E+07    0.3599954295E+00    0.3148786582E+00    0.3670654984E-03    0.3205609780E+00    0.3679968549E+00
    0.2500000000E+07    0.3599742767E+00    0.3147611472E+00    0.3511280359E-03    0.3205904857E+00    0.3681447250E+00
    0.2700000000E+07    0.3599544431E+00    0.3146520798E+00    0.3370316152E-03    0.3206174515E+00    0.3682805309E+00
    0.2900000000E+07    0.3599357811E+00    0.3145503161E+00    0.3244493643E-03    0.3206422748E+00    0.3684060732E+00
    0.3100000000E+07    0.3599181648E+00    0.3144549330E+00    0.3131300729E-03    0.3206652685E+00    0.3685227796E+00
    0.3300000000E+07    0.3599014867E+00    0.3143651723E+00    0.3028770999E-03    0.3206866818E+00    0.3686318002E+00
    0.3500000000E+07    0.3598856544E+00    0.3142804040E+00    0.2935340424E-03    0.3207067165E+00    0.3687340757E+00
    0.3700000000E+07    0.3598705881E+00    0.3142000983E+00    0.2849747487E-03    0.3207255384E+00    0.3688303843E+00
    0.3900000000E+07    0.3598562184E+00    0.3141238061E+00    0.2770961991E-03    0.3207432852E+00    0.3689213779E+00
    0.4100000000E+07    0.3598424848E+00    0.3140511428E+00    0.2698133322E-03    0.3207600724E+00    0.3690076073E+00
    0.4300000000E+07    0.3598293341E+00    0.3139817768E+00    0.2630552162E-03    0.3207759979E+00    0.3690895423E+00
    0.4500000000E+07    0.3598167194E+00    0.3139154199E+00    0.2567621727E-03    0.3207911456E+00    0.3691675868E+00
    0.4700000000E+07    0.3598045994E+00    0.3138518206E+00    0.2508835840E-03    0.3208055876E+00    0.3692420904E+00
    0.4900000000E+07    0.3597929369E+00    0.3137907573E+00    0.2453762010E-03    0.3208193864E+00    0.3693133579E+00
    0.1000000000E+07    0.3601795421E+00    0.3160052036E+00    0.5717662732E-03    0.3202425037E+00    0.3664671936E+00
    0.3000000000E+07    0.3599268493E+00    0.3145018778E+00    0.3186452239E-03    0.3206539835E+00    0.3684654534E+00
    0.5000000000E+07    0.3597872669E+00    0.3137611147E+00    0.2427498796E-03    0.3208260620E+00    0.3693478629E+00
    0.7000000000E+07    0.3596914677E+00    0.3132639387E+00    0.2029160783E-03    0.3209360609E+00    0.3699185391E+00
    0.9000000000E+07    0.3596185331E+00    0.3128888218E+00    0.1774870067E-03    0.3210170282E+00    0.3703404224E+00
    0.1100000000E+08    0.3595596433E+00    0.3125873404E+00    0.1594888157E-03    0.3210811191E+00    0.3706750030E+00
    0.1300000000E+08    0.3595102585E+00    0.3123352012E+00    0.1459050139E-03    0.3211341658E+00    0.3709521628E+00
    0.1500000000E+08    0.3594677345E+00    0.3121184610E+00    0.1351922147E-03    0.3211794195E+00    0.3711886840E+00
    0.1700000000E+08    0.3594303966E+00    0.3119283683E+00    0.1264687638E-03    0.3212188788E+00    0.3713949325E+00
    0.1900000000E+08    0.3593971164E+00    0.3117590665E+00    0.1191899634E-03    0.3212538604E+00    0.3715777589E+00
    0.2100000000E+08    0.3593670981E+00    0.3116064421E+00    0.1129989156E-03    0.3212852777E+00    0.3717419266E+00
    0.2300000000E+08    0.3593397591E+00    0.3114674947E+00    0.1076508089E-03    0.3213137903E+00    0.3718908813E+00
    0.2500000000E+08    0.3593146600E+00    0.3113399679E+00    0.1029714292E-03    0.3213398902E+00    0.3720271957E+00
    0.2700000000E+08    0.3592914615E+00    0.3112221222E+00    0.9883300450E-04    0.3213639542E+00    0.3721528415E+00
