  Pressure (Pa) 22mC5-400 (mol/kg) 3mC6-400 (mol/kg) 33mC5-400 (mol/kg) 23mC5-400 (mol/kg) C7-400 (mol/kg)
    0.1000000000E+01    0.1063261327E-02    0.2091672022E-02    0.4505829028E-03    0.9334829996E-04    0.1018291767E-01
    0.3000000000E+01    0.3176116141E-02    0.6051043640E-02    0.1309274279E-02    0.2788459191E-03    0.2946358860E-01
    0.5000000000E+01    0.5270962578E-02    0.9737576791E-02    0.2116251609E-02    0.4627637895E-03    0.4742214235E-01
    0.7000000000E+01    0.7348054789E-02    0.1317860161E-01    0.2876707926E-02    0.6451242017E-03    0.6419080464E-01
    0.9000000000E+01    0.9407642072E-02    0.1639791353E-01    0.3595146058E-02    0.8259490204E-03    0.7988471337E-01
    0.1100000000E+02    0.1144996899E-01    0.1941632687E-01    0.4275488978E-02    0.1005259695E-02    0.9460459367E-01
    0.1300000000E+02    0.1347527547E-01    0.2225212756E-01    0.4921169772E-02    0.1183077269E-02    0.1084389456E+00
    0.1500000000E+02    0.1548379694E-01    0.2492144585E-01    0.5535205469E-02    0.1359422389E-02    0.1214658452E+00
    0.1700000000E+02    0.1747576440E-01    0.2743856489E-01    0.6120257995E-02    0.1534315316E-02    0.1337544359E+00
    0.1900000000E+02    0.1945140453E-01    0.2981617782E-01    0.6678684787E-02    0.1707775932E-02    0.1453661714E+00
    0.2100000000E+02    0.2141093984E-01    0.3206560312E-01    0.7212581046E-02    0.1879823751E-02    0.1563558563E+00
    0.2300000000E+02    0.2335458868E-01    0.3419696584E-01    0.7723815197E-02    0.2050477926E-02    0.1667725223E+00
    0.2500000000E+02    0.2528256541E-01    0.3621935087E-01    0.8214058773E-02    0.2219757255E-02    0.1766601690E+00
    0.2700000000E+02    0.2719508046E-01    0.3814093326E-01    0.8684811740E-02    0.2387680195E-02    0.1860583943E+00
    0.2900000000E+02    0.2909234042E-01    0.3996908934E-01    0.9137424026E-02    0.2554264866E-02    0.1950029314E+00
    0.3100000000E+02    0.3097454812E-01    0.4171049200E-01    0.9573113912E-02    0.2719529057E-02    0.2035261095E+00
    0.3300000000E+02    0.3284190274E-01    0.4337119263E-01    0.9992983799E-02    0.2883490238E-02    0.2116572503E+00
    0.3500000000E+02    0.3469459987E-01    0.4495669183E-01    0.1039803378E-01    0.3046165562E-02    0.2194230097E+00
    0.3700000000E+02    0.3653283159E-01    0.4647200074E-01    0.1078917334E-01    0.3207571878E-02    0.2268476745E+00
    0.3900000000E+02    0.3835678656E-01    0.4792169433E-01    0.1116723155E-01    0.3367725732E-02    0.2339534201E+00
    0.4100000000E+02    0.4016665010E-01    0.4930995784E-01    0.1153296582E-01    0.3526643378E-02    0.2407605354E+00
    0.4300000000E+02    0.4196260424E-01    0.5064062747E-01    0.1188706965E-01    0.3684340781E-02    0.2472876193E+00
    0.4500000000E+02    0.4374482780E-01    0.5191722601E-01    0.1223017935E-01    0.3840833626E-02    0.2535517532E+00
    0.4700000000E+02    0.4551349650E-01    0.5314299427E-01    0.1256287991E-01    0.3996137324E-02    0.2595686530E+00
    0.4900000000E+02    0.4726878295E-01    0.5432091870E-01    0.1288571020E-01    0.4150267015E-02    0.2653528030E+00
    0.1000000000E+02    0.1043094797E-01    0.1793103511E-01    0.3939854305E-02    0.9157923010E-03    0.8736061208E-01
    0.3000000000E+02    0.3003531327E-01    0.4085024295E-01    0.9357312822E-02    0.2637060922E-02    0.1993152915E+00
    0.5000000000E+02    0.4814146096E-01    0.5489280930E-01    0.1304358093E-01    0.4226896268E-02    0.2681618158E+00
    0.7000000000E+02    0.6493232062E-01    0.6438687073E-01    0.1578538917E-01    0.5701342701E-02    0.3148787321E+00
    0.9000000000E+02    0.8056152728E-01    0.7123820956E-01    0.1792829490E-01    0.7073875499E-02    0.3487146571E+00
    0.1100000000E+03    0.9515906078E-01    0.7641741033E-01    0.1965234795E-01    0.8355895381E-02    0.3743854573E+00
    0.1300000000E+03    0.1088356359E+00    0.8047107350E-01    0.2106369979E-01    0.9557113491E-02    0.3945501517E+00
    0.1500000000E+03    0.1216861532E+00    0.8373066722E-01    0.2223098913E-01    0.1068585403E-01    0.4108231615E+00
    0.1700000000E+03    0.1337924367E+00    0.8640895929E-01    0.2320180418E-01    0.1174929430E-01    0.4242420278E+00
    0.1900000000E+03    0.1452254227E+00    0.8864882681E-01    0.2401092744E-01    0.1275365671E-01    0.4355043202E+00
    0.2100000000E+03    0.1560469250E+00    0.9054980065E-01    0.2468482153E-01    0.1370436356E-01    0.4450965683E+00
    0.2300000000E+03    0.1663110678E+00    0.9218335987E-01    0.2524424515E-01    0.1460616267E-01    0.4533686028E+00
    0.2500000000E+03    0.1760654571E+00    0.9360217349E-01    0.2570587135E-01    0.1546323017E-01    0.4605785089E+00
    0.2700000000E+03    0.1853521445E+00    0.9484591227E-01    0.2608334042E-01    0.1627925502E-01    0.4669209154E+00
    0.2900000000E+03    0.1942084250E+00    0.9594502960E-01    0.2638797528E-01    0.1705750892E-01    0.4725454122E+00
    0.3100000000E+03    0.2026675011E+00    0.9692329434E-01    0.2662928576E-01    0.1780090465E-01    0.4775688970E+00
    0.3300000000E+03    0.2107590382E+00    0.9779953144E-01    0.2681533547E-01    0.1851204470E-01    0.4820840657E+00
    0.3500000000E+03    0.2185096325E+00    0.9858884508E-01    0.2695301598E-01    0.1919326234E-01    0.4861653838E+00
    0.3700000000E+03    0.2259432054E+00    0.9930349563E-01    0.2704825636E-01    0.1984665622E-01    0.4898733704E+00
    0.3900000000E+03    0.2330813391E+00    0.9995353950E-01    0.2710618643E-01    0.2047411982E-01    0.4932577261E+00
    0.4100000000E+03    0.2399435625E+00    0.1005473036E+00    0.2713126612E-01    0.2107736648E-01    0.4963596541E+00
    0.4300000000E+03    0.2465475960E+00    0.1010917420E+00    0.2712738931E-01    0.2165795088E-01    0.4992136070E+00
    0.4500000000E+03    0.2529095615E+00    0.1015927082E+00    0.2709796834E-01    0.2221728752E-01    0.5018486196E+00
    0.4700000000E+03    0.2590441642E+00    0.1020551645E+00    0.2704600329E-01    0.2275666661E-01    0.5042893363E+00
    0.4900000000E+03    0.2649648497E+00    0.1024833455E+00    0.2697413955E-01    0.2327726783E-01    0.5065568138E+00
    0.1000000000E+03    0.8798192638E-01    0.7399597530E-01    0.1883488109E-01    0.7725556902E-02    0.3623720395E+00
    0.3000000000E+03    0.1984856824E+00    0.9644799247E-01    0.2651601178E-01    0.1743339464E-01    0.4751260002E+00
    0.5000000000E+03    0.2678488647E+00    0.1026857395E+00    0.2693148733E-01    0.2353086816E-01    0.5076313454E+00
    0.7000000000E+03    0.3168078217E+00    0.1055946255E+00    0.2547658149E-01    0.2783721186E-01    0.5233224477E+00
    0.9000000000E+03    0.3537391391E+00    0.1072654154E+00    0.2354182428E-01    0.3108743611E-01    0.5326427058E+00
    0.1100000000E+04    0.3828000889E+00    0.1083420303E+00    0.2158452747E-01    0.3364638261E-01    0.5388506828E+00
    0.1300000000E+04    0.4063480441E+00    0.1090885065E+00    0.1976021254E-01    0.3572096882E-01    0.5432992210E+00
    0.1500000000E+04    0.4258476000E+00    0.1096330493E+00    0.1811387092E-01    0.3743977152E-01    0.5466531679E+00
    0.1700000000E+04    0.4422699917E+00    0.1100453650E+00    0.1664809189E-01    0.3888807087E-01    0.5492782920E+00
    0.1900000000E+04    0.4562910955E+00    0.1103665708E+00    0.1534966476E-01    0.4012522366E-01    0.5513928604E+00
    0.2100000000E+04    0.4683988847E+00    0.1106224630E+00    0.1420048096E-01    0.4119409263E-01    0.5531353840E+00
    0.2300000000E+04    0.4789560189E+00    0.1108300288E+00    0.1318203781E-01    0.4212653909E-01    0.5545981063E+00
    0.2500000000E+04    0.4882384034E+00    0.1110008994E+00    0.1227720978E-01    0.4294680704E-01    0.5558448956E+00
    0.2700000000E+04    0.4964600418E+00    0.1111432989E+00    0.1147082734E-01    0.4367370459E-01    0.5569214142E+00
    0.2900000000E+04    0.5037896559E+00    0.1112632017E+00    0.1074973989E-01    0.4432206287E-01    0.5578611978E+00
    0.3100000000E+04    0.5103621441E+00    0.1113650484E+00    0.1010266797E-01    0.4490374199E-01    0.5586894457E+00
    0.3300000000E+04    0.5162866874E+00    0.1114522055E+00    0.9519983461E-02    0.4542834270E-01    0.5594254702E+00
    0.3500000000E+04    0.5216526079E+00    0.1115272696E+00    0.8993479833E-02    0.4590372094E-01    0.5600843280E+00
    0.3700000000E+04    0.5265336864E+00    0.1115922738E+00    0.8516158476E-02    0.4633636687E-01    0.5606779363E+00
    0.3900000000E+04    0.5309913938E+00    0.1116488316E+00    0.8082040470E-02    0.4673168879E-01    0.5612158543E+00
    0.4100000000E+04    0.5350773469E+00    0.1116982388E+00    0.7686005289E-02    0.4709422880E-01    0.5617058416E+00
    0.4300000000E+04    0.5388351979E+00    0.1117415472E+00    0.7323654675E-02    0.4742782883E-01    0.5621542647E+00
    0.4500000000E+04    0.5423021048E+00    0.1117796190E+00    0.6991198709E-02    0.4773575981E-01    0.5625663980E+00
    0.4700000000E+04    0.5455098886E+00    0.1118131670E+00    0.6685360818E-02    0.4802082334E-01    0.5629466490E+00
    0.4900000000E+04    0.5484859517E+00    0.1118427853E+00    0.6403298700E-02    0.4828543241E-01    0.5632987311E+00
    0.1000000000E+04    0.3690782254E+00    0.1078568025E+00    0.2255238508E-01    0.3243794313E-01    0.5360274986E+00
    0.3000000000E+04    0.5071631918E+00    0.1113161506E+00    0.1041758971E-01    0.4462059113E-01    0.5582879409E+00
    0.5000000000E+04    0.5498946270E+00    0.1118562799E+00    0.6270397648E-02    0.4841073050E-01    0.5634652124E+00
    0.7000000000E+04    0.5702635144E+00    0.1120071479E+00    0.4403615372E-02    0.5022702234E-01    0.5658783859E+00
    0.9000000000E+04    0.5820629781E+00    0.1120437664E+00    0.3383718334E-02    0.5128487717E-01    0.5673108579E+00
    0.1100000000E+05    0.5897221383E+00    0.1120362350E+00    0.2753451726E-02    0.5197530229E-01    0.5682760838E+00
    0.1300000000E+05    0.5950797432E+00    0.1120093221E+00    0.2329839908E-02    0.5246092027E-01    0.5689795112E+00
    0.1500000000E+05    0.5990308747E+00    0.1119734915E+00    0.2027341096E-02    0.5282103792E-01    0.5695202078E+00
    0.1700000000E+05    0.6020616947E+00    0.1119336796E+00    0.1801248339E-02    0.5309880910E-01    0.5699521516E+00
    0.1900000000E+05    0.6044583479E+00    0.1118923857E+00    0.1626159866E-02    0.5331967979E-01    0.5703074184E+00
    0.2100000000E+05    0.6063999429E+00    0.1118509304E+00    0.1486674625E-02    0.5349960682E-01    0.5706063494E+00
    0.2300000000E+05    0.6080041850E+00    0.1118100249E+00    0.1372957716E-02    0.5364909597E-01    0.5708625137E+00
    0.2500000000E+05    0.6093515444E+00    0.1117700495E+00    0.1278456647E-02    0.5377534289E-01    0.5710853377E+00
    0.2700000000E+05    0.6104988648E+00    0.1117311985E+00    0.1198648958E-02    0.5388344000E-01    0.5712815910E+00
    0.2900000000E+05    0.6114874215E+00    0.1116935589E+00    0.1130318754E-02    0.5397709187E-01    0.5714562723E+00
    0.3100000000E+05    0.6123478974E+00    0.1116571554E+00    0.1071120049E-02    0.5405905753E-01    0.5716131603E+00
    0.3300000000E+05    0.6131035694E+00    0.1116219760E+00    0.1019303188E-02    0.5413143396E-01    0.5717551700E+00
    0.3500000000E+05    0.6137724105E+00    0.1115879877E+00    0.9735377907E-03    0.5419584336E-01    0.5718845896E+00
    0.3700000000E+05    0.6143685168E+00    0.1115551462E+00    0.9327949077E-03    0.5425356037E-01    0.5720032431E+00
    0.3900000000E+05    0.6149030971E+00    0.1115234012E+00    0.8962665989E-03    0.5430560047E-01    0.5721126044E+00
    0.4100000000E+05    0.6153851746E+00    0.1114927003E+00    0.8633098360E-03    0.5435278267E-01    0.5722138790E+00
    0.4300000000E+05    0.6158220946E+00    0.1114629909E+00    0.8334065914E-03    0.5439577490E-01    0.5723080635E+00
    0.4500000000E+05    0.6162198959E+00    0.1114342218E+00    0.8061349382E-03    0.5443512735E-01    0.5723959898E+00
    0.4700000000E+05    0.6165835887E+00    0.1114063437E+00    0.7811477849E-03    0.5447129734E-01    0.5724783586E+00
    0.4900000000E+05    0.6169173646E+00    0.1113793096E+00    0.7581570008E-03    0.5450466818E-01    0.5725557646E+00
    0.1000000000E+05    0.5862627005E+00    0.1120434585E+00    0.3034707308E-02    0.5166298879E-01    0.5678353354E+00
    0.3000000000E+05    0.6119320699E+00    0.1116752028E+00    0.1099698861E-02    0.5401939146E-01    0.5715367413E+00
    0.5000000000E+05    0.6170741598E+00    0.1113660951E+00    0.7473333116E-03    0.5452040707E-01    0.5725927685E+00
    0.7000000000E+05    0.6192629160E+00    0.1111367379E+00    0.5935319717E-03    0.5474555014E-01    0.5731643993E+00
    0.9000000000E+05    0.6204722211E+00    0.1109558768E+00    0.5044858438E-03    0.5487647984E-01    0.5735452553E+00
    0.1100000000E+06    0.6212382495E+00    0.1108068351E+00    0.4451532033E-03    0.5496356399E-01    0.5738269329E+00
    0.1300000000E+06    0.6217664293E+00    0.1106801573E+00    0.4021658027E-03    0.5502647905E-01    0.5740487342E+00
    0.1500000000E+06    0.6221523190E+00    0.1105700284E+00    0.3692460447E-03    0.5507455160E-01    0.5742308158E+00
    0.1700000000E+06    0.6224463724E+00    0.1104726317E+00    0.3430255071E-03    0.5511279703E-01    0.5743847826E+00
    0.1900000000E+06    0.6226777323E+00    0.1103853308E+00    0.3215201983E-03    0.5514416476E-01    0.5745178820E+00
    0.2100000000E+06    0.6228644033E+00    0.1103062303E+00    0.3034781790E-03    0.5517050928E-01    0.5746349232E+00
    0.2300000000E+06    0.6230181064E+00    0.1102339220E+00    0.2880664058E-03    0.5519305891E-01    0.5747392501E+00
    0.2500000000E+06    0.6231467990E+00    0.1101673318E+00    0.2747067313E-03    0.5521266185E-01    0.5748332763E+00
    0.2700000000E+06    0.6232560724E+00    0.1101056213E+00    0.2629839370E-03    0.5522992411E-01    0.5749187976E+00
    0.2900000000E+06    0.6233499699E+00    0.1100481241E+00    0.2525912351E-03    0.5524529121E-01    0.5749971848E+00
    0.3100000000E+06    0.6234314874E+00    0.1099943016E+00    0.2432964690E-03    0.5525909863E-01    0.5750695062E+00
    0.3300000000E+06    0.6235028918E+00    0.1099437120E+00    0.2349203358E-03    0.5527160430E-01    0.5751366102E+00
    0.3500000000E+06    0.6235659295E+00    0.1098959890E+00    0.2273218907E-03    0.5528301011E-01    0.5751991813E+00
    0.3700000000E+06    0.6236219682E+00    0.1098508251E+00    0.2203886239E-03    0.5529347657E-01    0.5752577789E+00
    0.3900000000E+06    0.6236720933E+00    0.1098079596E+00    0.2140295004E-03    0.5530313311E-01    0.5753128665E+00
    0.4100000000E+06    0.6237171780E+00    0.1097671700E+00    0.2081699718E-03    0.5531208535E-01    0.5753648317E+00
    0.4300000000E+06    0.6237579320E+00    0.1097282644E+00    0.2027483329E-03    0.5532042047E-01    0.5754140021E+00
    0.4500000000E+06    0.6237949383E+00    0.1096910765E+00    0.1977130152E-03    0.5532821113E-01    0.5754606568E+00
    0.4700000000E+06    0.6238286801E+00    0.1096554611E+00    0.1930205454E-03    0.5533551844E-01    0.5755050357E+00
    0.4900000000E+06    0.6238595614E+00    0.1096212904E+00    0.1886339845E-03    0.5534239422E-01    0.5755473460E+00
    0.1000000000E+06    0.6208939389E+00    0.1108780831E+00    0.4721908458E-03    0.5492391037E-01    0.5736953815E+00
    0.3000000000E+06    0.6233921203E+00    0.1100207831E+00    0.2478188580E-03    0.5525237223E-01    0.5750340463E+00
    0.5000000000E+06    0.6238740378E+00    0.1096047112E+00    0.1865453598E-03    0.5534568437E-01    0.5755677829E+00
    0.7000000000E+06    0.6240733703E+00    0.1093274463E+00    0.1551039633E-03    0.5539683565E-01    0.5759016470E+00
    0.9000000000E+06    0.6241800003E+00    0.1091192025E+00    0.1352424568E-03    0.5543135524E-01    0.5761441356E+00
    0.1100000000E+07    0.6242451672E+00    0.1089523865E+00    0.1212713974E-03    0.5545717773E-01    0.5763342967E+00
    0.1300000000E+07    0.6242883780E+00    0.1088132270E+00    0.1107701726E-03    0.5547771318E-01    0.5764905867E+00
    0.1500000000E+07    0.6243186421E+00    0.1086938508E+00    0.1025128259E-03    0.5549471685E-01    0.5766231784E+00
    0.1700000000E+07    0.6243406788E+00    0.1085893312E+00    0.9580389502E-04    0.5550920373E-01    0.5767382698E+00
    0.1900000000E+07    0.6243571908E+00    0.1084963797E+00    0.9021589539E-04    0.5552181074E-01    0.5768399138E+00
    0.2100000000E+07    0.6243698326E+00    0.1084126917E+00    0.8546981883E-04    0.5553296254E-01    0.5769309050E+00
    0.2300000000E+07    0.6243796706E+00    0.1083365891E+00    0.8137487171E-04    0.5554295578E-01    0.5770132509E+00
    0.2500000000E+07    0.6243874216E+00    0.1082668121E+00    0.7779562120E-04    0.5555200557E-01    0.5770884418E+00
    0.2700000000E+07    0.6243935839E+00    0.1082023906E+00    0.7463294573E-04    0.5556027266E-01    0.5771576141E+00
    0.2900000000E+07    0.6243985138E+00    0.1081425622E+00    0.7181242333E-04    0.5556788025E-01    0.5772216542E+00
    0.3100000000E+07    0.6244024724E+00    0.1080867161E+00    0.6927695424E-04    0.5557492477E-01    0.5772812666E+00
    0.3300000000E+07    0.6244056549E+00    0.1080343559E+00    0.6698190724E-04    0.5558148309E-01    0.5773370202E+00
    0.3500000000E+07    0.6244082099E+00    0.1079850727E+00    0.6489182954E-04    0.5558761742E-01    0.5773893813E+00
    0.3700000000E+07    0.6244102521E+00    0.1079385252E+00    0.6297815810E-04    0.5559337883E-01    0.5774387368E+00
    0.3900000000E+07    0.6244118717E+00    0.1078944263E+00    0.6121759129E-04    0.5559880972E-01    0.5774854109E+00
    0.4100000000E+07    0.6244131401E+00    0.1078525316E+00    0.5959090705E-04    0.5560394571E-01    0.5775296784E+00
    0.4300000000E+07    0.6244141146E+00    0.1078126315E+00    0.5808208978E-04    0.5560881696E-01    0.5775717739E+00
    0.4500000000E+07    0.6244148416E+00    0.1077745451E+00    0.5667767505E-04    0.5561344925E-01    0.5776118993E+00
    0.4700000000E+07    0.6244153590E+00    0.1077381150E+00    0.5536625071E-04    0.5561786481E-01    0.5776502298E+00
    0.4900000000E+07    0.6244156981E+00    0.1077032034E+00    0.5413807214E-04    0.5562208289E-01    0.5776869181E+00
    0.1000000000E+07    0.6242161775E+00    0.1090316691E+00    0.1277127542E-03    0.5544508401E-01    0.5762443287E+00
    0.3000000000E+07    0.6244006011E+00    0.1081141747E+00    0.7051209429E-04    0.5557146770E-01    0.5772519756E+00
    0.5000000000E+07    0.6244158091E+00    0.1076862785E+00    0.5355253556E-04    0.5562412321E-01    0.5777046891E+00
    0.7000000000E+07    0.6244131113E+00    0.1074044336E+00    0.4468344283E-04    0.5565771584E-01    0.5779992916E+00
    0.9000000000E+07    0.6244064394E+00    0.1071940085E+00    0.3903342729E-04    0.5568241042E-01    0.5782178233E+00
    0.1100000000E+08    0.6243988689E+00    0.1070260710E+00    0.3504026432E-04    0.5570193941E-01    0.5783915106E+00
    0.1300000000E+08    0.6243913069E+00    0.1068863367E+00    0.3202983255E-04    0.5571809143E-01    0.5785356085E+00
    0.1500000000E+08    0.6243840477E+00    0.1067666962E+00    0.2965778592E-04    0.5573186255E-01    0.5786587160E+00
    0.1700000000E+08    0.6243771786E+00    0.1066621003E+00    0.2772766299E-04    0.5574386460E-01    0.5787661591E+00
    0.1900000000E+08    0.6243707100E+00    0.1065691916E+00    0.2611820829E-04    0.5575450033E-01    0.5788614653E+00
    0.2100000000E+08    0.6243646235E+00    0.1064856240E+00    0.2475003828E-04    0.5576404901E-01    0.5789470916E+00
    0.2300000000E+08    0.6243588908E+00    0.1064096933E+00    0.2356873883E-04    0.5577271220E-01    0.5790248178E+00
    0.2500000000E+08    0.6243534813E+00    0.1063401228E+00    0.2253561127E-04    0.5578064017E-01    0.5790959747E+00
    0.2700000000E+08    0.6243483658E+00    0.1062759312E+00    0.2162228867E-04    0.5578794792E-01    0.5791615829E+00
