  Pressure (Pa) 22mC5-400 (mol/kg) 3mC6-400 (mol/kg) 33mC5-400 (mol/kg) 23mC5-400 (mol/kg) C7-400 (mol/kg)
    0.1000000000E+01    0.1063125687E-02    0.1573631457E-02    0.5807375468E-03    0.9333639734E-04    0.8512017398E-02
    0.3000000000E+01    0.3174909280E-02    0.4579353878E-02    0.1695192328E-02    0.2787400148E-03    0.2477407728E-01
    0.5000000000E+01    0.5267648184E-02    0.7410158710E-02    0.2751502621E-02    0.4624729445E-03    0.4009436427E-01
    0.7000000000E+01    0.7341631878E-02    0.1008095965E-01    0.3754572353E-02    0.6445605759E-03    0.5455304861E-01
    0.9000000000E+01    0.9397143879E-02    0.1260501957E-01    0.4708751431E-02    0.8250277756E-03    0.6822143330E-01
    0.1100000000E+02    0.1143446189E-01    0.1499417287E-01    0.5617911745E-02    0.1003898900E-02    0.8116314783E-01
    0.1300000000E+02    0.1345385795E-01    0.1725901279E-01    0.6485511065E-02    0.1181197810E-02    0.9343515394E-01
    0.1500000000E+02    0.1545559858E-01    0.1940905004E-01    0.7314646999E-02    0.1356947881E-02    0.1050885973E+00
    0.1700000000E+02    0.1743994492E-01    0.2145284768E-01    0.8108102771E-02    0.1531172017E-02    0.1161695321E+00
    0.1900000000E+02    0.1940715286E-01    0.2339813631E-01    0.8868386225E-02    0.1703892662E-02    0.1267195391E+00
    0.2100000000E+02    0.2135747317E-01    0.2525191294E-01    0.9597763184E-02    0.1875131811E-02    0.1367762571E+00
    0.2300000000E+02    0.2329115163E-01    0.2702052597E-01    0.1029828611E-01    0.2044911021E-02    0.1463738391E+00
    0.2500000000E+02    0.2520842917E-01    0.2870974872E-01    0.1097181877E-01    0.2213251424E-02    0.1555433475E+00
    0.2700000000E+02    0.2710954196E-01    0.3032484314E-01    0.1162005763E-01    0.2380173733E-02    0.1643130957E+00
    0.2900000000E+02    0.2899472155E-01    0.3187061522E-01    0.1224455034E-01    0.2545698258E-02    0.1727089465E+00
    0.3100000000E+02    0.3086419496E-01    0.3335146340E-01    0.1284671191E-01    0.2709844912E-02    0.1807545718E+00
    0.3300000000E+02    0.3271818481E-01    0.3477142087E-01    0.1342783875E-01    0.2872633219E-02    0.1884716798E+00
    0.3500000000E+02    0.3455690942E-01    0.3613419276E-01    0.1398912101E-01    0.3034082329E-02    0.1958802148E+00
    0.3700000000E+02    0.3638058291E-01    0.3744318885E-01    0.1453165343E-01    0.3194211022E-02    0.2029985331E+00
    0.3900000000E+02    0.3818941530E-01    0.3870155243E-01    0.1505644487E-01    0.3353037720E-02    0.2098435581E+00
    0.4100000000E+02    0.3998361261E-01    0.3991218592E-01    0.1556442668E-01    0.3510580492E-02    0.2164309178E+00
    0.4300000000E+02    0.4176337697E-01    0.4107777345E-01    0.1605646021E-01    0.3666857067E-02    0.2227750663E+00
    0.4500000000E+02    0.4352890666E-01    0.4220080108E-01    0.1653334337E-01    0.3821884838E-02    0.2288893922E+00
    0.4700000000E+02    0.4528039628E-01    0.4328357473E-01    0.1699581650E-01    0.3975680871E-02    0.2347863153E+00
    0.4900000000E+02    0.4701803677E-01    0.4432823623E-01    0.1744456764E-01    0.4128261915E-02    0.2404773728E+00
    0.1000000000E+02    0.1041806000E-01    0.1381577036E-01    0.5168733793E-02    0.9146613446E-03    0.7477941862E-01
    0.3000000000E+02    0.2993140751E-01    0.3261889462E-01    0.1254833887E-01    0.2627942590E-02    0.1767741371E+00
    0.5000000000E+02    0.4788172228E-01    0.4483690295E-01    0.1766399931E-01    0.4204101965E-02    0.2432490851E+00
    0.7000000000E+02    0.6447226630E-01    0.5342595770E-01    0.2146647041E-01    0.5660967732E-02    0.2901201523E+00
    0.9000000000E+02    0.7987163405E-01    0.5980077463E-01    0.2441374965E-01    0.7013327757E-02    0.3250117609E+00
    0.1100000000E+03    0.9422084771E-01    0.6472398817E-01    0.2675865705E-01    0.8273551724E-02    0.3520381188E+00
    0.1300000000E+03    0.1076387841E+00    0.6864332001E-01    0.2865541862E-01    0.9452067060E-02    0.3736169625E+00
    0.1500000000E+03    0.1202263721E+00    0.7183907493E-01    0.3020549767E-01    0.1055772705E-01    0.3912634647E+00
    0.1700000000E+03    0.1320698731E+00    0.7449579755E-01    0.3147963106E-01    0.1159809848E-01    0.4059761622E+00
    0.1900000000E+03    0.1432434682E+00    0.7674000449E-01    0.3252940220E-01    0.1257968864E-01    0.4184402932E+00
    0.2100000000E+03    0.1538113180E+00    0.7866136551E-01    0.3339377362E-01    0.1350812585E-01    0.4291420093E+00
    0.2300000000E+03    0.1638292150E+00    0.8032523022E-01    0.3410300331E-01    0.1438830447E-01    0.4384359609E+00
    0.2500000000E+03    0.1733459198E+00    0.8178036486E-01    0.3468111548E-01    0.1522450207E-01    0.4465870645E+00
    0.2700000000E+03    0.1824042491E+00    0.8306390911E-01    0.3514752868E-01    0.1602047482E-01    0.4537972772E+00
    0.2900000000E+03    0.1910419678E+00    0.8420465318E-01    0.3551816935E-01    0.1677953579E-01    0.4602233097E+00
    0.3100000000E+03    0.1992925248E+00    0.8522526435E-01    0.3580625821E-01    0.1750461945E-01    0.4659886669E+00
    0.3300000000E+03    0.2071856638E+00    0.8614383609E-01    0.3602288116E-01    0.1819833525E-01    0.4711920306E+00
    0.3500000000E+03    0.2147479328E+00    0.8697498893E-01    0.3617741362E-01    0.1886301230E-01    0.4759132205E+00
    0.3700000000E+03    0.2220031113E+00    0.8773066743E-01    0.3627784247E-01    0.1950073689E-01    0.4802175116E+00
    0.3900000000E+03    0.2289725710E+00    0.8842072714E-01    0.3633101471E-01    0.2011338406E-01    0.4841588161E+00
    0.4100000000E+03    0.2356755810E+00    0.8905337315E-01    0.3634283241E-01    0.2070264440E-01    0.4877820621E+00
    0.4300000000E+03    0.2421295671E+00    0.8963549259E-01    0.3631840770E-01    0.2127004681E-01    0.4911249983E+00
    0.4500000000E+03    0.2483503341E+00    0.9017290966E-01    0.3626218740E-01    0.2181697800E-01    0.4942195787E+00
    0.4700000000E+03    0.2543522558E+00    0.9067058353E-01    0.3617805427E-01    0.2234469912E-01    0.4970930382E+00
    0.4900000000E+03    0.2601484394E+00    0.9113276363E-01    0.3606941008E-01    0.2285436021E-01    0.4997687369E+00
    0.1000000000E+03    0.8716961563E-01    0.6241072597E-01    0.2565025405E-01    0.7654264276E-02    0.3393293758E+00
    0.3000000000E+03    0.1952137021E+00    0.8472875200E-01    0.3567179541E-01    0.1714615464E-01    0.4631819027E+00
    0.5000000000E+03    0.2629731641E+00    0.9135170815E-01    0.3600684501E-01    0.2310275032E-01    0.5010388337E+00
    0.7000000000E+03    0.3110956126E+00    0.9453670522E-01    0.3402916726E-01    0.2733555169E-01    0.5197492606E+00
    0.9000000000E+03    0.3476706437E+00    0.9640567775E-01    0.3149368610E-01    0.3055440008E-01    0.5310213367E+00
    0.1100000000E+04    0.3766606147E+00    0.9763103415E-01    0.2895523806E-01    0.3310703386E-01    0.5386039655E+00
    0.1300000000E+04    0.4003036878E+00    0.9849360885E-01    0.2659715051E-01    0.3518990600E-01    0.5440784180E+00
    0.1500000000E+04    0.4199923429E+00    0.9913164692E-01    0.2446997899E-01    0.3692526068E-01    0.5482305636E+00
    0.1700000000E+04    0.4366539945E+00    0.9962114860E-01    0.2257420133E-01    0.3839452864E-01    0.5514964746E+00
    0.1900000000E+04    0.4509377855E+00    0.1000073647E+00    0.2089196826E-01    0.3965471738E-01    0.5541381693E+00
    0.2100000000E+04    0.4633154083E+00    0.1003189183E+00    0.1939997051E-01    0.4074725824E-01    0.5563228776E+00
    0.2300000000E+04    0.4741397155E+00    0.1005747964E+00    0.1807470441E-01    0.4170314979E-01    0.5581625143E+00
    0.2500000000E+04    0.4836808543E+00    0.1007880868E+00    0.1689451695E-01    0.4254612907E-01    0.5597348970E+00
    0.2700000000E+04    0.4921496170E+00    0.1009681012E+00    0.1584025340E-01    0.4329472107E-01    0.5610958703E+00
    0.2900000000E+04    0.4997131178E+00    0.1011216434E+00    0.1489530367E-01    0.4396361489E-01    0.5622865851E+00
    0.3100000000E+04    0.5065056535E+00    0.1012537982E+00    0.1404540512E-01    0.4456461706E-01    0.5633380571E+00
    0.3300000000E+04    0.5126364253E+00    0.1013684409E+00    0.1327836413E-01    0.4510732952E-01    0.5642741213E+00
    0.3500000000E+04    0.5181951517E+00    0.1014685755E+00    0.1258376863E-01    0.4559964252E-01    0.5651134078E+00
    0.3700000000E+04    0.5232562259E+00    0.1015565655E+00    0.1195272202E-01    0.4604809965E-01    0.5658706963E+00
    0.3900000000E+04    0.5278818459E+00    0.1016342957E+00    0.1137760897E-01    0.4645817271E-01    0.5665578678E+00
    0.4100000000E+04    0.5321244033E+00    0.1017032864E+00    0.1085189462E-01    0.4683447163E-01    0.5671845862E+00
    0.4300000000E+04    0.5360283325E+00    0.1017647774E+00    0.1036995496E-01    0.4718090681E-01    0.5677587953E+00
    0.4500000000E+04    0.5396315551E+00    0.1018197893E+00    0.9926934677E-02    0.4750081605E-01    0.5682870875E+00
    0.4700000000E+04    0.5429666216E+00    0.1018691696E+00    0.9518628338E-02    0.4779706491E-01    0.5687749816E+00
    0.4900000000E+04    0.5460616221E+00    0.1019136278E+00    0.9141381374E-02    0.4807212667E-01    0.5692271340E+00
    0.1000000000E+04    0.3629474199E+00    0.9707635806E-01    0.3020867468E-01    0.3189939399E-01    0.5351477525E+00
    0.3000000000E+04    0.5031984173E+00    0.1011901282E+00    0.1445928016E-01    0.4427195715E-01    0.5628280953E+00
    0.5000000000E+04    0.5475268391E+00    0.1019342016E+00    0.8963393100E-02    0.4820239412E-01    0.5694410673E+00
    0.7000000000E+04    0.5687194410E+00    0.1021927153E+00    0.6443851165E-02    0.5009110045E-01    0.5725513468E+00
    0.9000000000E+04    0.5809843190E+00    0.1022984969E+00    0.5046543547E-02    0.5118989010E-01    0.5744046736E+00
    0.1100000000E+05    0.5889302618E+00    0.1023403130E+00    0.4171691333E-02    0.5190554806E-01    0.5756551115E+00
    0.1300000000E+05    0.5944768431E+00    0.1023509857E+00    0.3576748388E-02    0.5240779841E-01    0.5765662868E+00
    0.1500000000E+05    0.5985590995E+00    0.1023450880E+00    0.3147336950E-02    0.5277945983E-01    0.5772659756E+00
    0.1700000000E+05    0.6016846613E+00    0.1023298990E+00    0.2823223418E-02    0.5306557372E-01    0.5778240616E+00
    0.1900000000E+05    0.6041520233E+00    0.1023093630E+00    0.2569946470E-02    0.5329267216E-01    0.5782821911E+00
    0.2100000000E+05    0.6061478052E+00    0.1022857472E+00    0.2366477425E-02    0.5347737272E-01    0.5786668321E+00
    0.2300000000E+05    0.6077944949E+00    0.1022604119E+00    0.2199306017E-02    0.5363060193E-01    0.5789956698E+00
    0.2500000000E+05    0.6091757268E+00    0.1022341997E+00    0.2059379084E-02    0.5375983388E-01    0.5792810058E+00
    0.2700000000E+05    0.6103505071E+00    0.1022076443E+00    0.1940413802E-02    0.5387035129E-01    0.5795316825E+00
    0.2900000000E+05    0.6113616300E+00    0.1021810883E+00    0.1837918912E-02    0.5396599245E-01    0.5797542336E+00
    0.3100000000E+05    0.6122408716E+00    0.1021547530E+00    0.1748601455E-02    0.5404961262E-01    0.5799536004E+00
    0.3300000000E+05    0.6130123118E+00    0.1021287808E+00    0.1669993546E-02    0.5412337949E-01    0.5801335958E+00
    0.3500000000E+05    0.6136945251E+00    0.1021032616E+00    0.1600209887E-02    0.5418896821E-01    0.5802972129E+00
    0.3700000000E+05    0.6143020647E+00    0.1020782504E+00    0.1537785747E-02    0.5424769369E-01    0.5804468379E+00
    0.3900000000E+05    0.6148464924E+00    0.1020537783E+00    0.1481565992E-02    0.5430060249E-01    0.5805843987E+00
    0.4100000000E+05    0.6153371076E+00    0.1020298603E+00    0.1430627398E-02    0.5434853794E-01    0.5807114716E+00
    0.4300000000E+05    0.6157814739E+00    0.1020065001E+00    0.1384223190E-02    0.5439218723E-01    0.5808293594E+00
    0.4500000000E+05    0.6161858048E+00    0.1019836940E+00    0.1341742740E-02    0.5443211592E-01    0.5809391492E+00
    0.4700000000E+05    0.6165552518E+00    0.1019614329E+00    0.1302681820E-02    0.5446879378E-01    0.5810417562E+00
    0.4900000000E+05    0.6168941213E+00    0.1019397047E+00    0.1266620323E-02    0.5450261424E-01    0.5811379570E+00
    0.1000000000E+05    0.5853433360E+00    0.1023247020E+00    0.4563416008E-02    0.5158201639E-01    0.5750840608E+00
    0.3000000000E+05    0.6118160805E+00    0.1021678827E+00    0.1791783257E-02    0.5400915622E-01    0.5798565545E+00
    0.5000000000E+05    0.6170532458E+00    0.1019290359E+00    0.1249601828E-02    0.5451855876E-01    0.5811838662E+00
    0.7000000000E+05    0.6192698771E+00    0.1017397384E+00    0.1004678419E-02    0.5474616401E-01    0.5818857495E+00
    0.9000000000E+05    0.6204903077E+00    0.1015862734E+00    0.8599657830E-03    0.5487807773E-01    0.5823445436E+00
    0.1100000000E+06    0.6212614605E+00    0.1014578020E+00    0.7622477277E-03    0.5496561583E-01    0.5826785553E+00
    0.1300000000E+06    0.6217921505E+00    0.1013474753E+00    0.6907832937E-03    0.5502875378E-01    0.5829381023E+00
    0.1500000000E+06    0.6221792658E+00    0.1012508524E+00    0.6356764035E-03    0.5507693555E-01    0.5831487688E+00
    0.1700000000E+06    0.6224738609E+00    0.1011649231E+00    0.5915511513E-03    0.5511522965E-01    0.5833251640E+00
    0.1900000000E+06    0.6227053789E+00    0.1010875632E+00    0.5552098753E-03    0.5514661202E-01    0.5834763419E+00
    0.2100000000E+06    0.6228919851E+00    0.1010172206E+00    0.5246185686E-03    0.5517295140E-01    0.5836082666E+00
    0.2300000000E+06    0.6230454918E+00    0.1009527286E+00    0.4984147847E-03    0.5519548419E-01    0.5837250574E+00
    0.2500000000E+06    0.6231739104E+00    0.1008931884E+00    0.4756476636E-03    0.5521506336E-01    0.5838296686E+00
    0.2700000000E+06    0.6232828649E+00    0.1008378932E+00    0.4556310505E-03    0.5523229784E-01    0.5839242856E+00
    0.2900000000E+06    0.6233764192E+00    0.1007862774E+00    0.4378558903E-03    0.5524763496E-01    0.5840105666E+00
    0.3100000000E+06    0.6234575822E+00    0.1007378812E+00    0.4219355876E-03    0.5526141137E-01    0.5840897978E+00
    0.3300000000E+06    0.6235286291E+00    0.1006923260E+00    0.4075706260E-03    0.5527388573E-01    0.5841629952E+00
    0.3500000000E+06    0.6235913118E+00    0.1006492962E+00    0.3945249126E-03    0.5528526042E-01    0.5842309747E+00
    0.3700000000E+06    0.6236470011E+00    0.1006085261E+00    0.3826095221E-03    0.5529569625E-01    0.5842944003E+00
    0.3900000000E+06    0.6236967849E+00    0.1005697898E+00    0.3716712531E-03    0.5530532283E-01    0.5843538195E+00
    0.4100000000E+06    0.6237415375E+00    0.1005328937E+00    0.3615844010E-03    0.5531424592E-01    0.5844096888E+00
    0.4300000000E+06    0.6237819693E+00    0.1004976706E+00    0.3522447319E-03    0.5532255274E-01    0.5844623920E+00
    0.4500000000E+06    0.6238186636E+00    0.1004639752E+00    0.3435649937E-03    0.5533031600E-01    0.5845122555E+00
    0.4700000000E+06    0.6238521037E+00    0.1004316802E+00    0.3354715224E-03    0.5533759681E-01    0.5845595582E+00
    0.4900000000E+06    0.6238826935E+00    0.1004006736E+00    0.3279016414E-03    0.5534444698E-01    0.5846045410E+00
    0.1000000000E+06    0.6209150499E+00    0.1015194136E+00    0.8069088610E-03    0.5492577609E-01    0.5825231561E+00
    0.3000000000E+06    0.6234183931E+00    0.1007617022E+00    0.4296843210E-03    0.5525470055E-01    0.5840509945E+00
    0.5000000000E+06    0.6238970280E+00    0.1003856222E+00    0.3242959591E-03    0.5534772466E-01    0.5846262287E+00
    0.7000000000E+06    0.6240939790E+00    0.1001332516E+00    0.2699189739E-03    0.5539866651E-01    0.5849769708E+00
    0.9000000000E+06    0.6241988740E+00    0.9994300045E-01    0.2354834265E-03    0.5543303341E-01    0.5852277628E+00
    0.1100000000E+07    0.6242627156E+00    0.9979023532E-01    0.2112265107E-03    0.5545873923E-01    0.5854223063E+00
    0.1300000000E+07    0.6243048732E+00    0.9966258314E-01    0.1929776187E-03    0.5547918195E-01    0.5855809013E+00
    0.1500000000E+07    0.6243342743E+00    0.9955293986E-01    0.1786192135E-03    0.5549610963E-01    0.5857145914E+00
    0.1700000000E+07    0.6243555869E+00    0.9945684668E-01    0.1669480306E-03    0.5551053275E-01    0.5858300356E+00
    0.1900000000E+07    0.6243714798E+00    0.9937132028E-01    0.1572235540E-03    0.5552308525E-01    0.5859315515E+00
    0.2100000000E+07    0.6243835839E+00    0.9929426587E-01    0.1489620255E-03    0.5553418972E-01    0.5860220950E+00
    0.2300000000E+07    0.6243929492E+00    0.9922415591E-01    0.1418324021E-03    0.5554414134E-01    0.5861037763E+00
    0.2500000000E+07    0.6244002802E+00    0.9915984213E-01    0.1355995624E-03    0.5555315415E-01    0.5861781539E+00
    0.2700000000E+07    0.6244060658E+00    0.9910043948E-01    0.1300913437E-03    0.5556138808E-01    0.5862464105E+00
    0.2900000000E+07    0.6244106554E+00    0.9904525136E-01    0.1251784338E-03    0.5556896572E-01    0.5863094647E+00
    0.3100000000E+07    0.6244143043E+00    0.9899371962E-01    0.1207615863E-03    0.5557598299E-01    0.5863680439E+00
    0.3300000000E+07    0.6244172035E+00    0.9894539013E-01    0.1167632050E-03    0.5558251638E-01    0.5864227336E+00
    0.3500000000E+07    0.6244194977E+00    0.9889988846E-01    0.1131216365E-03    0.5558862777E-01    0.5864740123E+00
    0.3700000000E+07    0.6244212991E+00    0.9885690222E-01    0.1097871985E-03    0.5559436799E-01    0.5865222755E+00
    0.3900000000E+07    0.6244226951E+00    0.9881616811E-01    0.1067193530E-03    0.5559977923E-01    0.5865678542E+00
    0.4100000000E+07    0.6244237553E+00    0.9877746211E-01    0.1038846537E-03    0.5560489690E-01    0.5866110280E+00
    0.4300000000E+07    0.6244245351E+00    0.9874059203E-01    0.1012552295E-03    0.5560975103E-01    0.5866520351E+00
    0.4500000000E+07    0.6244250797E+00    0.9870539179E-01    0.9880764600E-04    0.5561436729E-01    0.5866910804E+00
    0.4700000000E+07    0.6244254256E+00    0.9867171686E-01    0.9652203830E-04    0.5561876777E-01    0.5867283408E+00
    0.4900000000E+07    0.6244256030E+00    0.9863944068E-01    0.9438144246E-04    0.5562297163E-01    0.5867639708E+00
    0.1000000000E+07    0.6242343477E+00    0.9986287697E-01    0.2224134132E-03    0.5544670025E-01    0.5853304882E+00
    0.3000000000E+07    0.6244125843E+00    0.9901905894E-01    0.1229132823E-03    0.5557253923E-01    0.5863392742E+00
    0.5000000000E+07    0.6244256366E+00    0.9862379179E-01    0.9336088514E-04    0.5562500515E-01    0.5867812173E+00
    0.7000000000E+07    0.6244217359E+00    0.9836304795E-01    0.7790085444E-04    0.5565849215E-01    0.5870660713E+00
    0.9000000000E+07    0.6244142653E+00    0.9816821669E-01    0.6805072060E-04    0.5568311670E-01    0.5872762081E+00
    0.1100000000E+08    0.6244061127E+00    0.9801264137E-01    0.6108862276E-04    0.5570259474E-01    0.5874426035E+00
    0.1300000000E+08    0.6243981011E+00    0.9788314394E-01    0.5583971686E-04    0.5571870746E-01    0.5875802762E+00
    0.1500000000E+08    0.6243904806E+00    0.9777223627E-01    0.5170378829E-04    0.5573244704E-01    0.5876976469E+00
    0.1700000000E+08    0.6243833124E+00    0.9767525318E-01    0.4833835864E-04    0.5574442302E-01    0.5877999098E+00
    0.1900000000E+08    0.6243765907E+00    0.9758909082E-01    0.4553203629E-04    0.5575503672E-01    0.5878904941E+00
    0.2100000000E+08    0.6243702862E+00    0.9751157939E-01    0.4314642039E-04    0.5576456646E-01    0.5879717820E+00
    0.2300000000E+08    0.6243643630E+00    0.9744114240E-01    0.4108663940E-04    0.5577321312E-01    0.5880454954E+00
    0.2500000000E+08    0.6243587851E+00    0.9737659831E-01    0.3928521991E-04    0.5578112650E-01    0.5881129189E+00
    0.2700000000E+08    0.6243535194E+00    0.9731703877E-01    0.3769270144E-04    0.5578842125E-01    0.5881750365E+00
