  Pressure (Pa) 22mC5-400 (mol/kg) 3mC6-400 (mol/kg) 33mC5-400 (mol/kg) 23mC5-400 (mol/kg) C7-400 (mol/kg)
    0.1000000000E+01    0.1063331504E-02    0.4202045083E-02    0.3876204038E-03    0.9335445811E-04    0.5114108122E-02
    0.3000000000E+01    0.3176740885E-02    0.1225992648E-01    0.1134045393E-02    0.2789007418E-03    0.1492297625E-01
    0.5000000000E+01    0.5272679248E-02    0.1988716260E-01    0.1844603320E-02    0.4629144317E-03    0.2421016390E-01
    0.7000000000E+01    0.7351383298E-02    0.2711751104E-01    0.2522072555E-02    0.6454162878E-03    0.3301650017E-01
    0.9000000000E+01    0.9413085410E-02    0.3398128740E-01    0.3168942333E-02    0.8264266900E-03    0.4137865439E-01
    0.1100000000E+02    0.1145801372E-01    0.4050579311E-01    0.3787449368E-02    0.1005965647E-02    0.4932965296E-01
    0.1300000000E+02    0.1348639223E-01    0.4671568112E-01    0.4379609075E-02    0.1184052803E-02    0.5689932101E-01
    0.1500000000E+02    0.1549844089E-01    0.5263326948E-01    0.4947242286E-02    0.1360707451E-02    0.6411466136E-01
    0.1700000000E+02    0.1749437569E-01    0.5827881146E-01    0.5491998214E-02    0.1535948532E-02    0.7100018079E-01
    0.1900000000E+02    0.1947440876E-01    0.6367072906E-01    0.6015374252E-02    0.1709794652E-02    0.7757817217E-01
    0.2100000000E+02    0.2143874846E-01    0.6882581540E-01    0.6518733107E-02    0.1882264084E-02    0.8386895907E-01
    0.2300000000E+02    0.2338759942E-01    0.7375941102E-01    0.7003317677E-02    0.2053374777E-02    0.8989110869E-01
    0.2500000000E+02    0.2532116268E-01    0.7848555759E-01    0.7470264003E-02    0.2223144361E-02    0.9566161774E-01
    0.2700000000E+02    0.2723963574E-01    0.8301713267E-01    0.7920612594E-02    0.2391590157E-02    0.1011960752E+00
    0.2900000000E+02    0.2914321263E-01    0.8736596788E-01    0.8355318332E-02    0.2558729185E-02    0.1065088050E+00
    0.3100000000E+02    0.3103208400E-01    0.9154295308E-01    0.8775259191E-02    0.2724578165E-02    0.1116129924E+00
    0.3300000000E+02    0.3290643719E-01    0.9555812827E-01    0.9181243905E-02    0.2889153527E-02    0.1165207944E+00
    0.3500000000E+02    0.3476645629E-01    0.9942076496E-01    0.9574018741E-02    0.3052471418E-02    0.1212434388E+00
    0.3700000000E+02    0.3661232225E-01    0.1031394384E+00    0.9954273502E-02    0.3214547706E-02    0.1257913109E+00
    0.3900000000E+02    0.3844421287E-01    0.1067220916E+00    0.1032264684E-01    0.3375397988E-02    0.1301740313E+00
    0.4100000000E+02    0.4026230297E-01    0.1101760929E+00    0.1067973100E-01    0.3535037595E-02    0.1344005252E+00
    0.4300000000E+02    0.4206676434E-01    0.1135082867E+00    0.1102607603E-01    0.3693481594E-02    0.1384790840E+00
    0.4500000000E+02    0.4385776590E-01    0.1167250395E+00    0.1136219353E-01    0.3850744802E-02    0.1424174210E+00
    0.4700000000E+02    0.4563547371E-01    0.1198322808E+00    0.1168856006E-01    0.4006841782E-02    0.1462227204E+00
    0.4900000000E+02    0.4740005104E-01    0.1228355401E+00    0.1200562013E-01    0.4161786855E-02    0.1499016824E+00
    0.1000000000E+02    0.1043763219E-01    0.3728435011E-01    0.3481610376E-02    0.9163788627E-03    0.4540361375E-01
    0.3000000000E+02    0.3008947472E-01    0.8947529531E-01    0.8567082286E-02    0.2641813897E-02    0.1090861838E+00
    0.5000000000E+02    0.4827746606E-01    0.1242998032E+00    0.1216079107E-01    0.4238831835E-02    0.1516957583E+00
    0.7000000000E+02    0.6517420436E-01    0.1492137965E+00    0.1486325246E-01    0.5722570601E-02    0.1822630429E+00
    0.9000000000E+02    0.8092560418E-01    0.1679351756E+00    0.1697509696E-01    0.7105828066E-02    0.2052953240E+00
    0.1100000000E+03    0.9565586035E-01    0.1825263983E+00    0.1866628539E-01    0.8399497325E-02    0.2232952360E+00
    0.1300000000E+03    0.1094713482E+00    0.1942240881E+00    0.2004207281E-01    0.9612908716E-02    0.2377646899E+00
    0.1500000000E+03    0.1224637158E+00    0.2038150648E+00    0.2117238591E-01    0.1075410098E-01    0.2496601663E+00
    0.1700000000E+03    0.1347123563E+00    0.2118239884E+00    0.2210630358E-01    0.1183003808E-01    0.2596200372E+00
    0.1900000000E+03    0.1462863998E+00    0.2186142611E+00    0.2287979634E-01    0.1284678385E-01    0.2680868688E+00
    0.2100000000E+03    0.1572463303E+00    0.2244456317E+00    0.2352014832E-01    0.1380964383E-01    0.2753772825E+00
    0.2300000000E+03    0.1676453067E+00    0.2295087388E+00    0.2404862984E-01    0.1472328108E-01    0.2817238697E+00
    0.2500000000E+03    0.1775302490E+00    0.2339466933E+00    0.2448219240E-01    0.1559181150E-01    0.2873013947E+00
    0.2700000000E+03    0.1869427380E+00    0.2378690425E+00    0.2483458902E-01    0.1641888264E-01    0.2922437564E+00
    0.2900000000E+03    0.1959197623E+00    0.2413610793E+00    0.2511714209E-01    0.1720773928E-01    0.2966553036E+00
    0.3100000000E+03    0.2044943444E+00    0.2444902140E+00    0.2533928618E-01    0.1796127837E-01    0.3006185822E+00
    0.3300000000E+03    0.2126960669E+00    0.2473104347E+00    0.2550896246E-01    0.1868209505E-01    0.3041997628E+00
    0.3500000000E+03    0.2205515159E+00    0.2498654955E+00    0.2563291219E-01    0.1937252171E-01    0.3074525220E+00
    0.3700000000E+03    0.2280846592E+00    0.2521912362E+00    0.2571689948E-01    0.2003466102E-01    0.3104208671E+00
    0.3900000000E+03    0.2353171666E+00    0.2543172972E+00    0.2576588372E-01    0.2067041410E-01    0.3131412265E+00
    0.4100000000E+03    0.2422686855E+00    0.2562684068E+00    0.2578415489E-01    0.2128150466E-01    0.3156440196E+00
    0.4300000000E+03    0.2489570767E+00    0.2580653605E+00    0.2577544138E-01    0.2186949970E-01    0.3179548507E+00
    0.4500000000E+03    0.2553986183E+00    0.2597257740E+00    0.2574299692E-01    0.2243582737E-01    0.3200954293E+00
    0.4700000000E+03    0.2616081819E+00    0.2612646699E+00    0.2568967136E-01    0.2298179248E-01    0.3220842856E+00
    0.4900000000E+03    0.2675993858E+00    0.2626949390E+00    0.2561796887E-01    0.2350858984E-01    0.3239373347E+00
    0.1000000000E+03    0.8841134879E-01    0.1756561184E+00    0.1786562592E-01    0.7763244926E-02    0.2148139104E+00
    0.3000000000E+03    0.2002554347E+00    0.2429673630E+00    0.2523523777E-01    0.1758875474E-01    0.2986885086E+00
    0.5000000000E+03    0.2705170489E+00    0.2633728755E+00    0.2557592638E-01    0.2376514684E-01    0.3248173019E+00
    0.7000000000E+03    0.3199577818E+00    0.2732663948E+00    0.2418597335E-01    0.2811384196E-01    0.3378091302E+00
    0.9000000000E+03    0.3571063423E+00    0.2791067905E+00    0.2236869594E-01    0.3138319101E-01    0.3456659150E+00
    0.1100000000E+04    0.3862264614E+00    0.2829571308E+00    0.2054315430E-01    0.3394737699E-01    0.3509683357E+00
    0.1300000000E+04    0.4097411676E+00    0.2856825468E+00    0.1884866348E-01    0.3601908051E-01    0.3548085302E+00
    0.1500000000E+04    0.4291548147E+00    0.2877100103E+00    0.1732360086E-01    0.3773036953E-01    0.3577302946E+00
    0.1700000000E+04    0.4454627556E+00    0.2892747009E+00    0.1596824943E-01    0.3916864268E-01    0.3600357485E+00
    0.1900000000E+04    0.4593555465E+00    0.2905168717E+00    0.1476905776E-01    0.4039454676E-01    0.3619065896E+00
    0.2100000000E+04    0.4713300879E+00    0.2915253680E+00    0.1370845465E-01    0.4145172929E-01    0.3634588725E+00
    0.2300000000E+04    0.4817544192E+00    0.2923592070E+00    0.1276883198E-01    0.4237252480E-01    0.3647703172E+00
    0.2500000000E+04    0.4909076176E+00    0.2930591250E+00    0.1193406364E-01    0.4318145649E-01    0.3658950006E+00
    0.2700000000E+04    0.4990054754E+00    0.2936541452E+00    0.1118996399E-01    0.4389749012E-01    0.3668717551E+00
    0.2900000000E+04    0.5062176348E+00    0.2941655027E+00    0.1052429682E-01    0.4453553810E-01    0.3677292153E+00
    0.3100000000E+04    0.5126793716E+00    0.2946090905E+00    0.9926607026E-02    0.4510749405E-01    0.3684889778E+00
    0.3300000000E+04    0.5184999074E+00    0.2949970383E+00    0.9387997085E-02    0.4562296262E-01    0.3691676513E+00
    0.3500000000E+04    0.5237684021E+00    0.2953387628E+00    0.8900901680E-02    0.4608978570E-01    0.3697782270E+00
    0.3700000000E+04    0.5285583554E+00    0.2956416842E+00    0.8458881908E-02    0.4651442900E-01    0.3703310191E+00
    0.3900000000E+04    0.5329308938E+00    0.2959117285E+00    0.8056446033E-02    0.4690227072E-01    0.3708343256E+00
    0.4100000000E+04    0.5369372612E+00    0.2961536839E+00    0.7688897138E-02    0.4725782036E-01    0.3712949015E+00
    0.4300000000E+04    0.5406207301E+00    0.2963714613E+00    0.7352205329E-02    0.4758488660E-01    0.3717183042E+00
    0.4500000000E+04    0.5440180865E+00    0.2965682855E+00    0.7042901272E-02    0.4788670778E-01    0.3721091496E+00
    0.4700000000E+04    0.5471607944E+00    0.2967468389E+00    0.6757987784E-02    0.4816605423E-01    0.3724713053E+00
    0.4900000000E+04    0.5500759191E+00    0.2969093707E+00    0.6494866465E-02    0.4842530941E-01    0.3728080376E+00
    0.1000000000E+04    0.3724899068E+00    0.2812116136E+00    0.2144468267E-01    0.3273762637E-01    0.3485493941E+00
    0.3000000000E+04    0.5095349485E+00    0.2943949358E+00    0.1021754465E-01    0.4482913062E-01    0.3681201725E+00
    0.5000000000E+04    0.5514555775E+00    0.2969852338E+00    0.6370759701E-02    0.4854805803E-01    0.3729677547E+00
    0.7000000000E+04    0.5713969454E+00    0.2979974264E+00    0.4615306849E-02    0.5032677905E-01    0.3753253835E+00
    0.9000000000E+04    0.5829482383E+00    0.2984936831E+00    0.3640934260E-02    0.5136281661E-01    0.3767739336E+00
    0.1100000000E+05    0.5904497411E+00    0.2987637174E+00    0.3029155051E-02    0.5203937827E-01    0.3777790080E+00
    0.1300000000E+05    0.5956999864E+00    0.2989173822E+00    0.2611631637E-02    0.5251555397E-01    0.3785304161E+00
    0.1500000000E+05    0.5995740079E+00    0.2990048491E+00    0.2309136379E-02    0.5286888885E-01    0.3791211988E+00
    0.1700000000E+05    0.6025470871E+00    0.2990519862E+00    0.2079957515E-02    0.5314158047E-01    0.3796028078E+00
    0.1900000000E+05    0.6048990394E+00    0.2990733231E+00    0.1900214655E-02    0.5335851839E-01    0.3800062381E+00
    0.2100000000E+05    0.6068050772E+00    0.2990775570E+00    0.1755318114E-02    0.5353531691E-01    0.3803513963E+00
    0.2300000000E+05    0.6083803934E+00    0.2990701559E+00    0.1635880153E-02    0.5368226085E-01    0.3806517203E+00
    0.2500000000E+05    0.6097037736E+00    0.2990546937E+00    0.1535599284E-02    0.5380639774E-01    0.3809166502E+00
    0.2700000000E+05    0.6108308946E+00    0.2990335802E+00    0.1450094338E-02    0.5391271733E-01    0.3811530376E+00
    0.2900000000E+05    0.6118021999E+00    0.2990084826E+00    0.1376227553E-02    0.5400485106E-01    0.3813659925E+00
    0.3100000000E+05    0.6126477652E+00    0.2989805789E+00    0.1311693972E-02    0.5408550454E-01    0.3815594151E+00
    0.3300000000E+05    0.6133904145E+00    0.2989507157E+00    0.1254762875E-02    0.5415673489E-01    0.3817363413E+00
    0.3500000000E+05    0.6140477769E+00    0.2989195104E+00    0.1204109622E-02    0.5422013407E-01    0.3818991752E+00
    0.3700000000E+05    0.6146336825E+00    0.2988874187E+00    0.1158703163E-02    0.5427695333E-01    0.3820498491E+00
    0.3900000000E+05    0.6151591317E+00    0.2988547799E+00    0.1117728902E-02    0.5432818981E-01    0.3821899373E+00
    0.4100000000E+05    0.6156329824E+00    0.2988218483E+00    0.1080534631E-02    0.5437464795E-01    0.3823207368E+00
    0.4300000000E+05    0.6160624466E+00    0.2987888159E+00    0.1046591876E-02    0.5441698397E-01    0.3824433281E+00
    0.4500000000E+05    0.6164534549E+00    0.2987558277E+00    0.1015467787E-02    0.5445573854E-01    0.3825586196E+00
    0.4700000000E+05    0.6168109289E+00    0.2987229937E+00    0.9868043491E-03    0.5449136118E-01    0.3826673815E+00
    0.4900000000E+05    0.6171389864E+00    0.2986903966E+00    0.9603027986E-03    0.5452422870E-01    0.3827702721E+00
    0.1000000000E+05    0.5870610083E+00    0.2986480079E+00    0.3303337828E-02    0.5173328251E-01    0.3773166924E+00
    0.3000000000E+05    0.6122391317E+00    0.2989948223E+00    0.1342913434E-02    0.5404647156E-01    0.3814649385E+00
    0.5000000000E+05    0.6172930905E+00    0.2986742070E+00    0.9477825954E-03    0.5453973073E-01    0.3828196959E+00
    0.7000000000E+05    0.6194436138E+00    0.2983713911E+00    0.7665853869E-03    0.5476150850E-01    0.3836036547E+00
    0.9000000000E+05    0.6206306627E+00    0.2981107821E+00    0.6585639387E-03    0.5489047900E-01    0.3841486126E+00
    0.1100000000E+06    0.6213817096E+00    0.2978858175E+00    0.5851875320E-03    0.5497624419E-01    0.3845639096E+00
    0.1300000000E+06    0.6218989046E+00    0.2976889429E+00    0.5312969889E-03    0.5503819207E-01    0.3848983671E+00
    0.1500000000E+06    0.6222762778E+00    0.2975142850E+00    0.4896088102E-03    0.5508551469E-01    0.3851778164E+00
    0.1700000000E+06    0.6225634650E+00    0.2973574882E+00    0.4561449202E-03    0.5512315545E-01    0.3854175113E+00
    0.1900000000E+06    0.6227891272E+00    0.2972153064E+00    0.4285288938E-03    0.5515402137E-01    0.3856271832E+00
    0.2100000000E+06    0.6229709646E+00    0.2970852801E+00    0.4052437772E-03    0.5517994014E-01    0.3858134070E+00
    0.2300000000E+06    0.6231204949E+00    0.2969655107E+00    0.3852704812E-03    0.5520212220E-01    0.3859808270E+00
    0.2500000000E+06    0.6232455341E+00    0.2968545064E+00    0.3678960100E-03    0.5522140328E-01    0.3861328419E+00
    0.2700000000E+06    0.6233515713E+00    0.2967510755E+00    0.3526047590E-03    0.5523838043E-01    0.3862720117E+00
    0.2900000000E+06    0.6234425740E+00    0.2966542520E+00    0.3390134959E-03    0.5525349246E-01    0.3864003115E+00
    0.3100000000E+06    0.6235214804E+00    0.2965632429E+00    0.3268307081E-03    0.5526706980E-01    0.3865192962E+00
    0.3300000000E+06    0.6235905127E+00    0.2964773889E+00    0.3158302211E-03    0.5527936645E-01    0.3866302114E+00
    0.3500000000E+06    0.6236513820E+00    0.2963961368E+00    0.3058335256E-03    0.5529058116E-01    0.3867340702E+00
    0.3700000000E+06    0.6237054276E+00    0.2963190174E+00    0.2966976118E-03    0.5530087197E-01    0.3868317072E+00
    0.3900000000E+06    0.6237537120E+00    0.2962456300E+00    0.2883063915E-03    0.5531036627E-01    0.3869238179E+00
    0.4100000000E+06    0.6237970891E+00    0.2961756291E+00    0.2805645226E-03    0.5531916800E-01    0.3870109881E+00
    0.4300000000E+06    0.6238362531E+00    0.2961087151E+00    0.2733928798E-03    0.5532736296E-01    0.3870937157E+00
    0.4500000000E+06    0.6238717735E+00    0.2960446266E+00    0.2667251766E-03    0.5533502265E-01    0.3871724273E+00
    0.4700000000E+06    0.6239041225E+00    0.2959831339E+00    0.2605054091E-03    0.5534220718E-01    0.3872474910E+00
    0.4900000000E+06    0.6239336944E+00    0.2959240343E+00    0.2546858946E-03    0.5534896753E-01    0.3873192270E+00
    0.1000000000E+06    0.6210442472E+00    0.2979943519E+00    0.6187678840E-03    0.5493719350E-01    0.3843686414E+00
    0.3000000000E+06    0.6234833864E+00    0.2966080646E+00    0.3327614698E-03    0.5526045559E-01    0.3864608841E+00
    0.5000000000E+06    0.6239475448E+00    0.2958953248E+00    0.2519132249E-03    0.5535220249E-01    0.3873539360E+00
    0.7000000000E+06    0.6241372308E+00    0.2954121188E+00    0.2100421948E-03    0.5540250318E-01    0.3879260724E+00
    0.9000000000E+06    0.6242375171E+00    0.2950458673E+00    0.1834706846E-03    0.5543646323E-01    0.3883471205E+00
    0.1100000000E+07    0.6242980808E+00    0.2947507399E+00    0.1647265727E-03    0.5546187962E-01    0.3886801492E+00
    0.1300000000E+07    0.6243377427E+00    0.2945034988E+00    0.1506099286E-03    0.5548210195E-01    0.3889555404E+00
    0.1500000000E+07    0.6243651558E+00    0.2942907202E+00    0.1394933194E-03    0.5549885404E-01    0.3891902624E+00
    0.1700000000E+07    0.6243848328E+00    0.2941039422E+00    0.1304508131E-03    0.5551313268E-01    0.3893947547E+00
    0.1900000000E+07    0.6243993470E+00    0.2939374841E+00    0.1229120038E-03    0.5552556338E-01    0.3895758971E+00
    0.2100000000E+07    0.6244102669E+00    0.2937873468E+00    0.1165039570E-03    0.5553656321E-01    0.3897384622E+00
    0.2300000000E+07    0.6244185995E+00    0.2936506075E+00    0.1109712916E-03    0.5554642359E-01    0.3898858966E+00
    0.2500000000E+07    0.6244250188E+00    0.2935250654E+00    0.1061325163E-03    0.5555535584E-01    0.3900207697E+00
    0.2700000000E+07    0.6244299912E+00    0.2934090214E+00    0.1018546685E-03    0.5556351791E-01    0.3901450485E+00
    0.2900000000E+07    0.6244338490E+00    0.2933011364E+00    0.9803783233E-04    0.5557103087E-01    0.3902602719E+00
    0.3100000000E+07    0.6244368345E+00    0.2932003361E+00    0.9460529090E-04    0.5557798951E-01    0.3903676666E+00
    0.3300000000E+07    0.6244391283E+00    0.2931057457E+00    0.9149703982E-04    0.5558446939E-01    0.3904682260E+00
    0.3500000000E+07    0.6244408670E+00    0.2930166430E+00    0.8866538645E-04    0.5559053169E-01    0.3905627659E+00
    0.3700000000E+07    0.6244421560E+00    0.2929324251E+00    0.8607188608E-04    0.5559622661E-01    0.3906519645E+00
    0.3900000000E+07    0.6244430773E+00    0.2928525834E+00    0.8368516052E-04    0.5560159589E-01    0.3907363917E+00
    0.4100000000E+07    0.6244436959E+00    0.2927766847E+00    0.8147931371E-04    0.5560667453E-01    0.3908165306E+00
    0.4300000000E+07    0.6244440636E+00    0.2927043573E+00    0.7943276058E-04    0.5561149223E-01    0.3908927949E+00
    0.4500000000E+07    0.6244442221E+00    0.2926352798E+00    0.7752734760E-04    0.5561607436E-01    0.3909655409E+00
    0.4700000000E+07    0.6244442054E+00    0.2925691723E+00    0.7574768288E-04    0.5562044278E-01    0.3910350783E+00
    0.4900000000E+07    0.6244440413E+00    0.2925057895E+00    0.7408061933E-04    0.5562461646E-01    0.3911016775E+00
    0.1000000000E+07    0.6242712292E+00    0.2948911839E+00    0.1733738609E-03    0.5544997454E-01    0.3885222959E+00
    0.3000000000E+07    0.6244354383E+00    0.2932499094E+00    0.9627760723E-04    0.5557457437E-01    0.3903148811E+00
    0.5000000000E+07    0.6244439113E+00    0.2924750513E+00    0.7328571721E-04    0.5562663552E-01    0.3911339506E+00
    0.7000000000E+07    0.6244374739E+00    0.2919621981E+00    0.6123502553E-04    0.5565989827E-01    0.3916702322E+00
    0.9000000000E+07    0.6244283186E+00    0.2915781719E+00    0.5354738887E-04    0.5568437389E-01    0.3920694524E+00
    0.1100000000E+08    0.6244189356E+00    0.2912710442E+00    0.4810854971E-04    0.5570374318E-01    0.3923875216E+00
    0.1300000000E+08    0.6244099708E+00    0.2910150847E+00    0.4400490611E-04    0.5571977166E-01    0.3926518844E+00
    0.1500000000E+08    0.6244015815E+00    0.2907956476E+00    0.4076930862E-04    0.5573344331E-01    0.3928780629E+00
    0.1700000000E+08    0.6243937747E+00    0.2906035968E+00    0.3813501827E-04    0.5574536289E-01    0.3930756950E+00
    0.1900000000E+08    0.6243865108E+00    0.2904328467E+00    0.3593729529E-04    0.5575592871E-01    0.3932511770E+00
    0.2100000000E+08    0.6243797376E+00    0.2902791396E+00    0.3406822690E-04    0.5576541706E-01    0.3934089714E+00
    0.2300000000E+08    0.6243734036E+00    0.2901393791E+00    0.3245380694E-04    0.5577402747E-01    0.3935523152E+00
    0.2500000000E+08    0.6243674615E+00    0.2900112432E+00    0.3104138012E-04    0.5578190871E-01    0.3936836316E+00
    0.2700000000E+08    0.6243618696E+00    0.2898929455E+00    0.2979233393E-04    0.5578917467E-01    0.3938047810E+00
