  Pressure (Pa) 22mC5-400 (mol/kg) 3mC6-400 (mol/kg) 33mC5-400 (mol/kg) 23mC5-400 (mol/kg) C7-400 (mol/kg)
    0.1000000000E+01    0.1063532075E-02    0.2594060191E-02    0.1919090455E-03    0.9337205844E-04    0.1515503199E-01
    0.3000000000E+01    0.3178527508E-02    0.7394438151E-02    0.5513302163E-03    0.2790575207E-03    0.4321068445E-01
    0.5000000000E+01    0.5277591370E-02    0.1173910474E-01    0.8821898798E-03    0.4633454797E-03    0.6861618944E-01
    0.7000000000E+01    0.7360913027E-02    0.1568994678E-01    0.1188468675E-02    0.6462525425E-03    0.9173086451E-01
    0.9000000000E+01    0.9428678818E-02    0.1929813288E-01    0.1473432667E-02    0.8277950509E-03    0.1128518465E+00
    0.1100000000E+02    0.1148107212E-01    0.2260633722E-01    0.1739785027E-02    0.1007989086E-02    0.1322269865E+00
    0.1300000000E+02    0.1351827339E-01    0.2565043180E-01    0.1989780935E-02    0.1186850476E-02    0.1500646634E+00
    0.1500000000E+02    0.1554046026E-01    0.2846078961E-01    0.2225315662E-02    0.1364394796E-02    0.1665413419E+00
    0.1700000000E+02    0.1754780754E-01    0.3106329937E-01    0.2447992832E-02    0.1540637379E-02    0.1818074589E+00
    0.1900000000E+02    0.1954048733E-01    0.3348016352E-01    0.2659177850E-02    0.1715593316E-02    0.1959920521E+00
    0.2100000000E+02    0.2151866902E-01    0.3573053172E-01    0.2860040109E-02    0.1889277464E-02    0.2092064353E+00
    0.2300000000E+02    0.2348251939E-01    0.3783100801E-01    0.3051586609E-02    0.2061704448E-02    0.2215471416E+00
    0.2500000000E+02    0.2543220260E-01    0.3979606021E-01    0.3234688962E-02    0.2232888666E-02    0.2330982981E+00
    0.2700000000E+02    0.2736788031E-01    0.4163835266E-01    0.3410105228E-02    0.2402844294E-02    0.2439335577E+00
    0.2900000000E+02    0.2928971170E-01    0.4336901876E-01    0.3578497709E-02    0.2571585293E-02    0.2541176803E+00
    0.3100000000E+02    0.3119785348E-01    0.4499788547E-01    0.3740447524E-02    0.2739125406E-02    0.2637078365E+00
    0.3300000000E+02    0.3309246000E-01    0.4653365948E-01    0.3896466638E-02    0.2905478170E-02    0.2727546876E+00
    0.3500000000E+02    0.3497368324E-01    0.4798408237E-01    0.4047007833E-02    0.3070656913E-02    0.2813032871E+00
    0.3700000000E+02    0.3684167291E-01    0.4935606077E-01    0.4192473020E-02    0.3234674764E-02    0.2893938358E+00
    0.3900000000E+02    0.3869657642E-01    0.5065577589E-01    0.4333220207E-02    0.3397544653E-02    0.2970623186E+00
    0.4100000000E+02    0.4053853901E-01    0.5188877639E-01    0.4469569360E-02    0.3559279315E-02    0.3043410428E+00
    0.4300000000E+02    0.4236770371E-01    0.5306005719E-01    0.4601807368E-02    0.3719891296E-02    0.3112590968E+00
    0.4500000000E+02    0.4418421144E-01    0.5417412693E-01    0.4730192249E-02    0.3879392953E-02    0.3178427414E+00
    0.4700000000E+02    0.4598820101E-01    0.5523506568E-01    0.4854956743E-02    0.4037796461E-02    0.3241157451E+00
    0.4900000000E+02    0.4777980919E-01    0.5624657471E-01    0.4976311387E-02    0.4195113814E-02    0.3300996734E+00
    0.1000000000E+02    0.1045678568E-01    0.2098734823E-01    0.1608784996E-02    0.9180596327E-03    0.1227437959E+00
    0.3000000000E+02    0.3024548409E-01    0.4419560857E-01    0.3660244457E-02    0.2655504609E-02    0.2589836967E+00
    0.5000000000E+02    0.4867101244E-01    0.5673485683E-01    0.5035770393E-02    0.4273368881E-02    0.3329894331E+00
    0.7000000000E+02    0.6587691714E-01    0.6457960379E-01    0.6084087089E-02    0.5784241520E-02    0.3795382189E+00
    0.9000000000E+02    0.8198698916E-01    0.6994582779E-01    0.6931008875E-02    0.7198979244E-02    0.4115521423E+00
    0.1100000000E+03    0.9710854718E-01    0.7384478135E-01    0.7635203843E-02    0.8526994302E-02    0.4349385211E+00
    0.1300000000E+03    0.1113350896E+00    0.7680367370E-01    0.8229491253E-02    0.9776487018E-02    0.4527824926E+00
    0.1500000000E+03    0.1247484525E+00    0.7912430230E-01    0.8734845388E-02    0.1095463499E-01    0.4668532234E+00
    0.1700000000E+03    0.1374205764E+00    0.8099187128E-01    0.9166018377E-02    0.1206774806E-01    0.4782383117E+00
    0.1900000000E+03    0.1494149631E+00    0.8252632458E-01    0.9534108327E-02    0.1312139598E-01    0.4876433672E+00
    0.2100000000E+03    0.1607878825E+00    0.8380875505E-01    0.9847862722E-02    0.1412051432E-01    0.4955462947E+00
    0.2300000000E+03    0.1715893794E+00    0.8489595056E-01    0.1011440234E-01    0.1506949269E-01    0.5022823618E+00
    0.2500000000E+03    0.1818641160E+00    0.8582886089E-01    0.1033965615E-01    0.1597224866E-01    0.5080937657E+00
    0.2700000000E+03    0.1916520825E+00    0.8663775630E-01    0.1052864096E-01    0.1683229004E-01    0.5131598638E+00
    0.2900000000E+03    0.2009891973E+00    0.8734549362E-01    0.1068565207E-01    0.1765276754E-01    0.5176163337E+00
    0.3100000000E+03    0.2099078171E+00    0.8796965307E-01    0.1081439978E-01    0.1843651952E-01    0.5215677224E+00
    0.3300000000E+03    0.2184371731E+00    0.8852397656E-01    0.1091811099E-01    0.1918611017E-01    0.5250959007E+00
    0.3500000000E+03    0.2266037431E+00    0.8901935993E-01    0.1099960748E-01    0.1990386221E-01    0.5282659030E+00
    0.3700000000E+03    0.2344315729E+00    0.8946455270E-01    0.1106136762E-01    0.2059188507E-01    0.5311300496E+00
    0.3900000000E+03    0.2419425529E+00    0.8986666111E-01    0.1110557618E-01    0.2125209909E-01    0.5337309130E+00
    0.4100000000E+03    0.2491566579E+00    0.9023151609E-01    0.1113416507E-01    0.2188625665E-01    0.5361034906E+00
    0.4300000000E+03    0.2560921555E+00    0.9056394664E-01    0.1114884717E-01    0.2249596033E-01    0.5382768202E+00
    0.4500000000E+03    0.2627657877E+00    0.9086798584E-01    0.1115114472E-01    0.2308267895E-01    0.5402751989E+00
    0.4700000000E+03    0.2691929299E+00    0.9114702808E-01    0.1114241334E-01    0.2364776142E-01    0.5421191142E+00
    0.4900000000E+03    0.2753877299E+00    0.9140395040E-01    0.1112386246E-01    0.2419244899E-01    0.5438259638E+00
    0.1000000000E+03    0.8966519228E-01    0.7203855369E-01    0.7298517101E-02    0.7873288585E-02    0.4240888872E+00
    0.3000000000E+03    0.2054989235E+00    0.8766708510E-01    0.1075334685E-01    0.1804906794E-01    0.5196495934E+00
    0.5000000000E+03    0.2784021176E+00    0.9152489796E-01    0.1111124705E-01    0.2445750580E-01    0.5446327217E+00
    0.7000000000E+03    0.3291756069E+00    0.9322377601E-01    0.1055167804E-01    0.2892337510E-01    0.5562543969E+00
    0.9000000000E+03    0.3668306614E+00    0.9415849493E-01    0.9731909340E-02    0.3223734587E-01    0.5630067220E+00
    0.1100000000E+04    0.3959755481E+00    0.9473853895E-01    0.8882486557E-02    0.3480383403E-01    0.5674343884E+00
    0.1300000000E+04    0.4192448574E+00    0.9512665259E-01    0.8085194125E-02    0.3685409218E-01    0.5705688231E+00
    0.1500000000E+04    0.4382689426E+00    0.9540000125E-01    0.7365277200E-02    0.3853125325E-01    0.5729085368E+00
    0.1700000000E+04    0.4541176856E+00    0.9559972337E-01    0.6725814142E-02    0.3992926332E-01    0.5747243419E+00
    0.1900000000E+04    0.4675255190E+00    0.9574967316E-01    0.6161455661E-02    0.4111262551E-01    0.5761762102E+00
    0.2100000000E+04    0.4790148893E+00    0.9586458744E-01    0.5664123628E-02    0.4212723380E-01    0.5773648023E+00
    0.2300000000E+04    0.4889683448E+00    0.9595403315E-01    0.5225382019E-02    0.4300669951E-01    0.5783566681E+00
    0.2500000000E+04    0.4976727920E+00    0.9602447360E-01    0.4837376993E-02    0.4377623568E-01    0.5791975918E+00
    0.2700000000E+04    0.5053478073E+00    0.9608042086E-01    0.4493151626E-02    0.4445514220E-01    0.5799201199E+00
    0.2900000000E+04    0.5121643795E+00    0.9612511238E-01    0.4186690329E-02    0.4505845122E-01    0.5805480315E+00
    0.3100000000E+04    0.5182576846E+00    0.9616092578E-01    0.3912852924E-02    0.4559804879E-01    0.5810991104E+00
    0.3300000000E+04    0.5237360113E+00    0.9618964248E-01    0.3667270800E-02    0.4608345857E-01    0.5815869259E+00
    0.3500000000E+04    0.5286871344E+00    0.9621262060E-01    0.3446237341E-02    0.4652240159E-01    0.5820220141E+00
    0.3700000000E+04    0.5331829518E+00    0.9623091143E-01    0.3246606022E-02    0.4692120346E-01    0.5824126825E+00
    0.3900000000E+04    0.5372829156E+00    0.9624533975E-01    0.3065700906E-02    0.4728509585E-01    0.5827655708E+00
    0.4100000000E+04    0.5410366101E+00    0.9625656040E-01    0.2901240285E-02    0.4761844287E-01    0.5830860506E+00
    0.4300000000E+04    0.5444857130E+00    0.9626509891E-01    0.2751272572E-02    0.4792491345E-01    0.5833785149E+00
    0.4500000000E+04    0.5476655073E+00    0.9627138107E-01    0.2614122912E-02    0.4820761419E-01    0.5836465917E+00
    0.4700000000E+04    0.5506060593E+00    0.9627575488E-01    0.2488348908E-02    0.4846919285E-01    0.5838933044E+00
    0.4900000000E+04    0.5533331453E+00    0.9627850700E-01    0.2372703951E-02    0.4871191985E-01    0.5841211927E+00
    0.1000000000E+04    0.3822710867E+00    0.9447969918E-01    0.9303821754E-02    0.3359684079E-01    0.5654282073E+00
    0.3000000000E+04    0.5152941270E+00    0.9614400590E-01    0.4045983460E-02    0.4533557078E-01    0.5808322443E+00
    0.5000000000E+04    0.5546237051E+00    0.9627935089E-01    0.2318336248E-02    0.4882683651E-01    0.5842287626E+00
    0.7000000000E+04    0.5732893053E+00    0.9625181383E-01    0.1564221296E-02    0.5049338242E-01    0.5857738119E+00
    0.9000000000E+04    0.5841407178E+00    0.9618893610E-01    0.1161943354E-02    0.5146784909E-01    0.5866777020E+00
    0.1100000000E+05    0.5912212085E+00    0.9611861574E-01    0.9183984750E-03    0.5210735681E-01    0.5872811311E+00
    0.1300000000E+05    0.5962001474E+00    0.9604893407E-01    0.7577099263E-03    0.5255964524E-01    0.5877182680E+00
    0.1500000000E+05    0.5998900341E+00    0.9598242610E-01    0.6449049715E-03    0.5289676217E-01    0.5880530168E+00
    0.1700000000E+05    0.6027330514E+00    0.9591977893E-01    0.5619241464E-03    0.5315799455E-01    0.5883198511E+00
    0.1900000000E+05    0.6049902031E+00    0.9586101092E-01    0.4986157965E-03    0.5336657723E-01    0.5885390882E+00
    0.2100000000E+05    0.6068253798E+00    0.9580589833E-01    0.4488854399E-03    0.5353712840E-01    0.5887235234E+00
    0.2300000000E+05    0.6083466337E+00    0.9575414180E-01    0.4088771094E-03    0.5367930450E-01    0.5888816419E+00
    0.2500000000E+05    0.6096280690E+00    0.9570543334E-01    0.3760442879E-03    0.5379974099E-01    0.5890193084E+00
    0.2700000000E+05    0.6107221912E+00    0.9565948270E-01    0.3486441574E-03    0.5390314843E-01    0.5891407167E+00
    0.2900000000E+05    0.6116672349E+00    0.9561602643E-01    0.3254474361E-03    0.5399296375E-01    0.5892489515E+00
    0.3100000000E+05    0.6124917002E+00    0.9557482952E-01    0.3055643822E-03    0.5407175380E-01    0.5893463372E+00
    0.3300000000E+05    0.6132172630E+00    0.9553568395E-01    0.2883364484E-03    0.5414147459E-01    0.5894346618E+00
    0.3500000000E+05    0.6138607009E+00    0.9549840613E-01    0.2732665849E-03    0.5420364305E-01    0.5895153254E+00
    0.3700000000E+05    0.6144352022E+00    0.9546283401E-01    0.2599731117E-03    0.5425945387E-01    0.5895894417E+00
    0.3900000000E+05    0.6149512760E+00    0.9542882438E-01    0.2481584180E-03    0.5430986089E-01    0.5896579091E+00
    0.4100000000E+05    0.6154173998E+00    0.9539625036E-01    0.2375872462E-03    0.5435563505E-01    0.5897214609E+00
    0.4300000000E+05    0.6158404873E+00    0.9536499920E-01    0.2280713239E-03    0.5439740626E-01    0.5897807029E+00
    0.4500000000E+05    0.6162262332E+00    0.9533497045E-01    0.2194582936E-03    0.5443569438E-01    0.5898361399E+00
    0.4700000000E+05    0.6165793699E+00    0.9530607428E-01    0.2116236081E-03    0.5447093227E-01    0.5898881969E+00
    0.4900000000E+05    0.6169038632E+00    0.9527823014E-01    0.2044645108E-03    0.5450348331E-01    0.5899372343E+00
    0.1000000000E+05    0.5880184587E+00    0.9615399369E-01    0.1026502037E-02    0.5181763154E-01    0.5870061334E+00
    0.3000000000E+05    0.6120930514E+00    0.9559515916E-01    0.3151373187E-03    0.5403360271E-01    0.5892988782E+00
    0.5000000000E+05    0.6170564355E+00    0.9526467964E-01    0.2011110158E-03    0.5451884921E-01    0.5899607186E+00
    0.7000000000E+05    0.6191963900E+00    0.9503463419E-01    0.1547232616E-03    0.5473967852E-01    0.5903276008E+00
    0.9000000000E+05    0.6203882218E+00    0.9485842012E-01    0.1290533947E-03    0.5486906028E-01    0.5905773415E+00
    0.1100000000E+06    0.6211475544E+00    0.9471566487E-01    0.1124766268E-03    0.5495554903E-01    0.5907654529E+00
    0.1300000000E+06    0.6216734954E+00    0.9459570697E-01    0.1007378628E-03    0.5501826311E-01    0.5909158949E+00
    0.1500000000E+06    0.6220591928E+00    0.9449227713E-01    0.9190279845E-04    0.5506631605E-01    0.5910410510E+00
    0.1700000000E+06    0.6223540470E+00    0.9440137833E-01    0.8496040826E-04    0.5510463007E-01    0.5911481098E+00
    0.1900000000E+06    0.6225866958E+00    0.9432030653E-01    0.7932794828E-04    0.5513610986E-01    0.5912415985E+00
    0.2100000000E+06    0.6227748861E+00    0.9424714738E-01    0.7464430268E-04    0.5516258707E-01    0.5913245454E+00
    0.2300000000E+06    0.6229302015E+00    0.9418049605E-01    0.7067285534E-04    0.5518527784E-01    0.5913990730E+00
    0.2500000000E+06    0.6230605245E+00    0.9411929122E-01    0.6725154689E-04    0.5520502369E-01    0.5914667245E+00
    0.2700000000E+06    0.6231714053E+00    0.9406271152E-01    0.6426531467E-04    0.5522242697E-01    0.5915286564E+00
    0.2900000000E+06    0.6232668646E+00    0.9401010826E-01    0.6162999141E-04    0.5523793120E-01    0.5915857572E+00
    0.3100000000E+06    0.6233498872E+00    0.9396096025E-01    0.5928244494E-04    0.5525187083E-01    0.5916387241E+00
    0.3300000000E+06    0.6234227347E+00    0.9391484239E-01    0.5717429642E-04    0.5526450332E-01    0.5916881139E+00
    0.3500000000E+06    0.6234871524E+00    0.9387140348E-01    0.5526778155E-04    0.5527603043E-01    0.5917343784E+00
    0.3700000000E+06    0.6235445084E+00    0.9383034998E-01    0.5353294334E-04    0.5528661274E-01    0.5917778890E+00
    0.3900000000E+06    0.6235958905E+00    0.9379143408E-01    0.5194567943E-04    0.5529637982E-01    0.5918189548E+00
    0.4100000000E+06    0.6236421743E+00    0.9375444464E-01    0.5048635329E-04    0.5530543756E-01    0.5918578357E+00
    0.4300000000E+06    0.6236840726E+00    0.9371920035E-01    0.4913878701E-04    0.5531387336E-01    0.5918947523E+00
    0.4500000000E+06    0.6237221714E+00    0.9368554429E-01    0.4788951774E-04    0.5532176018E-01    0.5919298935E+00
    0.4700000000E+06    0.6237569572E+00    0.9365333982E-01    0.4672724022E-04    0.5532915937E-01    0.5919634222E+00
    0.4900000000E+06    0.6237888368E+00    0.9362246716E-01    0.4564238281E-04    0.5533612304E-01    0.5919954799E+00
    0.1000000000E+06    0.6208057851E+00    0.9478366751E-01    0.1199770549E-03    0.5491612178E-01    0.5906772087E+00
    0.3000000000E+06    0.6233097751E+00    0.9398513087E-01    0.6042355901E-04    0.5524507898E-01    0.5916127198E+00
    0.5000000000E+06    0.6238037962E+00    0.9360749680E-01    0.4512638761E-04    0.5533945571E-01    0.5920109964E+00
    0.7000000000E+06    0.6240109852E+00    0.9335790436E-01    0.3739908720E-04    0.5539129899E-01    0.5922673459E+00
    0.9000000000E+06    0.6241231438E+00    0.9317126814E-01    0.3255298665E-04    0.5542630584E-01    0.5924567685E+00
    0.1100000000E+07    0.6241924650E+00    0.9302218506E-01    0.2915826509E-04    0.5545249459E-01    0.5926070864E+00
    0.1300000000E+07    0.6242389460E+00    0.9289806957E-01    0.2661350153E-04    0.5547331844E-01    0.5927317227E+00
    0.1500000000E+07    0.6242718733E+00    0.9279176128E-01    0.2461624769E-04    0.5549055701E-01    0.5928381899E+00
    0.1700000000E+07    0.6242961354E+00    0.9269879571E-01    0.2299575841E-04    0.5550524020E-01    0.5929311199E+00
    0.1900000000E+07    0.6243145447E+00    0.9261620093E-01    0.2164744884E-04    0.5551801459E-01    0.5930135716E+00
    0.2100000000E+07    0.6243288301E+00    0.9254189858E-01    0.2050324101E-04    0.5552931141E-01    0.5930876710E+00
    0.2300000000E+07    0.6243401110E+00    0.9247437821E-01    0.1951667860E-04    0.5553943195E-01    0.5931549564E+00
    0.2500000000E+07    0.6243491425E+00    0.9241250752E-01    0.1865484058E-04    0.5554859472E-01    0.5932165763E+00
    0.2700000000E+07    0.6243564518E+00    0.9235541589E-01    0.1789366577E-04    0.5555696302E-01    0.5932734113E+00
    0.2900000000E+07    0.6243624174E+00    0.9230241948E-01    0.1721510956E-04    0.5556466199E-01    0.5933261513E+00
    0.3100000000E+07    0.6243673175E+00    0.9225297137E-01    0.1660534090E-04    0.5557178959E-01    0.5933753470E+00
    0.3300000000E+07    0.6243713611E+00    0.9220662730E-01    0.1605355806E-04    0.5557842389E-01    0.5934214449E+00
    0.3500000000E+07    0.6243747078E+00    0.9216302148E-01    0.1555118693E-04    0.5558462807E-01    0.5934648121E+00
    0.3700000000E+07    0.6243774815E+00    0.9212184916E-01    0.1509132408E-04    0.5559045402E-01    0.5935057541E+00
    0.3900000000E+07    0.6243797796E+00    0.9208285374E-01    0.1466834089E-04    0.5559594478E-01    0.5935445278E+00
    0.4100000000E+07    0.6243816798E+00    0.9204581715E-01    0.1427759650E-04    0.5560113651E-01    0.5935813512E+00
    0.4300000000E+07    0.6243832447E+00    0.9201055252E-01    0.1391522593E-04    0.5560605984E-01    0.5936164111E+00
    0.4500000000E+07    0.6243845251E+00    0.9197689846E-01    0.1357798118E-04    0.5561074096E-01    0.5936498688E+00
    0.4700000000E+07    0.6243855627E+00    0.9194471468E-01    0.1326311032E-04    0.5561520240E-01    0.5936818642E+00
    0.4900000000E+07    0.6243863920E+00    0.9191387842E-01    0.1296826430E-04    0.5561946372E-01    0.5937125198E+00
    0.1000000000E+07    0.6241615324E+00    0.9309299644E-01    0.3072204774E-04    0.5544022957E-01    0.5925357817E+00
    0.3000000000E+07    0.6243649862E+00    0.9227728174E-01    0.1690236204E-04    0.5556829193E-01    0.5933511622E+00
    0.5000000000E+07    0.6243867378E+00    0.9189893135E-01    0.1282770848E-04    0.5562152475E-01    0.5937273792E+00
    0.7000000000E+07    0.6243876862E+00    0.9165020984E-01    0.1069965580E-04    0.5565543895E-01    0.5939746728E+00
    0.9000000000E+07    0.6243834357E+00    0.9146472164E-01    0.9344833286E-05    0.5568034697E-01    0.5941591742E+00
    0.1100000000E+08    0.6243776305E+00    0.9131679667E-01    0.8387664828E-05    0.5570003147E-01    0.5943063851E+00
    0.1300000000E+08    0.6243714328E+00    0.9119378156E-01    0.7666240102E-05    0.5571630360E-01    0.5944288647E+00
    0.1500000000E+08    0.6243652712E+00    0.9108850071E-01    0.7097903343E-05    0.5573017129E-01    0.5945337330E+00
    0.1700000000E+08    0.6243593112E+00    0.9099649041E-01    0.6635515859E-05    0.5574225326E-01    0.5946254193E+00
    0.1900000000E+08    0.6243536125E+00    0.9091478426E-01    0.6249992536E-05    0.5575295665E-01    0.5947068670E+00
    0.2100000000E+08    0.6243481896E+00    0.9084131059E-01    0.5922296354E-05    0.5576256360E-01    0.5947801323E+00
    0.2300000000E+08    0.6243430369E+00    0.9077456536E-01    0.5639380651E-05    0.5577127770E-01    0.5948467082E+00
    0.2500000000E+08    0.6243381405E+00    0.9071342210E-01    0.5391968206E-05    0.5577925067E-01    0.5949077130E+00
    0.2700000000E+08    0.6243334834E+00    0.9065701531E-01    0.5173259496E-05    0.5578659859E-01    0.5949640064E+00
