  Pressure (Pa) 22mC5-400 (mol/kg) 3mC6-400 (mol/kg) 33mC5-400 (mol/kg) 23mC5-400 (mol/kg) C7-400 (mol/kg)
    0.1000000000E+01    0.1062623297E-02    0.1589344357E-02    0.6502728931E-03    0.3731693118E-03    0.1719318546E-02
    0.3000000000E+01    0.3170437375E-02    0.4714988223E-02    0.1926573731E-02    0.1113390964E-02    0.5100836046E-02
    0.5000000000E+01    0.5255361693E-02    0.7771893378E-02    0.3171422913E-02    0.1845580704E-02    0.8408331331E-02
    0.7000000000E+01    0.7317811395E-02    0.1076235183E-01    0.4385831133E-02    0.2569884174E-02    0.1164426886E-01
    0.9000000000E+01    0.9358191441E-02    0.1368855428E-01    0.5570766403E-02    0.3286443442E-02    0.1481100423E-01
    0.1100000000E+02    0.1137689691E-01    0.1655259566E-01    0.6727156317E-02    0.3995397114E-02    0.1791079015E-01
    0.1300000000E+02    0.1337431330E-01    0.1935648033E-01    0.7855890166E-02    0.4696880433E-02    0.2094578202E-01
    0.1500000000E+02    0.1535081683E-01    0.2210212688E-01    0.8957820924E-02    0.5391025385E-02    0.2391804308E-01
    0.1700000000E+02    0.1730677469E-01    0.2479137276E-01    0.1003376711E-01    0.6077960792E-02    0.2682954937E-01
    0.1900000000E+02    0.1924254533E-01    0.2742597845E-01    0.1108451453E-01    0.6757812409E-02    0.2968219423E-01
    0.2100000000E+02    0.2115847872E-01    0.3000763150E-01    0.1211081792E-01    0.7430703015E-02    0.3247779262E-01
    0.2300000000E+02    0.2305491657E-01    0.3253795026E-01    0.1311340248E-01    0.8096752497E-02    0.3521808516E-01
    0.2500000000E+02    0.2493219263E-01    0.3501848740E-01    0.1409296532E-01    0.8756077937E-02    0.3790474186E-01
    0.2700000000E+02    0.2679063284E-01    0.3745073322E-01    0.1505017686E-01    0.9408793694E-02    0.4053936572E-01
    0.2900000000E+02    0.2863055563E-01    0.3983611872E-01    0.1598568205E-01    0.1005501148E-01    0.4312349601E-01
    0.3100000000E+02    0.3045227210E-01    0.4217601860E-01    0.1690010163E-01    0.1069484044E-01    0.4565861147E-01
    0.3300000000E+02    0.3225608622E-01    0.4447175392E-01    0.1779403323E-01    0.1132838722E-01    0.4814613323E-01
    0.3500000000E+02    0.3404229507E-01    0.4672459475E-01    0.1866805250E-01    0.1195575605E-01    0.5058742758E-01
    0.3700000000E+02    0.3581118899E-01    0.4893576262E-01    0.1952271406E-01    0.1257704878E-01    0.5298380866E-01
    0.3900000000E+02    0.3756305180E-01    0.5110643278E-01    0.2035855252E-01    0.1319236499E-01    0.5533654084E-01
    0.4100000000E+02    0.3929816097E-01    0.5323773639E-01    0.2117608333E-01    0.1380180204E-01    0.5764684114E-01
    0.4300000000E+02    0.4101678780E-01    0.5533076259E-01    0.2197580367E-01    0.1440545510E-01    0.5991588139E-01
    0.4500000000E+02    0.4271919761E-01    0.5738656044E-01    0.2275819327E-01    0.1500341726E-01    0.6214479030E-01
    0.4700000000E+02    0.4440564985E-01    0.5940614070E-01    0.2352371513E-01    0.1559577955E-01    0.6433465548E-01
    0.4900000000E+02    0.4607639832E-01    0.6139047763E-01    0.2427281631E-01    0.1618263100E-01    0.6648652525E-01
    0.1000000000E+02    0.1037022918E-01    0.1512821777E-01    0.6152473075E-02    0.3641862447E-02    0.1636912894E-01
    0.3000000000E+02    0.2954367050E-01    0.4101167057E-01    0.1644548966E-01    0.1037571784E-01    0.4439709046E-01
    0.5000000000E+02    0.4690596143E-01    0.6236972472E-01    0.2464134464E-01    0.1647401746E-01    0.6754852917E-01
    0.7000000000E+02    0.6273052948E-01    0.8031598945E-01    0.3124744232E-01    0.2203269080E-01    0.8702156098E-01
    0.9000000000E+02    0.7723702878E-01    0.9562455380E-01    0.3662245023E-01    0.2712880351E-01    0.1036493095E+00
    0.1100000000E+03    0.9060395626E-01    0.1088504236E+00    0.4102727850E-01    0.3182498280E-01    0.1180293149E+00
    0.1300000000E+03    0.1029778864E+00    0.1204020598E+00    0.4465629334E-01    0.3617265686E-01    0.1306014929E+00
    0.1500000000E+03    0.1144803332E+00    0.1305868649E+00    0.4765721690E-01    0.4021446197E-01    0.1416970322E+00
    0.1700000000E+03    0.1252129190E+00    0.1396407022E+00    0.5014425381E-01    0.4398605571E-01    0.1515701322E+00
    0.1900000000E+03    0.1352613170E+00    0.1477476268E+00    0.5220700548E-01    0.4751750003E-01    0.1604192243E+00
    0.2100000000E+03    0.1446982928E+00    0.1550534204E+00    0.5391667729E-01    0.5083432820E-01    0.1684015290E+00
    0.2300000000E+03    0.1535860756E+00    0.1616750860E+00    0.5533049612E-01    0.5395837684E-01    0.1756432726E+00
    0.2500000000E+03    0.1619782257E+00    0.1677076458E+00    0.5649491504E-01    0.5690844083E-01    0.1822470017E+00
    0.2700000000E+03    0.1699211169E+00    0.1732290953E+00    0.5744797776E-01    0.5970079368E-01    0.1882969158E+00
    0.2900000000E+03    0.1774551254E+00    0.1783040719E+00    0.5822108963E-01    0.6234960441E-01    0.1938628168E+00
    0.3100000000E+03    0.1846155887E+00    0.1829866129E+00    0.5884036228E-01    0.6486727406E-01    0.1990030788E+00
    0.3300000000E+03    0.1914335858E+00    0.1873222549E+00    0.5932764688E-01    0.6726470950E-01    0.2037669087E+00
    0.3500000000E+03    0.1979365764E+00    0.1913496518E+00    0.5970133712E-01    0.6955154754E-01    0.2081960901E+00
    0.3700000000E+03    0.2041489272E+00    0.1951018366E+00    0.5997699932E-01    0.7173633970E-01    0.2123263417E+00
    0.3900000000E+03    0.2100923486E+00    0.1986072134E+00    0.6016787161E-01    0.7382670542E-01    0.2161883873E+00
    0.4100000000E+03    0.2157862587E+00    0.2018903467E+00    0.6028526266E-01    0.7582945977E-01    0.2198088059E+00
    0.4300000000E+03    0.2212480888E+00    0.2049725936E+00    0.6033887262E-01    0.7775072057E-01    0.2232107135E+00
    0.4500000000E+03    0.2264935403E+00    0.2078726143E+00    0.6033705334E-01    0.7959599867E-01    0.2264143138E+00
    0.4700000000E+03    0.2315368027E+00    0.2106067886E+00    0.6028702078E-01    0.8137027431E-01    0.2294373470E+00
    0.4900000000E+03    0.2363907388E+00    0.2131895563E+00    0.6019502946E-01    0.8307806218E-01    0.2322954571E+00
    0.1000000000E+03    0.8405311997E-01    0.1024694932E+00    0.3893270386E-01    0.2952343968E-01    0.1110897694E+00
    0.3000000000E+03    0.1810800160E+00    0.1806913726E+00    0.5854850068E-01    0.6362411801E-01    0.1964828850E+00
    0.5000000000E+03    0.2387504057E+00    0.2144282149E+00    0.6013502687E-01    0.8390832057E-01    0.2336670574E+00
    0.7000000000E+03    0.2783526707E+00    0.2336954822E+00    0.5773069797E-01    0.9784724447E-01    0.2550897916E+00
    0.9000000000E+03    0.3076666112E+00    0.2463380018E+00    0.5442895730E-01    0.1081717605E+00    0.2692619067E+00
    0.1100000000E+04    0.3303817528E+00    0.2553539236E+00    0.5111026895E-01    0.1161772294E+00    0.2794468595E+00
    0.1300000000E+04    0.3485425352E+00    0.2621510103E+00    0.4803747800E-01    0.1225815897E+00    0.2871818299E+00
    0.1500000000E+04    0.3634014059E+00    0.2674831136E+00    0.4527283933E-01    0.1278247566E+00    0.2932924790E+00
    0.1700000000E+04    0.3757800553E+00    0.2717927253E+00    0.4280992823E-01    0.1321954099E+00    0.2982648782E+00
    0.1900000000E+04    0.3862447852E+00    0.2753578345E+00    0.4062015016E-01    0.1358925504E+00    0.3024052690E+00
    0.2100000000E+04    0.3952006191E+00    0.2783624764E+00    0.3867000444E-01    0.1390585372E+00    0.3059169554E+00
    0.2300000000E+04    0.4029457555E+00    0.2809336708E+00    0.3692744092E-01    0.1417982057E+00    0.3089406370E+00
    0.2500000000E+04    0.4097049534E+00    0.2831621128E+00    0.3536394736E-01    0.1441905904E+00    0.3115770433E+00
    0.2700000000E+04    0.4156509539E+00    0.2851144137E+00    0.3395494624E-01    0.1462964476E+00    0.3139003471E+00
    0.2900000000E+04    0.4209187362E+00    0.2868406750E+00    0.3267954881E-01    0.1481632621E+00    0.3159664788E+00
    0.3100000000E+04    0.4256152936E+00    0.2883793563E+00    0.3152010064E-01    0.1498286820E+00    0.3178184793E+00
    0.3300000000E+04    0.4298265083E+00    0.2897605052E+00    0.3046169705E-01    0.1513229330E+00    0.3194900578E+00
    0.3500000000E+04    0.4336220891E+00    0.2910079622E+00    0.2949173694E-01    0.1526705543E+00    0.3210080241E+00
    0.3700000000E+04    0.4370591852E+00    0.2921409014E+00    0.2859953636E-01    0.1538916678E+00    0.3223939913E+00
    0.3900000000E+04    0.4401850732E+00    0.2931749313E+00    0.2777600383E-01    0.1550029231E+00    0.3236655941E+00
    0.4100000000E+04    0.4430391842E+00    0.2941228955E+00    0.2701337141E-01    0.1560182097E+00    0.3248373769E+00
    0.4300000000E+04    0.4456546533E+00    0.2949954659E+00    0.2630497361E-01    0.1569492015E+00    0.3259214516E+00
    0.4500000000E+04    0.4480595167E+00    0.2958015877E+00    0.2564506618E-01    0.1578057784E+00    0.3269279934E+00
    0.4700000000E+04    0.4502776475E+00    0.2965488192E+00    0.2502867744E-01    0.1585963550E+00    0.3278656186E+00
    0.4900000000E+04    0.4523294935E+00    0.2972435934E+00    0.2445148621E-01    0.1593281399E+00    0.3287416765E+00
    0.1000000000E+04    0.3196963515E+00    0.2511896137E+00    0.5274798008E-01    0.1124107632E+00    0.2747331258E+00
    0.3000000000E+04    0.4233326211E+00    0.2876314178E+00    0.3208632156E-01    0.1490191064E+00    0.3169169527E+00
    0.5000000000E+04    0.4532986601E+00    0.2975730628E+00    0.2417639205E-01    0.1596739603E+00    0.3291586252E+00
    0.7000000000E+04    0.4671623729E+00    0.3024077851E+00    0.2003032949E-01    0.1646362692E+00    0.3354139481E+00
    0.9000000000E+04    0.4750602733E+00    0.3053090417E+00    0.1742510456E-01    0.1674824366E+00    0.3393361688E+00
    0.1100000000E+05    0.4801311108E+00    0.3072571029E+00    0.1560647339E-01    0.1693224258E+00    0.3420782124E+00
    0.1300000000E+05    0.4836501127E+00    0.3086606926E+00    0.1424831981E-01    0.1706082188E+00    0.3441299854E+00
    0.1500000000E+05    0.4862292459E+00    0.3097222546E+00    0.1318566874E-01    0.1715572081E+00    0.3457384104E+00
    0.1700000000E+05    0.4881975317E+00    0.3105541173E+00    0.1232549326E-01    0.1722865399E+00    0.3470427561E+00
    0.1900000000E+05    0.4897471452E+00    0.3112238692E+00    0.1161101189E-01    0.1728647939E+00    0.3481281339E+00
    0.2100000000E+05    0.4909976528E+00    0.3117747348E+00    0.1100541405E-01    0.1733347372E+00    0.3490497902E+00
    0.2300000000E+05    0.4920272467E+00    0.3122357056E+00    0.1048368005E-01    0.1737244024E+00    0.3498453140E+00
    0.2500000000E+05    0.4928891658E+00    0.3126269850E+00    0.1002814403E-01    0.1740529209E+00    0.3505412651E+00
    0.2700000000E+05    0.4936208869E+00    0.3129631021E+00    0.9625935779E-02    0.1743337911E+00    0.3511570016E+00
    0.2900000000E+05    0.4942495402E+00    0.3132547841E+00    0.9267430210E-02    0.1745768081E+00    0.3517070040E+00
    0.3100000000E+05    0.4947952399E+00    0.3135101300E+00    0.8945267463E-02    0.1747892507E+00    0.3522023449E+00
    0.3300000000E+05    0.4952732086E+00    0.3137353735E+00    0.8653711468E-02    0.1749766406E+00    0.3526516532E+00
    0.3500000000E+05    0.4956951749E+00    0.3139353933E+00    0.8388217090E-02    0.1751432422E+00    0.3530617648E+00
    0.3700000000E+05    0.4960703192E+00    0.3141140644E+00    0.8145130288E-02    0.1752924013E+00    0.3534381740E+00
    0.3900000000E+05    0.4964059280E+00    0.3142745043E+00    0.7921475570E-02    0.1754267799E+00    0.3537853534E+00
    0.4100000000E+05    0.4967078573E+00    0.3144192509E+00    0.7714802250E-02    0.1755485221E+00    0.3541069855E+00
    0.4300000000E+05    0.4969808664E+00    0.3145503911E+00    0.7523071211E-02    0.1756593751E+00    0.3544061335E+00
    0.4500000000E+05    0.4972288621E+00    0.3146696579E+00    0.7344570152E-02    0.1757607761E+00    0.3546853685E+00
    0.4700000000E+05    0.4974550813E+00    0.3147785019E+00    0.7177849219E-02    0.1758539189E+00    0.3549468672E+00
    0.4900000000E+05    0.4976622282E+00    0.3148781472E+00    0.7021671480E-02    0.1759398033E+00    0.3551924859E+00
    0.1000000000E+05    0.4778464048E+00    0.3063695860E+00    0.1644333410E-01    0.1684918356E+00    0.3408157834E+00
    0.3000000000E+05    0.4945317123E+00    0.3133865726E+00    0.9102196680E-02    0.1746864717E+00    0.3519609194E+00
    0.5000000000E+05    0.4977593753E+00    0.3149248516E+00    0.6947198317E-02    0.1759802925E+00    0.3553098473E+00
    0.7000000000E+05    0.4991018924E+00    0.3155619695E+00    0.5817531030E-02    0.1765582003E+00    0.3571139215E+00
    0.9000000000E+05    0.4998280920E+00    0.3158867307E+00    0.5095670082E-02    0.1768930414E+00    0.3582994812E+00
    0.1100000000E+06    0.5002786938E+00    0.3160685615E+00    0.4584083130E-02    0.1771151661E+00    0.3591629079E+00
    0.1300000000E+06    0.5005830580E+00    0.3161743117E+00    0.4197481778E-02    0.1772753196E+00    0.3598325996E+00
    0.1500000000E+06    0.5008008710E+00    0.3162355102E+00    0.3892238553E-02    0.1773974943E+00    0.3603745891E+00
    0.1700000000E+06    0.5009634063E+00    0.3162688620E+00    0.3643422313E-02    0.1774945664E+00    0.3608268620E+00
    0.1900000000E+06    0.5010885953E+00    0.3162839769E+00    0.3435620860E-02    0.1775740954E+00    0.3612130751E+00
    0.2100000000E+06    0.5011874368E+00    0.3162867319E+00    0.3258728653E-02    0.1776408278E+00    0.3615488627E+00
    0.2300000000E+06    0.5012670407E+00    0.3162808952E+00    0.3105808811E-02    0.1776979033E+00    0.3618450448E+00
    0.2500000000E+06    0.5013322001E+00    0.3162689754E+00    0.2971921310E-02    0.1777474877E+00    0.3621093910E+00
    0.2700000000E+06    0.5013862598E+00    0.3162526939E+00    0.2853440522E-02    0.1777911269E+00    0.3623476519E+00
    0.2900000000E+06    0.5014316217E+00    0.3162332613E+00    0.2747637636E-02    0.1778299562E+00    0.3625641920E+00
    0.3100000000E+06    0.5014700535E+00    0.3162115473E+00    0.2652414482E-02    0.1778648300E+00    0.3627623954E+00
    0.3300000000E+06    0.5015028834E+00    0.3161881871E+00    0.2566127907E-02    0.1778964044E+00    0.3629449343E+00
    0.3500000000E+06    0.5015311279E+00    0.3161636516E+00    0.2487470419E-02    0.1779251929E+00    0.3631139527E+00
    0.3700000000E+06    0.5015555772E+00    0.3161382939E+00    0.2415386970E-02    0.1779516033E+00    0.3632711946E+00
    0.3900000000E+06    0.5015768544E+00    0.3161123814E+00    0.2349015630E-02    0.1779759642E+00    0.3634180963E+00
    0.4100000000E+06    0.5015954572E+00    0.3160861185E+00    0.2287644442E-02    0.1779985439E+00    0.3635558535E+00
    0.4300000000E+06    0.5016117873E+00    0.3160596622E+00    0.2230679499E-02    0.1780195633E+00    0.3636854716E+00
    0.4500000000E+06    0.5016261724E+00    0.3160331336E+00    0.2177620940E-02    0.1780392067E+00    0.3638078032E+00
    0.4700000000E+06    0.5016388824E+00    0.3160066266E+00    0.2128044658E-02    0.1780576291E+00    0.3639235771E+00
    0.4900000000E+06    0.5016501410E+00    0.3159802139E+00    0.2081588167E-02    0.1780749616E+00    0.3640334209E+00
    0.1000000000E+06    0.5000772997E+00    0.3159901025E+00    0.4820341197E-02    0.1770140840E+00    0.3587613142E+00
    0.3000000000E+06    0.5014516123E+00    0.3162226452E+00    0.2698815340E-02    0.1778478426E+00    0.3626654045E+00
    0.5000000000E+06    0.5016552858E+00    0.3159670611E+00    0.2059430649E-02    0.1780832549E+00    0.3640862918E+00
    0.7000000000E+06    0.5017145750E+00    0.3157172310E+00    0.1723065886E-02    0.1782121577E+00    0.3649331358E+00
    0.9000000000E+06    0.5017322546E+00    0.3154972200E+00    0.1508035364E-02    0.1782991484E+00    0.3655289568E+00
    0.1100000000E+07    0.5017338650E+00    0.3153041423E+00    0.1355693590E-02    0.1783642464E+00    0.3659855302E+00
    0.1300000000E+07    0.5017283281E+00    0.3151330344E+00    0.1240633754E-02    0.1784160419E+00    0.3663541499E+00
    0.1500000000E+07    0.5017193981E+00    0.3149797077E+00    0.1149841452E-02    0.1784589524E+00    0.3666624317E+00
    0.1700000000E+07    0.5017088491E+00    0.3148409233E+00    0.1075875589E-02    0.1784955311E+00    0.3669268767E+00
    0.1900000000E+07    0.5016975854E+00    0.3147142007E+00    0.1014135643E-02    0.1785273796E+00    0.3671581002E+00
    0.2100000000E+07    0.5016860916E+00    0.3145976223E+00    0.9616054447E-03    0.1785555655E+00    0.3673633180E+00
    0.2300000000E+07    0.5016746345E+00    0.3144896841E+00    0.9162150279E-03    0.1785808349E+00    0.3675476501E+00
    0.2500000000E+07    0.5016633624E+00    0.3143891892E+00    0.8764907099E-03    0.1786037285E+00    0.3677148558E+00
    0.2700000000E+07    0.5016523562E+00    0.3142951709E+00    0.8413512526E-03    0.1786246506E+00    0.3678677740E+00
    0.2900000000E+07    0.5016416578E+00    0.3142068386E+00    0.8099831350E-03    0.1786439110E+00    0.3680085989E+00
    0.3100000000E+07    0.5016312857E+00    0.3141235375E+00    0.7817610521E-03    0.1786617523E+00    0.3681390607E+00
    0.3300000000E+07    0.5016212442E+00    0.3140447196E+00    0.7561954648E-03    0.1786783677E+00    0.3682605468E+00
    0.3500000000E+07    0.5016115296E+00    0.3139699219E+00    0.7328969607E-03    0.1786939140E+00    0.3683741862E+00
    0.3700000000E+07    0.5016021332E+00    0.3138987496E+00    0.7115514108E-03    0.1787085195E+00    0.3684809097E+00
    0.3900000000E+07    0.5015930436E+00    0.3138308636E+00    0.6919022611E-03    0.1787222911E+00    0.3685814933E+00
    0.4100000000E+07    0.5015842477E+00    0.3137659702E+00    0.6737376586E-03    0.1787353184E+00    0.3686765908E+00
    0.4300000000E+07    0.5015757322E+00    0.3137038135E+00    0.6568809263E-03    0.1787476773E+00    0.3687667576E+00
    0.4500000000E+07    0.5015674836E+00    0.3136441693E+00    0.6411834041E-03    0.1787594329E+00    0.3688524698E+00
    0.4700000000E+07    0.5015594885E+00    0.3135868400E+00    0.6265189932E-03    0.1787706410E+00    0.3689341383E+00
    0.4900000000E+07    0.5015517343E+00    0.3135316504E+00    0.6127799426E-03    0.1787813502E+00    0.3690121202E+00
    0.1000000000E+07    0.5017343249E+00    0.3153976342E+00    0.1426037778E-02    0.1783337546E+00    0.3657706511E+00
    0.3000000000E+07    0.5016364304E+00    0.3141645956E+00    0.7955121356E-03    0.1786529959E+00    0.3680750316E+00
    0.5000000000E+07    0.5015479436E+00    0.3135048085E+00    0.6062279475E-03    0.1787865312E+00    0.3690498277E+00
    0.7000000000E+07    0.5014821538E+00    0.3130500971E+00    0.5068356854E-03    0.1788719100E+00    0.3696691313E+00
    0.9000000000E+07    0.5014303253E+00    0.3127020709E+00    0.4433686232E-03    0.1789347644E+00    0.3701221154E+00
    0.1100000000E+08    0.5013876686E+00    0.3124197540E+00    0.3984397103E-03    0.1789845231E+00    0.3704787395E+00
    0.1300000000E+08    0.5013514542E+00    0.3121820728E+00    0.3645259012E-03    0.1790257107E+00    0.3707725552E+00
    0.1500000000E+08    0.5013200021E+00    0.3119767309E+00    0.3377771632E-03    0.1790608500E+00    0.3710222247E+00
    0.1700000000E+08    0.5012922098E+00    0.3117959173E+00    0.3159937998E-03    0.1790914916E+00    0.3712391888E+00
    0.1900000000E+08    0.5012673164E+00    0.3116343560E+00    0.2978166230E-03    0.1791186573E+00    0.3714309629E+00
    0.2100000000E+08    0.5012447753E+00    0.3114883141E+00    0.2823549625E-03    0.1791430561E+00    0.3716027464E+00
    0.2300000000E+08    0.5012241808E+00    0.3113550520E+00    0.2689978117E-03    0.1791651998E+00    0.3717582839E+00
    0.2500000000E+08    0.5012052238E+00    0.3112324989E+00    0.2573103274E-03    0.1791854705E+00    0.3719003614E+00
    0.2700000000E+08    0.5011876632E+00    0.3111190514E+00    0.2469735651E-03    0.1792041604E+00    0.3720311068E+00
