  Pressure (Pa) 22mC5-400 (mol/kg) 3mC6-400 (mol/kg) 33mC5-400 (mol/kg) 23mC5-400 (mol/kg) C7-400 (mol/kg)
    0.1000000000E+01    0.1062940102E-02    0.1562908047E-02    0.6415770175E-04    0.5599208327E-03    0.1352688037E-01
    0.3000000000E+01    0.3173243708E-02    0.4489650436E-02    0.1852828501E-03    0.1671564587E-02    0.3886593054E-01
    0.5000000000E+01    0.5263034663E-02    0.7177933352E-02    0.2978005781E-03    0.2772412562E-02    0.6215066014E-01
    0.7000000000E+01    0.7332615038E-02    0.9655700808E-02    0.4027211789E-03    0.3862623697E-02    0.8362141684E-01
    0.9000000000E+01    0.9382280984E-02    0.1194669687E-01    0.5008987063E-03    0.4942353809E-02    0.1034824533E+00
    0.1100000000E+02    0.1141232287E-01    0.1407122600E-01    0.5930598650E-03    0.6011755677E-02    0.1219084582E+00
    0.1300000000E+02    0.1342302542E-01    0.1604675395E-01    0.6798267628E-03    0.7070979112E-02    0.1390497192E+00
    0.1500000000E+02    0.1541466786E-01    0.1788838703E-01    0.7617349861E-03    0.8120171032E-02    0.1550362396E+00
    0.1700000000E+02    0.1738752405E-01    0.1960925737E-01    0.8392480782E-03    0.9159475524E-02    0.1699810495E+00
    0.1900000000E+02    0.1934186260E-01    0.2122083520E-01    0.9127692261E-03    0.1018903392E-01    0.1839828884E+00
    0.2100000000E+02    0.2127794700E-01    0.2273318356E-01    0.9826507598E-03    0.1120898486E-01    0.1971283947E+00
    0.2300000000E+02    0.2319603574E-01    0.2415516767E-01    0.1049201925E-02    0.1221946436E-01    0.2094939049E+00
    0.2500000000E+02    0.2509638244E-01    0.2549462791E-01    0.1112695285E-02    0.1322060585E-01    0.2211469405E+00
    0.2700000000E+02    0.2697923595E-01    0.2675852377E-01    0.1173372017E-02    0.1421254027E-01    0.2321474450E+00
    0.2900000000E+02    0.2884484046E-01    0.2795305410E-01    0.1231446333E-02    0.1519539612E-01    0.2425488181E+00
    0.3100000000E+02    0.3069343564E-01    0.2908375824E-01    0.1287109167E-02    0.1616929948E-01    0.2523987850E+00
    0.3300000000E+02    0.3252525669E-01    0.3015560149E-01    0.1340531289E-02    0.1713437412E-01    0.2617401311E+00
    0.3500000000E+02    0.3434053449E-01    0.3117304747E-01    0.1391865924E-02    0.1809074152E-01    0.2706113247E+00
    0.3700000000E+02    0.3613949567E-01    0.3214012000E-01    0.1441250987E-02    0.1903852092E-01    0.2790470481E+00
    0.3900000000E+02    0.3792236272E-01    0.3306045588E-01    0.1488810980E-02    0.1997782940E-01    0.2870786529E+00
    0.4100000000E+02    0.3968935410E-01    0.3393735034E-01    0.1534658615E-02    0.2090878190E-01    0.2947345499E+00
    0.4300000000E+02    0.4144068429E-01    0.3477379621E-01    0.1578896212E-02    0.2183149128E-01    0.3020405464E+00
    0.4500000000E+02    0.4317656392E-01    0.3557251782E-01    0.1621616900E-02    0.2274606835E-01    0.3090201376E+00
    0.4700000000E+02    0.4489719983E-01    0.3633600042E-01    0.1662905660E-02    0.2365262197E-01    0.3156947602E+00
    0.4900000000E+02    0.4660279517E-01    0.3706651586E-01    0.1702840222E-02    0.2455125901E-01    0.3220840127E+00
    0.1000000000E+02    0.1039973701E-01    0.1302861780E-01    0.5476902302E-03    0.5478336341E-02    0.1128649225E+00
    0.3000000000E+02    0.2977124942E-01    0.2852606156E-01    0.1259568073E-02    0.1568345907E-01    0.2475399453E+00
    0.5000000000E+02    0.4745001512E-01    0.3742006806E-01    0.1722322183E-02    0.2499764171E-01    0.3251772951E+00
    0.7000000000E+02    0.6365163247E-01    0.4318286827E-01    0.2055397649E-02    0.3353432649E-01    0.3757077004E+00
    0.9000000000E+02    0.7855640999E-01    0.4721628070E-01    0.2307423694E-02    0.4138838971E-01    0.4112330419E+00
    0.1100000000E+03    0.9231630295E-01    0.5019447079E-01    0.2502930375E-02    0.4863979074E-01    0.4375820571E+00
    0.1300000000E+03    0.1050602782E+00    0.5248175785E-01    0.2656284861E-02    0.5535639423E-01    0.4579092894E+00
    0.1500000000E+03    0.1168985066E+00    0.5429222659E-01    0.2776844996E-02    0.6159617582E-01    0.4740712086E+00
    0.1700000000E+03    0.1279256721E+00    0.5575990225E-01    0.2871182871E-02    0.6740896260E-01    0.4872317783E+00
    0.1900000000E+03    0.1382236052E+00    0.5697295822E-01    0.2944166740E-02    0.7283781889E-01    0.4981579074E+00
    0.2100000000E+03    0.1478633974E+00    0.5799176877E-01    0.2999541778E-02    0.7792015862E-01    0.5073755096E+00
    0.2300000000E+03    0.1569071123E+00    0.5885905720E-01    0.3040268512E-02    0.8268864527E-01    0.5152573085E+00
    0.2500000000E+03    0.1654091788E+00    0.5960590235E-01    0.3068734105E-02    0.8717192510E-01    0.5220748531E+00
    0.2700000000E+03    0.1734175344E+00    0.6025544934E-01    0.3086892070E-02    0.9139522866E-01    0.5280306818E+00
    0.2900000000E+03    0.1809745688E+00    0.6082528698E-01    0.3096359139E-02    0.9538086721E-01    0.5332789472E+00
    0.3100000000E+03    0.1881179078E+00    0.6132901894E-01    0.3098485081E-02    0.9914864499E-01    0.5379390583E+00
    0.3300000000E+03    0.1948810670E+00    0.6177733058E-01    0.3094404629E-02    0.1027162035E+00    0.5421049531E+00
    0.3500000000E+03    0.2012940012E+00    0.6217873070E-01    0.3085077081E-02    0.1060993103E+00    0.5458515502E+00
    0.3700000000E+03    0.2073835678E+00    0.6254007812E-01    0.3071317146E-02    0.1093121030E+00    0.5492393335E+00
    0.3900000000E+03    0.2131739190E+00    0.6286696248E-01    0.3053819352E-02    0.1123672955E+00    0.5523176718E+00
    0.4100000000E+03    0.2186868363E+00    0.6316398443E-01    0.3033177646E-02    0.1152763541E+00    0.5551272612E+00
    0.4300000000E+03    0.2239420163E+00    0.6343496464E-01    0.3009901294E-02    0.1180496479E+00    0.5577019511E+00
    0.4500000000E+03    0.2289573157E+00    0.6368310213E-01    0.2984427915E-02    0.1206965775E+00    0.5600701270E+00
    0.4700000000E+03    0.2337489628E+00    0.6391109546E-01    0.2957134240E-02    0.1232256867E+00    0.5622557711E+00
    0.4900000000E+03    0.2383317401E+00    0.6412123675E-01    0.2928345066E-02    0.1256447581E+00    0.5642792851E+00
    0.1000000000E+03    0.8557092188E-01    0.4880976573E-01    0.2411187693E-02    0.4508492643E-01    0.4253164691E+00
    0.3000000000E+03    0.1845957661E+00    0.6108468989E-01    0.3098264304E-02    0.9729083904E-01    0.5356761405E+00
    0.5000000000E+03    0.2405490662E+00    0.6422023647E-01    0.2913478832E-02    0.1268152744E+00    0.5652358012E+00
    0.7000000000E+03    0.2766545808E+00    0.6561625264E-01    0.2588013240E-02    0.1458832272E+00    0.5790124787E+00
    0.9000000000E+03    0.3019227419E+00    0.6638942258E-01    0.2273158637E-02    0.1592391954E+00    0.5870018662E+00
    0.1100000000E+04    0.3206072450E+00    0.6687175114E-01    0.2000617001E-02    0.1691236441E+00    0.5922258214E+00
    0.1300000000E+04    0.3349867952E+00    0.6719606391E-01    0.1771881046E-02    0.1767371407E+00    0.5959127122E+00
    0.1500000000E+04    0.3463951446E+00    0.6742560523E-01    0.1581136405E-02    0.1827825946E+00    0.5986565659E+00
    0.1700000000E+04    0.3556659794E+00    0.6759419330E-01    0.1421642739E-02    0.1876994991E+00    0.6007799117E+00
    0.1900000000E+04    0.3633475893E+00    0.6772148336E-01    0.1287438875E-02    0.1917769788E+00    0.6024730663E+00
    0.2100000000E+04    0.3698155082E+00    0.6781964153E-01    0.1173653854E-02    0.1952131172E+00    0.6038556221E+00
    0.2300000000E+04    0.3753356360E+00    0.6789657908E-01    0.1076416630E-02    0.1981482092E+00    0.6050065290E+00
    0.2500000000E+04    0.3801015410E+00    0.6795764882E-01    0.9926760532E-03    0.2006844148E+00    0.6059800197E+00
    0.2700000000E+04    0.3842574901E+00    0.6800659277E-01    0.9200262238E-03    0.2028978959E+00    0.6068145879E+00
    0.2900000000E+04    0.3879132031E+00    0.6804609947E-01    0.8565614687E-03    0.2048465927E+00    0.6075383166E+00
    0.3100000000E+04    0.3911536058E+00    0.6807814594E-01    0.8007625726E-03    0.2065753648E+00    0.6081721782E+00
    0.3300000000E+04    0.3940454556E+00    0.6810421537E-01    0.7514095280E-03    0.2081194852E+00    0.6087321529E+00
    0.3500000000E+04    0.3966419502E+00    0.6812543992E-01    0.7075151476E-03    0.2095070699E+00    0.6092306326E+00
    0.3700000000E+04    0.3989860014E+00    0.6814269712E-01    0.6682745775E-03    0.2107608053E+00    0.6096773758E+00
    0.3900000000E+04    0.4011126049E+00    0.6815667629E-01    0.6330267760E-03    0.2118991978E+00    0.6100801724E+00
    0.4100000000E+04    0.4030505832E+00    0.6816792546E-01    0.6012249657E-03    0.2129374937E+00    0.6104453173E+00
    0.4300000000E+04    0.4048238884E+00    0.6817688501E-01    0.5724138234E-03    0.2138883666E+00    0.6107779529E+00
    0.4500000000E+04    0.4064525882E+00    0.6818391226E-01    0.5462117487E-03    0.2147624377E+00    0.6110823220E+00
    0.4700000000E+04    0.4079536218E+00    0.6818929964E-01    0.5222969839E-03    0.2155686749E+00    0.6113619562E+00
    0.4900000000E+04    0.4093413864E+00    0.6819328843E-01    0.5003966712E-03    0.2163147024E+00    0.6116198196E+00
    0.1000000000E+04    0.3119155934E+00    0.6665622146E-01    0.2131198008E-02    0.1645245586E+00    0.5898607884E+00
    0.3000000000E+04    0.3895807820E+00    0.6806295291E-01    0.8277861848E-03    0.2057360727E+00    0.6078653842E+00
    0.5000000000E+04    0.4099967118E+00    0.6819482235E-01    0.4901278616E-03    0.2166672135E+00    0.6117413859E+00
    0.7000000000E+04    0.4193795201E+00    0.6818649906E-01    0.3488684353E-03    0.2217345772E+00    0.6134743583E+00
    0.9000000000E+04    0.4247601487E+00    0.6814590523E-01    0.2734236149E-03    0.2246653892E+00    0.6144729020E+00
    0.1100000000E+05    0.4282449095E+00    0.6809720875E-01    0.2269810248E-03    0.2265796767E+00    0.6151302655E+00
    0.1300000000E+05    0.4306835127E+00    0.6804768015E-01    0.1956278952E-03    0.2279306132E+00    0.6156003068E+00
    0.1500000000E+05    0.4324842396E+00    0.6799976888E-01    0.1730514619E-03    0.2289365824E+00    0.6159558849E+00
    0.1700000000E+05    0.4338675459E+00    0.6795427280E-01    0.1560051823E-03    0.2297158442E+00    0.6162360919E+00
    0.1900000000E+05    0.4349628879E+00    0.6791136521E-01    0.1426596130E-03    0.2303380426E+00    0.6164638477E+00
    0.2100000000E+05    0.4358512632E+00    0.6787097484E-01    0.1319094019E-03    0.2308468771E+00    0.6166535139E+00
    0.2300000000E+05    0.4365859335E+00    0.6783293880E-01    0.1230489489E-03    0.2312711652E+00    0.6168145678E+00
    0.2500000000E+05    0.4372033541E+00    0.6779706719E-01    0.1156073559E-03    0.2316306873E+00    0.6169535285E+00
    0.2700000000E+05    0.4377293146E+00    0.6776317073E-01    0.1092586113E-03    0.2319394761E+00    0.6170750354E+00
    0.2900000000E+05    0.4381825708E+00    0.6773107205E-01    0.1037699522E-03    0.2322077663E+00    0.6171824856E+00
    0.3100000000E+05    0.4385770879E+00    0.6770060967E-01    0.9897078022E-04    0.2324431998E+00    0.6172784274E+00
    0.3300000000E+05    0.4389234774E+00    0.6767163861E-01    0.9473320624E-04    0.2326515997E+00    0.6173648120E+00
    0.3500000000E+05    0.4392299456E+00    0.6764402957E-01    0.9095945843E-04    0.2328374819E+00    0.6174431607E+00
    0.3700000000E+05    0.4395029381E+00    0.6761766752E-01    0.8757349208E-04    0.2330044034E+00    0.6175146788E+00
    0.3900000000E+05    0.4397475875E+00    0.6759245015E-01    0.8451525431E-04    0.2331552046E+00    0.6175803340E+00
    0.4100000000E+05    0.4399680311E+00    0.6756828638E-01    0.8173667417E-04    0.2332921814E+00    0.6176409135E+00
    0.4300000000E+05    0.4401676409E+00    0.6754509493E-01    0.7919880228E-04    0.2334172103E+00    0.6176970645E+00
    0.4500000000E+05    0.4403491923E+00    0.6752280313E-01    0.7686973326E-04    0.2335318403E+00    0.6177493245E+00
    0.4700000000E+05    0.4405149905E+00    0.6750134582E-01    0.7472307209E-04    0.2336373612E+00    0.6177981440E+00
    0.4900000000E+05    0.4406669656E+00    0.6748066440E-01    0.7273678526E-04    0.2337348562E+00    0.6178439038E+00
    0.1000000000E+05    0.4266710901E+00    0.6812193636E-01    0.2477152857E-03    0.2257131353E+00    0.6148317801E+00
    0.3000000000E+05    0.4383864429E+00    0.6771564577E-01    0.1012930014E-03    0.2323291906E+00    0.6172317614E+00
    0.5000000000E+05    0.4407382887E+00    0.6747059794E-01    0.7179787031E-04    0.2337808861E+00    0.6178657395E+00
    0.7000000000E+05    0.4417268253E+00    0.6729957110E-01    0.5816856733E-04    0.2344428933E+00    0.6182000780E+00
    0.9000000000E+05    0.4422628713E+00    0.6716846537E-01    0.5000454163E-04    0.2348311881E+00    0.6184202930E+00
    0.1100000000E+06    0.4425950098E+00    0.6706222846E-01    0.4444226755E-04    0.2350909183E+00    0.6185823108E+00
    0.1300000000E+06    0.4428184986E+00    0.6697295371E-01    0.4034910440E-04    0.2352793222E+00    0.6187096159E+00
    0.1500000000E+06    0.4429775477E+00    0.6689598309E-01    0.3717855857E-04    0.2354237137E+00    0.6188140750E+00
    0.1700000000E+06    0.4430954108E+00    0.6682834371E-01    0.3463117049E-04    0.2355388566E+00    0.6189024476E+00
    0.1900000000E+06    0.4431854550E+00    0.6676802306E-01    0.3252758995E-04    0.2356334681E+00    0.6189789219E+00
    0.2100000000E+06    0.4432558923E+00    0.6671359578E-01    0.3075309870E-04    0.2357130476E+00    0.6190462607E+00
    0.2300000000E+06    0.4433120362E+00    0.6666401565E-01    0.2923050308E-04    0.2357812477E+00    0.6191063765E+00
    0.2500000000E+06    0.4433574699E+00    0.6661849208E-01    0.2790572363E-04    0.2358405965E+00    0.6191606449E+00
    0.2700000000E+06    0.4433946939E+00    0.6657641319E-01    0.2673961001E-04    0.2358929038E+00    0.6192100870E+00
    0.2900000000E+06    0.4434255029E+00    0.6653729572E-01    0.2570303681E-04    0.2359395026E+00    0.6192554806E+00
    0.3100000000E+06    0.4434512169E+00    0.6650075135E-01    0.2477383255E-04    0.2359813981E+00    0.6192974309E+00
    0.3300000000E+06    0.4434728267E+00    0.6646646339E-01    0.2393478430E-04    0.2360193642E+00    0.6193364183E+00
    0.3500000000E+06    0.4434910896E+00    0.6643417017E-01    0.2317229942E-04    0.2360540074E+00    0.6193728299E+00
    0.3700000000E+06    0.4435065935E+00    0.6640365301E-01    0.2247548346E-04    0.2360858104E+00    0.6194069819E+00
    0.3900000000E+06    0.4435198014E+00    0.6637472728E-01    0.2183548946E-04    0.2361151627E+00    0.6194391364E+00
    0.4100000000E+06    0.4435310822E+00    0.6634723571E-01    0.2124504909E-04    0.2361423827E+00    0.6194695124E+00
    0.4300000000E+06    0.4435407333E+00    0.6632104321E-01    0.2069812862E-04    0.2361677332E+00    0.6194982951E+00
    0.4500000000E+06    0.4435489968E+00    0.6629603290E-01    0.2018967213E-04    0.2361914335E+00    0.6195256423E+00
    0.4700000000E+06    0.4435560715E+00    0.6627210301E-01    0.1971540709E-04    0.2362136681E+00    0.6195516896E+00
    0.4900000000E+06    0.4435621220E+00    0.6624916431E-01    0.1927169519E-04    0.2362345936E+00    0.6195765544E+00
    0.1000000000E+06    0.4424466792E+00    0.6711283665E-01    0.4698943569E-04    0.2349725011E+00    0.6185067097E+00
    0.3000000000E+06    0.4434389285E+00    0.6651872315E-01    0.2522618742E-04    0.2359609854E+00    0.6192768536E+00
    0.5000000000E+06    0.4435648070E+00    0.6623804174E-01    0.1906030403E-04    0.2362446080E+00    0.6195885757E+00
    0.7000000000E+06    0.4435885214E+00    0.6605265517E-01    0.1586932130E-04    0.2364003854E+00    0.6197860228E+00
    0.9000000000E+06    0.4435849258E+00    0.6591409580E-01    0.1384608320E-04    0.2365055696E+00    0.6199307214E+00
    0.1100000000E+07    0.4435719436E+00    0.6580345585E-01    0.1242000199E-04    0.2365842607E+00    0.6200449626E+00
    0.1300000000E+07    0.4435555332E+00    0.6571137164E-01    0.1134676082E-04    0.2366468356E+00    0.6201393538E+00
    0.1500000000E+07    0.4435380423E+00    0.6563251765E-01    0.1050214575E-04    0.2366986410E+00    0.6202197774E+00
    0.1700000000E+07    0.4435204849E+00    0.6556357440E-01    0.9815512564E-05    0.2367427707E+00    0.6202898363E+00
    0.1900000000E+07    0.4435033156E+00    0.6550233271E-01    0.9243359339E-05    0.2367811669E+00    0.6203518977E+00
    0.2100000000E+07    0.4434867339E+00    0.6544724799E-01    0.8757255404E-05    0.2368151248E+00    0.6204076006E+00
    0.2300000000E+07    0.4434708163E+00    0.6539719789E-01    0.8337739066E-05    0.2368455494E+00    0.6204581266E+00
    0.2500000000E+07    0.4434555783E+00    0.6535134124E-01    0.7970984465E-05    0.2368730970E+00    0.6205043559E+00
    0.2700000000E+07    0.4434410053E+00    0.6530903133E-01    0.7646866040E-05    0.2368982578E+00    0.6205469618E+00
    0.2900000000E+07    0.4434270679E+00    0.6526976028E-01    0.7357777315E-05    0.2369214079E+00    0.6205864707E+00
    0.3100000000E+07    0.4434137305E+00    0.6523312194E-01    0.7097879696E-05    0.2369428414E+00    0.6206233021E+00
    0.3300000000E+07    0.4434009556E+00    0.6519878645E-01    0.6862607837E-05    0.2369627928E+00    0.6206577957E+00
    0.3500000000E+07    0.4433887062E+00    0.6516648224E-01    0.6648334112E-05    0.2369814518E+00    0.6206902302E+00
    0.3700000000E+07    0.4433769468E+00    0.6513598307E-01    0.6452135085E-05    0.2369989743E+00    0.6207208374E+00
    0.3900000000E+07    0.4433656444E+00    0.6510709848E-01    0.6271625276E-05    0.2370154897E+00    0.6207498122E+00
    0.4100000000E+07    0.4433547681E+00    0.6507966662E-01    0.6104836445E-05    0.2370311064E+00    0.6207773196E+00
    0.4300000000E+07    0.4433442895E+00    0.6505354878E-01    0.5950128389E-05    0.2370459165E+00    0.6208035009E+00
    0.4500000000E+07    0.4433341825E+00    0.6502862522E-01    0.5806121964E-05    0.2370599987E+00    0.6208284780E+00
    0.4700000000E+07    0.4433244232E+00    0.6500479183E-01    0.5671648075E-05    0.2370734207E+00    0.6208523567E+00
    0.4900000000E+07    0.4433149897E+00    0.6498195752E-01    0.5545708338E-05    0.2370862412E+00    0.6208752294E+00
    0.1000000000E+07    0.4435791042E+00    0.6585600318E-01    0.1307776644E-04    0.2365474066E+00    0.6199908297E+00
    0.3000000000E+07    0.4434203265E+00    0.6525113418E-01    0.7224490254E-05    0.2369323234E+00    0.6206051983E+00
    0.5000000000E+07    0.4433103888E+00    0.6497088961E-01    0.5485665761E-05    0.2370924421E+00    0.6208863143E+00
    0.7000000000E+07    0.4432314074E+00    0.6478675680E-01    0.4576185359E-05    0.2371944970E+00    0.6210706075E+00
    0.9000000000E+07    0.4431699976E+00    0.6464948300E-01    0.3996823980E-05    0.2372694718E+00    0.6212079079E+00
    0.1100000000E+08    0.4431197934E+00    0.6454003568E-01    0.3587391032E-05    0.2373287356E+00    0.6213173548E+00
    0.1300000000E+08    0.4430773405E+00    0.6444903651E-01    0.3278748398E-05    0.2373777333E+00    0.6214083527E+00
    0.1500000000E+08    0.4430405648E+00    0.6437116855E-01    0.3035577339E-05    0.2374194959E+00    0.6214862253E+00
    0.1700000000E+08    0.4430081255E+00    0.6430312498E-01    0.2837726986E-05    0.2374558843E+00    0.6215542804E+00
    0.1900000000E+08    0.4429791062E+00    0.6424270864E-01    0.2672760425E-05    0.2374881232E+00    0.6216147148E+00
    0.2100000000E+08    0.4429528534E+00    0.6418838526E-01    0.2532535674E-05    0.2375170616E+00    0.6216690617E+00
    0.2300000000E+08    0.4429288846E+00    0.6413904114E-01    0.2411471931E-05    0.2375433120E+00    0.6217184339E+00
    0.2500000000E+08    0.4429068333E+00    0.6409384225E-01    0.2305600347E-05    0.2375673309E+00    0.6217636644E+00
    0.2700000000E+08    0.4428864148E+00    0.6405214783E-01    0.2212011792E-05    0.2375894678E+00    0.6218053933E+00
