  Pressure (Pa) 22mC5-400 (mol/kg) 3mC6-400 (mol/kg) 33mC5-400 (mol/kg) 23mC5-400 (mol/kg) C7-400 (mol/kg)
    0.1000000000E+01    0.1063378771E-02    0.4172420042E-02    0.6423374725E-04    0.2800758499E-03    0.1015646102E-01
    0.3000000000E+01    0.3177156174E-02    0.1201100564E-01    0.1859196861E-03    0.8368118403E-03    0.2924297339E-01
    0.5000000000E+01    0.5273805191E-02    0.1924008780E-01    0.2994528610E-03    0.1389040503E-02    0.4685270674E-01
    0.7000000000E+01    0.7353536895E-02    0.2592799346E-01    0.4057565757E-03    0.1936817366E-02    0.6315094556E-01
    0.9000000000E+01    0.9416558886E-02    0.3213320809E-01    0.5056169096E-03    0.2480197044E-02    0.7827918657E-01
    0.1100000000E+02    0.1146307537E-01    0.3790608573E-01    0.5997070860E-03    0.3019233259E-02    0.9235927002E-01
    0.1300000000E+02    0.1349328721E-01    0.4329021449E-01    0.6886068618E-03    0.3553978856E-02    0.1054966789E+00
    0.1500000000E+02    0.1550739203E-01    0.4832351578E-01    0.7728180827E-03    0.4084485823E-02    0.1177831952E+00
    0.1700000000E+02    0.1750558424E-01    0.5303913609E-01    0.8527772550E-03    0.4610805307E-02    0.1292990549E+00
    0.1900000000E+02    0.1948805513E-01    0.5746617548E-01    0.9288657785E-03    0.5132987630E-02    0.1401147081E+00
    0.2100000000E+02    0.2145499291E-01    0.6163028662E-01    0.1001418330E-02    0.5651082310E-02    0.1502922677E+00
    0.2300000000E+02    0.2340658279E-01    0.6555417055E-01    0.1070729773E-02    0.6165138069E-02    0.1598867068E+00
    0.2500000000E+02    0.2534300703E-01    0.6925798925E-01    0.1137060890E-02    0.6675202859E-02    0.1689468567E+00
    0.2700000000E+02    0.2726444501E-01    0.7275971089E-01    0.1200643156E-02    0.7181323867E-02    0.1775162410E+00
    0.2900000000E+02    0.2917107326E-01    0.7607540026E-01    0.1261682743E-02    0.7683547539E-02    0.1856337783E+00
    0.3100000000E+02    0.3106306554E-01    0.7921946428E-01    0.1320363885E-02    0.8181919588E-02    0.1933343754E+00
    0.3300000000E+02    0.3294059289E-01    0.8220486039E-01    0.1376851731E-02    0.8676485012E-02    0.2006494313E+00
    0.3500000000E+02    0.3480382369E-01    0.8504327438E-01    0.1431294763E-02    0.9167288106E-02    0.2076072674E+00
    0.3700000000E+02    0.3665292368E-01    0.8774527259E-01    0.1483826864E-02    0.9654372478E-02    0.2142334954E+00
    0.3900000000E+02    0.3848805606E-01    0.9032043281E-01    0.1534569079E-02    0.1013778106E-01    0.2205513341E+00
    0.4100000000E+02    0.4030938149E-01    0.9277745723E-01    0.1583631139E-02    0.1061755612E-01    0.2265818822E+00
    0.4300000000E+02    0.4211705817E-01    0.9512427022E-01    0.1631112767E-02    0.1109373928E-01    0.2323443555E+00
    0.4500000000E+02    0.4391124187E-01    0.9736810331E-01    0.1677104816E-02    0.1156637151E-01    0.2378562920E+00
    0.4700000000E+02    0.4569208600E-01    0.9951556932E-01    0.1721690249E-02    0.1203549319E-01    0.2431337311E+00
    0.4900000000E+02    0.4745974163E-01    0.1015727271E+00    0.1764944995E-02    0.1250114405E-01    0.2481913708E+00
    0.1000000000E+02    0.1044186768E-01    0.3507082022E-01    0.5533450408E-03    0.2750254761E-02    0.8544330581E-01
    0.3000000000E+02    0.3011888814E-01    0.7766804385E-01    0.1291307380E-02    0.7933212188E-02    0.1895341551E+00
    0.5000000000E+02    0.4833867034E-01    0.1025691964E+00    0.1786095352E-02    0.1273268019E-01    0.2506420263E+00
    0.7000000000E+02    0.6525999957E-01    0.1188914235E+00    0.2153443686E-02    0.1719043294E-01    0.2908678008E+00
    0.9000000000E+02    0.8101927864E-01    0.1304084526E+00    0.2440813441E-02    0.2134235692E-01    0.3193723304E+00
    0.1100000000E+03    0.9573433649E-01    0.1389645598E+00    0.2671996853E-02    0.2521945269E-01    0.3406389438E+00
    0.1300000000E+03    0.1095074862E+00    0.1455677693E+00    0.2860780254E-02    0.2884863923E-01    0.3571215236E+00
    0.1500000000E+03    0.1224279991E+00    0.1508154851E+00    0.3016059655E-02    0.3225340473E-01    0.3702764019E+00
    0.1700000000E+03    0.1345741209E+00    0.1550841998E+00    0.3144052057E-02    0.3545433692E-01    0.3810226736E+00
    0.1900000000E+03    0.1460147256E+00    0.1586229357E+00    0.3249364137E-02    0.3846955809E-01    0.3899691132E+00
    0.2100000000E+03    0.1568106808E+00    0.1616029627E+00    0.3335558158E-02    0.4131508420E-01    0.3975350132E+00
    0.2300000000E+03    0.1670159808E+00    0.1641459344E+00    0.3405475837E-02    0.4400512306E-01    0.4040186235E+00
    0.2500000000E+03    0.1766786936E+00    0.1663406326E+00    0.3461436527E-02    0.4655232325E-01    0.4096379173E+00
    0.2700000000E+03    0.1858417545E+00    0.1682533613E+00    0.3505365710E-02    0.4896798309E-01    0.4145559161E+00
    0.2900000000E+03    0.1945436366E+00    0.1699346325E+00    0.3538882583E-02    0.5126222685E-01    0.4188969929E+00
    0.3100000000E+03    0.2028189180E+00    0.1714235998E+00    0.3563362321E-02    0.5344415404E-01    0.4227576941E+00
    0.3300000000E+03    0.2106987649E+00    0.1727510790E+00    0.3579981959E-02    0.5552196652E-01    0.4262141167E+00
    0.3500000000E+03    0.2182113447E+00    0.1739416531E+00    0.3589755205E-02    0.5750307709E-01    0.4293270552E+00
    0.3700000000E+03    0.2253821800E+00    0.1750151709E+00    0.3593559515E-02    0.5939420272E-01    0.4321456680E+00
    0.3900000000E+03    0.2322344537E+00    0.1759878329E+00    0.3592157565E-02    0.6120144475E-01    0.4347101372E+00
    0.4100000000E+03    0.2387892731E+00    0.1768729919E+00    0.3586214583E-02    0.6293035834E-01    0.4370536301E+00
    0.4300000000E+03    0.2450658981E+00    0.1776817518E+00    0.3576312500E-02    0.6458601264E-01    0.4392037681E+00
    0.4500000000E+03    0.2510819410E+00    0.1784234209E+00    0.3562961672E-02    0.6617304318E-01    0.4411837406E+00
    0.4700000000E+03    0.2568535397E+00    0.1791058604E+00    0.3546610645E-02    0.6769569758E-01    0.4430131609E+00
    0.4900000000E+03    0.2623955103E+00    0.1797357549E+00    0.3527654380E-02    0.6915787561E-01    0.4447087306E+00
    0.1000000000E+03    0.8850060850E-01    0.1349807105E+00    0.2562413441E-02    0.2331348852E-01    0.3307256597E+00
    0.3000000000E+03    0.1987325797E+00    0.1707010609E+00    0.3552174337E-02    0.5236669771E-01    0.4208822241E+00
    0.5000000000E+03    0.2650846868E+00    0.1800328179E+00    0.3517309792E-02    0.6986741830E-01    0.4455108755E+00
    0.7000000000E+03    0.3096031368E+00    0.1842484928E+00    0.3239016988E-02    0.8161778198E-01    0.4571186608E+00
    0.9000000000E+03    0.3416104264E+00    0.1866146392E+00    0.2919551584E-02    0.9007187711E-01    0.4639117307E+00
    0.1100000000E+04    0.3657548415E+00    0.1881105521E+00    0.2618755893E-02    0.9645362744E-01    0.4683896888E+00
    0.1300000000E+04    0.3846248496E+00    0.1891304119E+00    0.2352316589E-02    0.1014447558E+00    0.4715740404E+00
    0.1500000000E+04    0.3997807656E+00    0.1898628788E+00    0.2121390702E-02    0.1054562993E+00    0.4739609384E+00
    0.1700000000E+04    0.4122209658E+00    0.1904093109E+00    0.1922568210E-02    0.1087513248E+00    0.4758208040E+00
    0.1900000000E+04    0.4226147430E+00    0.1908288815E+00    0.1751383105E-02    0.1115062295E+00    0.4773137626E+00
    0.2100000000E+04    0.4314279088E+00    0.1911583770E+00    0.1603534204E-02    0.1138438104E+00    0.4785407612E+00
    0.2300000000E+04    0.4389948063E+00    0.1914218205E+00    0.1475258477E-02    0.1158522280E+00    0.4795686444E+00
    0.2500000000E+04    0.4455616976E+00    0.1916355355E+00    0.1363390066E-02    0.1175964323E+00    0.4804434635E+00
    0.2700000000E+04    0.4513140026E+00    0.1918109821E+00    0.1265309625E-02    0.1191253384E+00    0.4811979966E+00
    0.2900000000E+04    0.4563940059E+00    0.1919564292E+00    0.1178863389E-02    0.1204764906E+00    0.4818562216E+00
    0.3100000000E+04    0.4609127128E+00    0.1920779837E+00    0.1102281869E-02    0.1216791866E+00    0.4824360922E+00
    0.3300000000E+04    0.4649579960E+00    0.1921802471E+00    0.1034108267E-02    0.1227566239E+00    0.4829513234E+00
    0.3500000000E+04    0.4686003215E+00    0.1922667478E+00    0.9731388133E-03    0.1237274095E+00    0.4834125772E+00
    0.3700000000E+04    0.4718968529E+00    0.1923402327E+00    0.9183743166E-03    0.1246066411E+00    0.4838282703E+00
    0.3900000000E+04    0.4748944470E+00    0.1924028697E+00    0.8689812852E-03    0.1254066971E+00    0.4842051377E+00
    0.4100000000E+04    0.4776318748E+00    0.1924563903E+00    0.8242608858E-03    0.1261378223E+00    0.4845486345E+00
    0.4300000000E+04    0.4801414919E+00    0.1925021927E+00    0.7836241758E-03    0.1268085683E+00    0.4848632277E+00
    0.4500000000E+04    0.4824505117E+00    0.1925414170E+00    0.7465723110E-03    0.1274261292E+00    0.4851526110E+00
    0.4700000000E+04    0.4845819866E+00    0.1925750009E+00    0.7126806789E-03    0.1279966007E+00    0.4854198662E+00
    0.4900000000E+04    0.4865555734E+00    0.1926037219E+00    0.6815861322E-03    0.1285251817E+00    0.4856675855E+00
    0.1000000000E+04    0.3544715926E+00    0.1874396053E+00    0.2765303145E-02    0.9347073152E-01    0.4663580928E+00
    0.3000000000E+04    0.4587175638E+00    0.1920198760E+00    0.1139437161E-02    0.1210948230E+00    0.4821550108E+00
    0.5000000000E+04    0.4874885239E+00    0.1926164660E+00    0.6669885078E-03    0.1287751825E+00    0.4857848190E+00
    0.7000000000E+04    0.5009170425E+00    0.1927287043E+00    0.4653998741E-03    0.1323854453E+00    0.4874950967E+00
    0.9000000000E+04    0.5086794766E+00    0.1927108861E+00    0.3577486124E-03    0.1344870715E+00    0.4885267884E+00
    0.1100000000E+05    0.5137327959E+00    0.1926484084E+00    0.2919317864E-03    0.1358647857E+00    0.4892343082E+00
    0.1300000000E+05    0.5172825071E+00    0.1925697059E+00    0.2479137037E-03    0.1368392877E+00    0.4897591789E+00
    0.1500000000E+05    0.5199117000E+00    0.1924859748E+00    0.2165402125E-03    0.1375660693E+00    0.4901697059E+00
    0.1700000000E+05    0.5219366739E+00    0.1924020403E+00    0.1930950860E-03    0.1381296783E+00    0.4905032044E+00
    0.1900000000E+05    0.5235438039E+00    0.1923200560E+00    0.1749235567E-03    0.1385800512E+00    0.4907819314E+00
    0.2100000000E+05    0.5248500126E+00    0.1922409586E+00    0.1604260457E-03    0.1389485895E+00    0.4910200644E+00
    0.2300000000E+05    0.5259323525E+00    0.1921650999E+00    0.1485853464E-03    0.1392560358E+00    0.4912271081E+00
    0.2500000000E+05    0.5268436590E+00    0.1920925428E+00    0.1387256200E-03    0.1395166464E+00    0.4914097001E+00
    0.2700000000E+05    0.5276213675E+00    0.1920232073E+00    0.1303812331E-03    0.1397405460E+00    0.4915726340E+00
    0.2900000000E+05    0.5282927408E+00    0.1919569456E+00    0.1232214191E-03    0.1399351253E+00    0.4917194695E+00
    0.3100000000E+05    0.5288781033E+00    0.1918935811E+00    0.1170050047E-03    0.1401059068E+00    0.4918529132E+00
    0.3300000000E+05    0.5293929153E+00    0.1918329296E+00    0.1115521361E-03    0.1402571010E+00    0.4919750651E+00
    0.3500000000E+05    0.5298491451E+00    0.1917748096E+00    0.1067260290E-03    0.1403919752E+00    0.4920875835E+00
    0.3700000000E+05    0.5302562021E+00    0.1917190485E+00    0.1024208421E-03    0.1405131037E+00    0.4921917980E+00
    0.3900000000E+05    0.5306215853E+00    0.1916654846E+00    0.9855341503E-04    0.1406225432E+00    0.4922887893E+00
    0.4100000000E+05    0.5309513448E+00    0.1916139682E+00    0.9505751006E-04    0.1407219566E+00    0.4923794465E+00
    0.4300000000E+05    0.5312504150E+00    0.1915643614E+00    0.9187971839E-04    0.1408127035E+00    0.4924645088E+00
    0.4500000000E+05    0.5315228608E+00    0.1915165379E+00    0.8897649715E-04    0.1408959062E+00    0.4925445967E+00
    0.4700000000E+05    0.5317720606E+00    0.1914703817E+00    0.8631198964E-04    0.1409724999E+00    0.4926202358E+00
    0.4900000000E+05    0.5320008453E+00    0.1914257868E+00    0.8385639816E-04    0.1410432697E+00    0.4926918749E+00
    0.1000000000E+05    0.5114479008E+00    0.1926828257E+00    0.3212460018E-03    0.1352406625E+00    0.4889096755E+00
    0.3000000000E+05    0.5285951119E+00    0.1919249127E+00    0.1200077140E-03    0.1400232019E+00    0.4917877221E+00
    0.5000000000E+05    0.5321083436E+00    0.1914040441E+00    0.8269898167E-04    0.1410766825E+00    0.4927263171E+00
    0.7000000000E+05    0.5336093510E+00    0.1910315336E+00    0.6614722124E-04    0.1415572434E+00    0.4932757107E+00
    0.9000000000E+05    0.5344366596E+00    0.1907428297E+00    0.5646180810E-04    0.1418390928E+00    0.4936616995E+00
    0.1100000000E+06    0.5349579372E+00    0.1905073918E+00    0.4996100445E-04    0.1420275960E+00    0.4939585091E+00
    0.1300000000E+06    0.5353148620E+00    0.1903087043E+00    0.4522618773E-04    0.1421643144E+00    0.4941993584E+00
    0.1500000000E+06    0.5355735375E+00    0.1901368763E+00    0.4158586499E-04    0.1422690820E+00    0.4944018920E+00
    0.1700000000E+06    0.5357689145E+00    0.1899855275E+00    0.3867740886E-04    0.1423526193E+00    0.4945765748E+00
    0.1900000000E+06    0.5359211881E+00    0.1898503060E+00    0.3628610885E-04    0.1424212555E+00    0.4947301129E+00
    0.2100000000E+06    0.5360428302E+00    0.1897281120E+00    0.3427588647E-04    0.1424789834E+00    0.4948670570E+00
    0.2300000000E+06    0.5361419527E+00    0.1896166603E+00    0.3255586221E-04    0.1425284543E+00    0.4949906350E+00
    0.2500000000E+06    0.5362240552E+00    0.1895142176E+00    0.3106276671E-04    0.1425715034E+00    0.4951032182E+00
    0.2700000000E+06    0.5362929958E+00    0.1894194388E+00    0.2975103846E-04    0.1426094442E+00    0.4952065997E+00
    0.2900000000E+06    0.5363515590E+00    0.1893312588E+00    0.2858693521E-04    0.1426432441E+00    0.4953021674E+00
    0.3100000000E+06    0.5364018037E+00    0.1892488199E+00    0.2754487079E-04    0.1426736325E+00    0.4953910180E+00
    0.3300000000E+06    0.5364452841E+00    0.1891714213E+00    0.2660504839E-04    0.1427011709E+00    0.4954740323E+00
    0.3500000000E+06    0.5364831948E+00    0.1890984832E+00    0.2575188130E-04    0.1427262994E+00    0.4955519292E+00
    0.3700000000E+06    0.5365164688E+00    0.1890295203E+00    0.2497290950E-04    0.1427493681E+00    0.4956253021E+00
    0.3900000000E+06    0.5365458448E+00    0.1889641222E+00    0.2425803819E-04    0.1427706597E+00    0.4956946474E+00
    0.4100000000E+06    0.5365719150E+00    0.1889019391E+00    0.2359899114E-04    0.1427904050E+00    0.4957603838E+00
    0.4300000000E+06    0.5365951596E+00    0.1888426703E+00    0.2298891067E-04    0.1428087947E+00    0.4958228681E+00
    0.4500000000E+06    0.5366159719E+00    0.1887860551E+00    0.2242206011E-04    0.1428259878E+00    0.4958824067E+00
    0.4700000000E+06    0.5366346768E+00    0.1887318665E+00    0.2189359908E-04    0.1428421182E+00    0.4959392646E+00
    0.4900000000E+06    0.5366515452E+00    0.1886799053E+00    0.2139941136E-04    0.1428572994E+00    0.4959936727E+00
    0.1000000000E+06    0.5347240420E+00    0.1906196951E+00    0.5292826316E-04    0.1419416563E+00    0.4938186501E+00
    0.3000000000E+06    0.5363776142E+00    0.1892893687E+00    0.2805199966E-04    0.1426588264E+00    0.4953473729E+00
    0.5000000000E+06    0.5366593632E+00    0.1886547043E+00    0.2116404825E-04    0.1428645650E+00    0.4960200222E+00
    0.7000000000E+06    0.5367591527E+00    0.1882341334E+00    0.1761649634E-04    0.1429776044E+00    0.4964565798E+00
    0.9000000000E+06    0.5368028532E+00    0.1879192002E+00    0.1537141617E-04    0.1430539627E+00    0.4967803419E+00
    0.1100000000E+07    0.5368231359E+00    0.1876673986E+00    0.1379040192E-04    0.1431111112E+00    0.4970377735E+00
    0.1300000000E+07    0.5368319336E+00    0.1874576222E+00    0.1260112489E-04    0.1431565719E+00    0.4972514781E+00
    0.1500000000E+07    0.5368345192E+00    0.1872778453E+00    0.1166542960E-04    0.1431942210E+00    0.4974341709E+00
    0.1700000000E+07    0.5368335268E+00    0.1871205620E+00    0.1090485116E-04    0.1432263012E+00    0.4975937189E+00
    0.1900000000E+07    0.5368303899E+00    0.1869807717E+00    0.1027111679E-04    0.1432542210E+00    0.4977353299E+00
    0.2100000000E+07    0.5368259392E+00    0.1868549753E+00    0.9732698544E-05    0.1432789194E+00    0.4978626305E+00
    0.2300000000E+07    0.5368206791E+00    0.1867406281E+00    0.9268024791E-05    0.1433010529E+00    0.4979782477E+00
    0.2500000000E+07    0.5368149270E+00    0.1866358219E+00    0.8861776128E-05    0.1433210973E+00    0.4980841457E+00
    0.2700000000E+07    0.5368088886E+00    0.1865390888E+00    0.8502736130E-05    0.1433394086E+00    0.4981818317E+00
    0.2900000000E+07    0.5368026996E+00    0.1864492755E+00    0.8182480520E-05    0.1433562593E+00    0.4982724872E+00
    0.3100000000E+07    0.5367964509E+00    0.1863654593E+00    0.7894543945E-05    0.1433718631E+00    0.4983570559E+00
    0.3300000000E+07    0.5367902043E+00    0.1862868904E+00    0.7633871554E-05    0.1433863900E+00    0.4984363034E+00
    0.3500000000E+07    0.5367840014E+00    0.1862129514E+00    0.7396447103E-05    0.1433999779E+00    0.4985108594E+00
    0.3700000000E+07    0.5367778706E+00    0.1861431279E+00    0.7179034181E-05    0.1434127398E+00    0.4985812480E+00
    0.3900000000E+07    0.5367718307E+00    0.1860769865E+00    0.6978992040E-05    0.1434247696E+00    0.4986479102E+00
    0.4100000000E+07    0.5367658941E+00    0.1860141589E+00    0.6794141890E-05    0.1434361461E+00    0.4987112204E+00
    0.4300000000E+07    0.5367600685E+00    0.1859543293E+00    0.6622668107E-05    0.1434469363E+00    0.4987714993E+00
    0.4500000000E+07    0.5367543582E+00    0.1858972252E+00    0.6463044056E-05    0.1434571971E+00    0.4988290237E+00
    0.4700000000E+07    0.5367487654E+00    0.1858426094E+00    0.6313975624E-05    0.1434669779E+00    0.4988840342E+00
    0.4900000000E+07    0.5367432902E+00    0.1857902746E+00    0.6174357654E-05    0.1434763211E+00    0.4989367412E+00
    0.1000000000E+07    0.5368149388E+00    0.1877870238E+00    0.1451950519E-04    0.1430843436E+00    0.4969156111E+00
    0.3000000000E+07    0.5367995783E+00    0.1864066681E+00    0.8034816309E-05    0.1433642056E+00    0.4983154809E+00
    0.5000000000E+07    0.5367405966E+00    0.1857649045E+00    0.6107790378E-05    0.1434808406E+00    0.4989622895E+00
    0.7000000000E+07    0.5366923876E+00    0.1853425484E+00    0.5099159982E-05    0.1435552491E+00    0.4993874573E+00
    0.9000000000E+07    0.5366529515E+00    0.1850273325E+00    0.4456261396E-05    0.1436099461E+00    0.4997046420E+00
    0.1100000000E+08    0.5366198107E+00    0.1847758075E+00    0.4001706645E-05    0.1436532001E+00    0.4999576984E+00
    0.1300000000E+08    0.5365912943E+00    0.1845665417E+00    0.3658909129E-05    0.1436889732E+00    0.5001682271E+00
    0.1500000000E+08    0.5365662913E+00    0.1843873749E+00    0.3388732403E-05    0.1437194723E+00    0.5003484745E+00
    0.1700000000E+08    0.5365440396E+00    0.1842307396E+00    0.3168840780E-05    0.1437460525E+00    0.5005060579E+00
    0.1900000000E+08    0.5365239974E+00    0.1840916048E+00    0.2985445160E-05    0.1437696062E+00    0.5006460396E+00
    0.2100000000E+08    0.5365057672E+00    0.1839664559E+00    0.2829516094E-05    0.1437907521E+00    0.5007719554E+00
    0.2300000000E+08    0.5364890490E+00    0.1838527407E+00    0.2694863073E-05    0.1438099365E+00    0.5008863725E+00
    0.2500000000E+08    0.5364736115E+00    0.1837485471E+00    0.2577082721E-05    0.1438274924E+00    0.5009912139E+00
    0.2700000000E+08    0.5364592725E+00    0.1836524057E+00    0.2472946775E-05    0.1438436745E+00    0.5010879575E+00
