  Pressure (Pa) 22mC5-400 (mol/kg) 3mC6-400 (mol/kg) 33mC5-400 (mol/kg) 23mC5-400 (mol/kg) C7-400 (mol/kg)
    0.1000000000E+01    0.1063395676E-02    0.1558578579E-02    0.3201818645E-03    0.9336008920E-04    0.1517578859E-01
    0.3000000000E+01    0.3177312280E-02    0.4454133833E-02    0.9215610637E-03    0.2789508822E-03    0.4337997218E-01
    0.5000000000E+01    0.5274249614E-02    0.7087641834E-02    0.1476981479E-02    0.4630522334E-03    0.6904433362E-01
    0.7000000000E+01    0.7354428685E-02    0.9493132460E-02    0.1992536373E-02    0.6456835257E-03    0.9249816895E-01
    0.9000000000E+01    0.9418066615E-02    0.1169898760E-01    0.2473272532E-02    0.8268638013E-03    0.1140161639E+00
    0.1100000000E+02    0.1146537673E-01    0.1372906616E-01    0.2923403432E-02    0.1006611769E-02    0.1338292665E+00
    0.1300000000E+02    0.1349656865E-01    0.1560357047E-01    0.3346472722E-02    0.1184945814E-02    0.1521330610E+00
    0.1500000000E+02    0.1551184834E-01    0.1733972094E-01    0.3745480967E-02    0.1361883998E-02    0.1690942891E+00
    0.1700000000E+02    0.1751141822E-01    0.1895228662E-01    0.4122984884E-02    0.1537444076E-02    0.1848559792E+00
    0.1900000000E+02    0.1949547724E-01    0.2045400641E-01    0.4481175776E-02    0.1711643495E-02    0.1995415185E+00
    0.2100000000E+02    0.2146422092E-01    0.2185592629E-01    0.4821942032E-02    0.1884499404E-02    0.2132579139E+00
    0.2300000000E+02    0.2341784148E-01    0.2316767152E-01    0.5146919352E-02    0.2056028659E-02    0.2260984237E+00
    0.2500000000E+02    0.2535652783E-01    0.2439766794E-01    0.5457531375E-02    0.2226247831E-02    0.2381446983E+00
    0.2700000000E+02    0.2728046574E-01    0.2555332315E-01    0.5755022797E-02    0.2395173210E-02    0.2494685321E+00
    0.2900000000E+02    0.2918983781E-01    0.2664117584E-01    0.6040486523E-02    0.2562820812E-02    0.2601333081E+00
    0.3100000000E+02    0.3108482360E-01    0.2766701955E-01    0.6314886070E-02    0.2729206384E-02    0.2701951951E+00
    0.3300000000E+02    0.3296559966E-01    0.2863600591E-01    0.6579074155E-02    0.2894345411E-02    0.2797041464E+00
    0.3500000000E+02    0.3483233962E-01    0.2955273114E-01    0.6833808197E-02    0.3058253120E-02    0.2887047366E+00
    0.3700000000E+02    0.3668521421E-01    0.3042130894E-01    0.7079763315E-02    0.3220944487E-02    0.2972368673E+00
    0.3900000000E+02    0.3852439137E-01    0.3124543219E-01    0.7317543274E-02    0.3382434239E-02    0.3053363642E+00
    0.4100000000E+02    0.4035003627E-01    0.3202842545E-01    0.7547689745E-02    0.3542736862E-02    0.3130354845E+00
    0.4300000000E+02    0.4216231137E-01    0.3277328977E-01    0.7770690175E-02    0.3701866605E-02    0.3203633511E+00
    0.4500000000E+02    0.4396137649E-01    0.3348274105E-01    0.7986984497E-02    0.3859837486E-02    0.3273463244E+00
    0.4700000000E+02    0.4574738887E-01    0.3415924322E-01    0.8196970883E-02    0.4016663294E-02    0.3340083225E+00
    0.4900000000E+02    0.4752050318E-01    0.3480503674E-01    0.8401010680E-02    0.4172357596E-02    0.3403710979E+00
    0.1000000000E+02    0.1044374946E-01    0.1273465931E-01    0.2701928101E-02    0.9169156673E-03    0.1241228581E+00
    0.3000000000E+02    0.3013911789E-01    0.2716151288E-01    0.6179013622E-02    0.2646170377E-02    0.2652363555E+00
    0.5000000000E+02    0.4840227123E-01    0.3511706296E-01    0.8500904520E-02    0.4249784612E-02    0.3434465422E+00
    0.7000000000E+02    0.6539635980E-01    0.4015611691E-01    0.1025265067E-01    0.5742067385E-02    0.3932359668E+00
    0.9000000000E+02    0.8126018147E-01    0.4363257498E-01    0.1165292584E-01    0.7135192126E-02    0.4277599129E+00
    0.1100000000E+03    0.9611256002E-01    0.4617455161E-01    0.1280586084E-01    0.8439580625E-02    0.4531316408E+00
    0.1300000000E+03    0.1100558159E+00    0.4811328569E-01    0.1377028432E-01    0.9664207373E-02    0.4725803400E+00
    0.1500000000E+03    0.1231785405E+00    0.4964002070E-01    0.1458383261E-01    0.1081684283E-01    0.4879734978E+00
    0.1700000000E+03    0.1355578310E+00    0.5087290449E-01    0.1527284342E-01    0.1190424944E-01    0.5004667417E+00
    0.1900000000E+03    0.1472611040E+00    0.5188886891E-01    0.1585696018E-01    0.1293234062E-01    0.5108138131E+00
    0.2100000000E+03    0.1583475776E+00    0.5274016178E-01    0.1635150682E-01    0.1390631074E-01    0.5195274686E+00
    0.2300000000E+03    0.1688694892E+00    0.5346351175E-01    0.1676882383E-01    0.1483074195E-01    0.5269687680E+00
    0.2500000000E+03    0.1788731034E+00    0.5408549179E-01    0.1711907831E-01    0.1570969257E-01    0.5333993772E+00
    0.2700000000E+03    0.1883995505E+00    0.5462580189E-01    0.1741078756E-01    0.1654677057E-01    0.5390136129E+00
    0.2900000000E+03    0.1974855274E+00    0.5509935578E-01    0.1765117644E-01    0.1734519509E-01    0.5439588315E+00
    0.3100000000E+03    0.2061638871E+00    0.5551765082E-01    0.1784643244E-01    0.1810784812E-01    0.5483488278E+00
    0.3300000000E+03    0.2144641359E+00    0.5588969290E-01    0.1800189479E-01    0.1883731811E-01    0.5522728905E+00
    0.3500000000E+03    0.2224128561E+00    0.5622263637E-01    0.1812219884E-01    0.1953593704E-01    0.5558020725E+00
    0.3700000000E+03    0.2300340656E+00    0.5652223628E-01    0.1821138908E-01    0.2020581195E-01    0.5589936285E+00
    0.3900000000E+03    0.2373495253E+00    0.5679317435E-01    0.1827300933E-01    0.2084885193E-01    0.5618942153E+00
    0.4100000000E+03    0.2443790039E+00    0.5703929783E-01    0.1831017599E-01    0.2146679129E-01    0.5645422398E+00
    0.4300000000E+03    0.2511405056E+00    0.5726379735E-01    0.1832563813E-01    0.2206120960E-01    0.5669696090E+00
    0.4500000000E+03    0.2576504669E+00    0.5746934109E-01    0.1832182744E-01    0.2263354889E-01    0.5692030516E+00
    0.4700000000E+03    0.2639239284E+00    0.5765817745E-01    0.1830090018E-01    0.2318512875E-01    0.5712651301E+00
    0.4900000000E+03    0.2699746830E+00    0.5783221434E-01    0.1826477249E-01    0.2371715934E-01    0.5731750233E+00
    0.1000000000E+03    0.8880605479E-01    0.4499521176E-01    0.1225596069E-01    0.7797886690E-02    0.4413446258E+00
    0.3000000000E+03    0.2018737421E+00    0.5531479800E-01    0.1775409434E-01    0.1773082485E-01    0.5462171618E+00
    0.5000000000E+03    0.2729205470E+00    0.5791420165E-01    0.1824154911E-01    0.2397619475E-01    0.5740781223E+00
    0.7000000000E+03    0.3227396478E+00    0.5907041449E-01    0.1730587340E-01    0.2835816059E-01    0.5871148043E+00
    0.9000000000E+03    0.3600136190E+00    0.5971127452E-01    0.1597670378E-01    0.3163856746E-01    0.5947134171E+00
    0.1100000000E+04    0.3891131895E+00    0.6011148607E-01    0.1460805527E-01    0.3420098774E-01    0.5997057733E+00
    0.1300000000E+04    0.4125265288E+00    0.6038084729E-01    0.1332440075E-01    0.3626382068E-01    0.6032443774E+00
    0.1500000000E+04    0.4317966526E+00    0.6057164694E-01    0.1216391752E-01    0.3796252960E-01    0.6058878479E+00
    0.1700000000E+04    0.4479417280E+00    0.6071186242E-01    0.1113104988E-01    0.3938651756E-01    0.6079403056E+00
    0.1900000000E+04    0.4616656943E+00    0.6081776760E-01    0.1021739068E-01    0.4059760767E-01    0.6095817071E+00
    0.2100000000E+04    0.4734731901E+00    0.6089944466E-01    0.9410340994E-02    0.4164012809E-01    0.6109254488E+00
    0.2300000000E+04    0.4837365920E+00    0.6096345572E-01    0.8696728076E-02    0.4254679508E-01    0.6120465906E+00
    0.2500000000E+04    0.4927372554E+00    0.6101424482E-01    0.8064252736E-02    0.4334233269E-01    0.6129968247E+00
    0.2700000000E+04    0.5006920066E+00    0.6105492143E-01    0.7501983540E-02    0.4404579808E-01    0.6138129298E+00
    0.2900000000E+04    0.5077707751E+00    0.6108772153E-01    0.7000435411E-02    0.4467212937E-01    0.6145217983E+00
    0.3100000000E+04    0.5141086846E+00    0.6111429069E-01    0.6551476106E-02    0.4523320723E-01    0.6151435557E+00
    0.3300000000E+04    0.5198145562E+00    0.6113586441E-01    0.6148171698E-02    0.4573860144E-01    0.6156935675E+00
    0.3500000000E+04    0.5249770181E+00    0.6115338650E-01    0.5784621004E-02    0.4619610744E-01    0.6161837706E+00
    0.3700000000E+04    0.5296689803E+00    0.6116758900E-01    0.5455800190E-02    0.4661213936E-01    0.6166235815E+00
    0.3900000000E+04    0.5339509663E+00    0.6117904736E-01    0.5157425338E-02    0.4699202259E-01    0.6170205291E+00
    0.4100000000E+04    0.5378736293E+00    0.6118821935E-01    0.4885834543E-02    0.4734021488E-01    0.6173807065E+00
    0.4300000000E+04    0.5414796792E+00    0.6119547306E-01    0.4637888428E-02    0.4766047560E-01    0.6177090984E+00
    0.4500000000E+04    0.5448053746E+00    0.6120110732E-01    0.4410886946E-02    0.4795599686E-01    0.6180098227E+00
    0.4700000000E+04    0.5478816914E+00    0.6120536685E-01    0.4202500107E-02    0.4822950615E-01    0.6182863113E+00
    0.4900000000E+04    0.5507352459E+00    0.6120845362E-01    0.4010710402E-02    0.4848334757E-01    0.6185414482E+00
    0.1000000000E+04    0.3754003012E+00    0.5993259914E-01    0.1528651993E-01    0.3299329694E-01    0.5974427908E+00
    0.3000000000E+04    0.5110250005E+00    0.6110169976E-01    0.6769841653E-02    0.4496017983E-01    0.6148425121E+00
    0.5000000000E+04    0.5520857973E+00    0.6120961084E-01    0.3920482498E-02    0.4860353672E-01    0.6186617874E+00
    0.7000000000E+04    0.5716168025E+00    0.6120004375E-01    0.2664481941E-02    0.5034615999E-01    0.6203814028E+00
    0.9000000000E+04    0.5829513984E+00    0.6116345574E-01    0.1990507257E-02    0.5136312194E-01    0.6213757566E+00
    0.1100000000E+05    0.5903284173E+00    0.6112017413E-01    0.1580736033E-02    0.5202871785E-01    0.6220316618E+00
    0.1300000000E+05    0.5955027254E+00    0.6107631944E-01    0.1309449412E-02    0.5249819947E-01    0.6225011858E+00
    0.1500000000E+05    0.5993284567E+00    0.6103394877E-01    0.1118446532E-02    0.5284727408E-01    0.6228565768E+00
    0.1700000000E+05    0.6022699729E+00    0.6099372560E-01    0.9775765958E-03    0.5311717860E-01    0.6231366931E+00
    0.1900000000E+05    0.6046009712E+00    0.6095578653E-01    0.8698482107E-03    0.5333226420E-01    0.6233643612E+00
    0.2100000000E+05    0.6064930394E+00    0.6092006232E-01    0.7850392113E-03    0.5350782607E-01    0.6235539057E+00
    0.2300000000E+05    0.6080591228E+00    0.6088640722E-01    0.7166702551E-03    0.5365395110E-01    0.6237147915E+00
    0.2500000000E+05    0.6093765604E+00    0.6085465356E-01    0.6604553594E-03    0.5377755940E-01    0.6238535359E+00
    0.2700000000E+05    0.6105000685E+00    0.6082463496E-01    0.6134568771E-03    0.5388355609E-01    0.6239747811E+00
    0.2900000000E+05    0.6114694356E+00    0.6079619588E-01    0.5735999153E-03    0.5397551484E-01    0.6240819289E+00
    0.3100000000E+05    0.6123142809E+00    0.6076919482E-01    0.5393807511E-03    0.5405610104E-01    0.6241775324E+00
    0.3300000000E+05    0.6130571039E+00    0.6074350483E-01    0.5096850377E-03    0.5412734318E-01    0.6242635478E+00
    0.3500000000E+05    0.6137152994E+00    0.6071901267E-01    0.4836707240E-03    0.5419081253E-01    0.6243415011E+00
    0.3700000000E+05    0.6143025258E+00    0.6069561761E-01    0.4606904862E-03    0.5424774519E-01    0.6244126012E+00
    0.3900000000E+05    0.6148296562E+00    0.6067323006E-01    0.4402390390E-03    0.5429912704E-01    0.6244778197E+00
    0.4100000000E+05    0.6153054528E+00    0.6065177019E-01    0.4219165470E-03    0.5434575409E-01    0.6245379467E+00
    0.4300000000E+05    0.6157370557E+00    0.6063116679E-01    0.4054027083E-03    0.5438827621E-01    0.6245936321E+00
    0.4500000000E+05    0.6161303404E+00    0.6061135615E-01    0.3904380698E-03    0.5442722917E-01    0.6246454157E+00
    0.4700000000E+05    0.6164901864E+00    0.6059228112E-01    0.3768103372E-03    0.5446305878E-01    0.6246937501E+00
    0.4900000000E+05    0.6168206790E+00    0.6057389032E-01    0.3643441974E-03    0.5449613898E-01    0.6247390177E+00
    0.1000000000E+05    0.5869939042E+00    0.6114211827E-01    0.1762810392E-02    0.5172739923E-01    0.6217337210E+00
    0.3000000000E+05    0.6119058779E+00    0.6078252387E-01    0.5558627695E-03    0.5401709026E-01    0.6241310397E+00
    0.5000000000E+05    0.6169760163E+00    0.6056493683E-01    0.3585001250E-03    0.5451174878E-01    0.6247606051E+00
    0.7000000000E+05    0.6191507725E+00    0.6041262782E-01    0.2773147512E-03    0.5473564867E-01    0.6250898722E+00
    0.9000000000E+05    0.6203584867E+00    0.6029563661E-01    0.2320572472E-03    0.5486643250E-01    0.6253051534E+00
    0.1100000000E+06    0.6211264837E+00    0.6020069775E-01    0.2026788079E-03    0.5495368644E-01    0.6254625510E+00
    0.1300000000E+06    0.6216577094E+00    0.6012082670E-01    0.1817941782E-03    0.5501686740E-01    0.6255855689E+00
    0.1500000000E+06    0.6220468870E+00    0.6005190101E-01    0.1660290326E-03    0.5506522788E-01    0.6256860517E+00
    0.1700000000E+06    0.6223441646E+00    0.5999128567E-01    0.1536122868E-03    0.5510375611E-01    0.6257707266E+00
    0.1900000000E+06    0.6225785748E+00    0.5993719467E-01    0.1435195293E-03    0.5513539164E-01    0.6258437503E+00
    0.2100000000E+06    0.6227680891E+00    0.5988836172E-01    0.1351140637E-03    0.5516198593E-01    0.6259078571E+00
    0.2300000000E+06    0.6229244272E+00    0.5984385649E-01    0.1279776392E-03    0.5518476717E-01    0.6259649347E+00
    0.2500000000E+06    0.6230555583E+00    0.5980297544E-01    0.1218231615E-03    0.5520458450E-01    0.6260163376E+00
    0.2700000000E+06    0.6231670895E+00    0.5976517363E-01    0.1164463996E-03    0.5522204535E-01    0.6260630686E+00
    0.2900000000E+06    0.6232630812E+00    0.5973002040E-01    0.1116977069E-03    0.5523759669E-01    0.6261058897E+00
    0.3100000000E+06    0.6233465454E+00    0.5969716953E-01    0.1074646679E-03    0.5525157541E-01    0.6261453930E+00
    0.3300000000E+06    0.6234197638E+00    0.5966633847E-01    0.1036610222E-03    0.5526424074E-01    0.6261820470E+00
    0.3500000000E+06    0.6234844962E+00    0.5963729367E-01    0.1002193547E-03    0.5527579572E-01    0.6262162286E+00
    0.3700000000E+06    0.6235421220E+00    0.5960983988E-01    0.9708612972E-04    0.5528640192E-01    0.6262482455E+00
    0.3900000000E+06    0.6235937372E+00    0.5958381215E-01    0.9421823252E-04    0.5529618965E-01    0.6262783518E+00
    0.4100000000E+06    0.6236402239E+00    0.5955906995E-01    0.9158050578E-04    0.5530526536E-01    0.6263067596E+00
    0.4300000000E+06    0.6236823001E+00    0.5953549251E-01    0.8914396110E-04    0.5531371693E-01    0.6263336481E+00
    0.4500000000E+06    0.6237205558E+00    0.5951297532E-01    0.8688445736E-04    0.5532161765E-01    0.6263591697E+00
    0.4700000000E+06    0.6237554808E+00    0.5949142733E-01    0.8478170864E-04    0.5532902919E-01    0.6263834551E+00
    0.4900000000E+06    0.6237874845E+00    0.5947076872E-01    0.8281852911E-04    0.5533600385E-01    0.6264066173E+00
    0.1000000000E+06    0.6207809616E+00    0.6024593887E-01    0.2159874751E-03    0.5491392772E-01    0.6253892179E+00
    0.3000000000E+06    0.6233062224E+00    0.5971332613E-01    0.1095226352E-03    0.5524476489E-01    0.6261260243E+00
    0.5000000000E+06    0.6238025010E+00    0.5946075062E-01    0.8188460884E-04    0.5533934159E-01    0.6264178085E+00
    0.7000000000E+06    0.6240104039E+00    0.5929367359E-01    0.6788680937E-04    0.5539124821E-01    0.6266009932E+00
    0.9000000000E+06    0.6241228873E+00    0.5916868719E-01    0.5909821037E-04    0.5542628393E-01    0.6267345612E+00
    0.1100000000E+07    0.6241923873E+00    0.5906882470E-01    0.5293797676E-04    0.5545248862E-01    0.6268396637E+00
    0.1300000000E+07    0.6242389793E+00    0.5898567331E-01    0.4831842476E-04    0.5547332237E-01    0.6269262976E+00
    0.1500000000E+07    0.6242719813E+00    0.5891444410E-01    0.4469192205E-04    0.5549056763E-01    0.6269999796E+00
    0.1700000000E+07    0.6242962969E+00    0.5885215001E-01    0.4174906238E-04    0.5550525561E-01    0.6270640756E+00
    0.1900000000E+07    0.6243147462E+00    0.5879680203E-01    0.3930022242E-04    0.5551803361E-01    0.6271207905E+00
    0.2100000000E+07    0.6243290626E+00    0.5874700888E-01    0.3722191873E-04    0.5552933322E-01    0.6271716471E+00
    0.2300000000E+07    0.6243403683E+00    0.5870175923E-01    0.3542985998E-04    0.5553945601E-01    0.6272177412E+00
    0.2500000000E+07    0.6243494202E+00    0.5866029486E-01    0.3386429891E-04    0.5554862063E-01    0.6272598872E+00
    0.2700000000E+07    0.6243567466E+00    0.5862203268E-01    0.3248155924E-04    0.5555699048E-01    0.6272987075E+00
    0.2900000000E+07    0.6243627267E+00    0.5858651465E-01    0.3124888091E-04    0.5556469078E-01    0.6273346879E+00
    0.3100000000E+07    0.6243676394E+00    0.5855337441E-01    0.3014115040E-04    0.5557181952E-01    0.6273682150E+00
    0.3300000000E+07    0.6243716939E+00    0.5852231435E-01    0.2913875253E-04    0.5557845483E-01    0.6273996016E+00
    0.3500000000E+07    0.6243750504E+00    0.5849308940E-01    0.2822611596E-04    0.5558465991E-01    0.6274291043E+00
    0.3700000000E+07    0.6243778327E+00    0.5846549537E-01    0.2739070250E-04    0.5559048666E-01    0.6274569362E+00
    0.3900000000E+07    0.6243801387E+00    0.5843936033E-01    0.2662228869E-04    0.5559597814E-01    0.6274832760E+00
    0.4100000000E+07    0.6243820460E+00    0.5841453818E-01    0.2591244473E-04    0.5560117054E-01    0.6275082755E+00
    0.4300000000E+07    0.6243836174E+00    0.5839090367E-01    0.2525414981E-04    0.5560609448E-01    0.6275320642E+00
    0.4500000000E+07    0.6243849038E+00    0.5836834866E-01    0.2464150365E-04    0.5561077615E-01    0.6275547538E+00
    0.4700000000E+07    0.6243859470E+00    0.5834677914E-01    0.2406950698E-04    0.5561523812E-01    0.6275764412E+00
    0.4900000000E+07    0.6243867815E+00    0.5832611283E-01    0.2353389229E-04    0.5561949992E-01    0.6275972112E+00
    0.1000000000E+07    0.6241613770E+00    0.5911625971E-01    0.5577604270E-04    0.5544021666E-01    0.6267898971E+00
    0.3000000000E+07    0.6243653020E+00    0.5856966730E-01    0.3068073231E-04    0.5556832131E-01    0.6273517370E+00
    0.5000000000E+07    0.6243871297E+00    0.5831609542E-01    0.2327856162E-04    0.5562156118E-01    0.6276072757E+00
    0.7000000000E+07    0.6243881153E+00    0.5814940994E-01    0.1941298252E-04    0.5565547890E-01    0.6277744934E+00
    0.9000000000E+07    0.6243838896E+00    0.5802511122E-01    0.1695223956E-04    0.5568038929E-01    0.6278989584E+00
    0.1100000000E+08    0.6243781033E+00    0.5792599215E-01    0.1521393231E-04    0.5570007562E-01    0.6279981195E+00
    0.1300000000E+08    0.6243719210E+00    0.5784357051E-01    0.1390388205E-04    0.5571634924E-01    0.6280805358E+00
    0.1500000000E+08    0.6243657724E+00    0.5777303602E-01    0.1287191541E-04    0.5573021821E-01    0.6281510468E+00
    0.1700000000E+08    0.6243598238E+00    0.5771139639E-01    0.1203239243E-04    0.5574230131E-01    0.6282126572E+00
    0.1900000000E+08    0.6243541354E+00    0.5765666307E-01    0.1133247491E-04    0.5575300570E-01    0.6282673608E+00
    0.2100000000E+08    0.6243487217E+00    0.5760744733E-01    0.1073758052E-04    0.5576261357E-01    0.6283165489E+00
    0.2300000000E+08    0.6243435775E+00    0.5756274096E-01    0.1022401004E-04    0.5577132851E-01    0.6283612306E+00
    0.2500000000E+08    0.6243386890E+00    0.5752178889E-01    0.9774912211E-05    0.5577930226E-01    0.6284021615E+00
    0.2700000000E+08    0.6243340391E+00    0.5748401096E-01    0.9377936849E-05    0.5578665091E-01    0.6284399215E+00
