  Pressure (Pa) 22mC5-400 (mol/kg) 3mC6-400 (mol/kg) 33mC5-400 (mol/kg) 23mC5-400 (mol/kg) C7-400 (mol/kg)
    0.1000000000E+01    0.1062960397E-02    0.1570200803E-02    0.3220145979E-03    0.3732876361E-03    0.1019226391E-01
    0.3000000000E+01    0.3173430909E-02    0.4550398511E-02    0.9365680766E-03    0.1114441716E-02    0.2954186508E-01
    0.5000000000E+01    0.5263566966E-02    0.7334574836E-02    0.1515036248E-02    0.1848460826E-02    0.4762497998E-01
    0.7000000000E+01    0.7333681854E-02    0.9941475358E-02    0.2060837369E-02    0.2575454865E-02    0.6456252960E-01
    0.9000000000E+01    0.9384082367E-02    0.1238752849E-01    0.2576957582E-02    0.3295531456E-02    0.8046049959E-01
    0.1100000000E+02    0.1141506897E-01    0.1468719281E-01    0.3066016949E-02    0.4008796002E-02    0.9541217774E-01
    0.1300000000E+02    0.1342693595E-01    0.1685324368E-01    0.3530323797E-02    0.4715351741E-02    0.1095000009E+00
    0.1500000000E+02    0.1541997160E-01    0.1889701130E-01    0.3971919719E-02    0.5415299806E-02    0.1227970887E+00
    0.1700000000E+02    0.1739445835E-01    0.2082857943E-01    0.4392617043E-02    0.6108739272E-02    0.1353685242E+00
    0.1900000000E+02    0.1935067291E-01    0.2265695225E-01    0.4794030188E-02    0.6795767213E-02    0.1472724287E+00
    0.2100000000E+02    0.2128888644E-01    0.2439019503E-01    0.5177602038E-02    0.7476478748E-02    0.1585608691E+00
    0.2300000000E+02    0.2320936465E-01    0.2603555348E-01    0.5544626235E-02    0.8150967095E-02    0.1692806266E+00
    0.2500000000E+02    0.2511236797E-01    0.2759955524E-01    0.5896266098E-02    0.8819323614E-02    0.1794738507E+00
    0.2700000000E+02    0.2699815168E-01    0.2908809670E-01    0.6233570749E-02    0.9481637852E-02    0.1891786194E+00
    0.2900000000E+02    0.2886696599E-01    0.3050651755E-01    0.6557488913E-02    0.1013799759E-01    0.1984294193E+00
    0.3100000000E+02    0.3071905623E-01    0.3185966494E-01    0.6868880778E-02    0.1078848890E-01    0.2072575596E+00
    0.3300000000E+02    0.3255466292E-01    0.3315194902E-01    0.7168528210E-02    0.1143319614E-01    0.2156915297E+00
    0.3500000000E+02    0.3437402191E-01    0.3438739112E-01    0.7457143601E-02    0.1207220206E-01    0.2237573102E+00
    0.3700000000E+02    0.3617736448E-01    0.3556966568E-01    0.7735377542E-02    0.1270558780E-01    0.2314786434E+00
    0.3900000000E+02    0.3796491747E-01    0.3670213684E-01    0.8003825504E-02    0.1333343293E-01    0.2388772688E+00
    0.4100000000E+02    0.3973690335E-01    0.3778789061E-01    0.8263033677E-02    0.1395581549E-01    0.2459731310E+00
    0.4300000000E+02    0.4149354038E-01    0.3882976295E-01    0.8513504078E-02    0.1457281206E-01    0.2527845604E+00
    0.4500000000E+02    0.4323504263E-01    0.3983036466E-01    0.8755699041E-02    0.1518449774E-01    0.2593284341E+00
    0.4700000000E+02    0.4496162017E-01    0.4079210327E-01    0.8990045169E-02    0.1579094622E-01    0.2656203170E+00
    0.4900000000E+02    0.4667347909E-01    0.4171720247E-01    0.9216936825E-02    0.1639222980E-01    0.2716745868E+00
    0.1000000000E+02    0.1040198387E-01    0.1355482435E-01    0.2824718863E-02    0.3653008732E-02    0.8804923786E-01
    0.3000000000E+02    0.2979508647E-01    0.3119096515E-01    0.6714700041E-02    0.1046397149E-01    0.2028944791E+00
    0.5000000000E+02    0.4752395242E-01    0.4216666120E-01    0.9327702416E-02    0.1669095697E-01    0.2746168129E+00
    0.7000000000E+02    0.6380807192E-01    0.4965794606E-01    0.1122749898E-01    0.2241096522E-01    0.3237399580E+00
    0.9000000000E+02    0.7882928406E-01    0.5509769680E-01    0.1267105959E-01    0.2768778936E-01    0.3595340336E+00
    0.1100000000E+03    0.9273951857E-01    0.5922744908E-01    0.1379593011E-01    0.3257473094E-01    0.3868020173E+00
    0.1300000000E+03    0.1056667104E+00    0.6246957542E-01    0.1468473754E-01    0.3711667449E-01    0.4082828067E+00
    0.1500000000E+03    0.1177193693E+00    0.6508237342E-01    0.1539153005E-01    0.4135169035E-01    0.4256532836E+00
    0.1700000000E+03    0.1289901469E+00    0.6723271560E-01    0.1595398127E-01    0.4531228576E-01    0.4399980486E+00
    0.1900000000E+03    0.1395586473E+00    0.6903322922E-01    0.1639963503E-01    0.4902639087E-01    0.4520499811E+00
    0.2100000000E+03    0.1494936620E+00    0.7056269208E-01    0.1674936981E-01    0.5251814262E-01    0.4623222948E+00
    0.2300000000E+03    0.1588549613E+00    0.7187786689E-01    0.1701945484E-01    0.5580851312E-01    0.4711852124E+00
    0.2500000000E+03    0.1676947410E+00    0.7302069337E-01    0.1722284152E-01    0.5891581715E-01    0.4789125964E+00
    0.2700000000E+03    0.1760587996E+00    0.7402283286E-01    0.1737001451E-01    0.6185612509E-01    0.4857114341E+00
    0.2900000000E+03    0.1839875024E+00    0.7490863687E-01    0.1746957576E-01    0.6464360114E-01    0.4917411105E+00
    0.3100000000E+03    0.1915165756E+00    0.7569714259E-01    0.1752865929E-01    0.6729078199E-01    0.4971263736E+00
    0.3300000000E+03    0.1986777656E+00    0.7640344826E-01    0.1755323434E-01    0.6980880792E-01    0.5019662757E+00
    0.3500000000E+03    0.2054993879E+00    0.7703968232E-01    0.1754833252E-01    0.7220761549E-01    0.5063404788E+00
    0.3700000000E+03    0.2120067873E+00    0.7761569965E-01    0.1751822140E-01    0.7449609901E-01    0.5103137874E+00
    0.3900000000E+03    0.2182227261E+00    0.7813959067E-01    0.1746653965E-01    0.7668224657E-01    0.5139394655E+00
    0.4100000000E+03    0.2241677117E+00    0.7861805944E-01    0.1739640366E-01    0.7877325520E-01    0.5172617015E+00
    0.4300000000E+03    0.2298602761E+00    0.7905670852E-01    0.1731049297E-01    0.8077562873E-01    0.5203174665E+00
    0.4500000000E+03    0.2353172140E+00    0.7946025631E-01    0.1721111918E-01    0.8269526142E-01    0.5231379334E+00
    0.4700000000E+03    0.2405537869E+00    0.7983270488E-01    0.1710028236E-01    0.8453750959E-01    0.5257495735E+00
    0.4900000000E+03    0.2455838992E+00    0.8017747094E-01    0.1697971742E-01    0.8630725333E-01    0.5281750127E+00
    0.1000000000E+03    0.8591477437E-01    0.5729484500E-01    0.1326728924E-01    0.3017701366E-01    0.3740297389E+00
    0.3000000000E+03    0.1877999222E+00    0.7531402901E-01    0.1750377983E-01    0.6598400190E-01    0.4945075850E+00
    0.5000000000E+03    0.2480255445E+00    0.8034040657E-01    0.1691626614E-01    0.8716634411E-01    0.5293240952E+00
    0.7000000000E+03    0.2885882930E+00    0.8267912325E-01    0.1541239780E-01    0.1014433993E+00    0.5460738068E+00
    0.9000000000E+03    0.3180189950E+00    0.8401822321E-01    0.1383652817E-01    0.1118095995E+00    0.5559837940E+00
    0.1100000000E+04    0.3404288282E+00    0.8487825649E-01    0.1240474023E-01    0.1197083553E+00    0.5625595573E+00
    0.1300000000E+04    0.3580863363E+00    0.8547257957E-01    0.1115916935E-01    0.1259363277E+00    0.5672550208E+00
    0.1500000000E+04    0.3723626206E+00    0.8590468558E-01    0.1009045424E-01    0.1309751324E+00    0.5707836016E+00
    0.1700000000E+04    0.3841419323E+00    0.8623077493E-01    0.9175688649E-02    0.1351354481E+00    0.5735370984E+00
    0.1900000000E+04    0.3940228976E+00    0.8648395410E-01    0.8390743451E-02    0.1386276510E+00    0.5757488843E+00
    0.2100000000E+04    0.4024263676E+00    0.8668496544E-01    0.7714049540E-02    0.1415996770E+00    0.5775667856E+00
    0.2300000000E+04    0.4096573206E+00    0.8684744907E-01    0.7127423591E-02    0.1441587562E+00    0.5790890731E+00
    0.2500000000E+04    0.4159423592E+00    0.8698073182E-01    0.6615895623E-02    0.1463845811E+00    0.5803836702E+00
    0.2700000000E+04    0.4214534336E+00    0.8709139967E-01    0.6167249869E-02    0.1483376379E+00    0.5814990568E+00
    0.2900000000E+04    0.4263233961E+00    0.8718423044E-01    0.5771535032E-02    0.1500646703E+00    0.5824707808E+00
    0.3100000000E+04    0.4306565112E+00    0.8726277075E-01    0.5420628471E-02    0.1516023722E+00    0.5833255123E+00
    0.3300000000E+04    0.4345357403E+00    0.8732970586E-01    0.5107874108E-02    0.1529799470E+00    0.5840836606E+00
    0.3500000000E+04    0.4380279056E+00    0.8738710424E-01    0.4827790655E-02    0.1542209223E+00    0.5847611155E+00
    0.3700000000E+04    0.4411874202E+00    0.8743658347E-01    0.4575839732E-02    0.1553444610E+00    0.5853704363E+00
    0.3900000000E+04    0.4440590304E+00    0.8747942562E-01    0.4348242542E-02    0.1563663253E+00    0.5859216844E+00
    0.4100000000E+04    0.4466798625E+00    0.8751665906E-01    0.4141835049E-02    0.1572995961E+00    0.5864230169E+00
    0.4300000000E+04    0.4490809718E+00    0.8754911750E-01    0.3953953326E-02    0.1581552178E+00    0.5868811185E+00
    0.4500000000E+04    0.4512885285E+00    0.8757748342E-01    0.3782342487E-02    0.1589424154E+00    0.5873015208E+00
    0.4700000000E+04    0.4533247380E+00    0.8760232045E-01    0.3625084021E-02    0.1596690180E+00    0.5876888415E+00
    0.4900000000E+04    0.4552085601E+00    0.8762409774E-01    0.3480537528E-02    0.1603417120E+00    0.5880469664E+00
    0.1000000000E+04    0.3299315479E+00    0.8449099464E-01    0.1309801485E-01    0.1160077218E+00    0.5595720919E+00
    0.3000000000E+04    0.4285514441E+00    0.8722510222E-01    0.5590927355E-02    0.1508552110E+00    0.5829113720E+00
    0.5000000000E+04    0.4560985060E+00    0.8763396446E-01    0.3412582947E-02    0.1606596705E+00    0.5882161298E+00
    0.7000000000E+04    0.4688542187E+00    0.8773935745E-01    0.2465668603E-02    0.1652321884E+00    0.5906535833E+00
    0.9000000000E+04    0.4761636490E+00    0.8775759810E-01    0.1949936054E-02    0.1678712291E+00    0.5920843576E+00
    0.1100000000E+05    0.4808862330E+00    0.8774306863E-01    0.1628569795E-02    0.1695885911E+00    0.5930393808E+00
    0.1300000000E+05    0.4841825906E+00    0.8771470594E-01    0.1409770391E-02    0.1707959585E+00    0.5937296603E+00
    0.1500000000E+05    0.4866110345E+00    0.8768037766E-01    0.1251218304E-02    0.1716918507E+00    0.5942563710E+00
    0.1700000000E+05    0.4884727977E+00    0.8764372081E-01    0.1130907687E-02    0.1723836368E+00    0.5946743652E+00
    0.1900000000E+05    0.4899444957E+00    0.8760652931E-01    0.1036335693E-02    0.1729344204E+00    0.5950160918E+00
    0.2100000000E+05    0.4911364292E+00    0.8756971801E-01    0.9598993169E-03    0.1733837067E+00    0.5953020435E+00
    0.2300000000E+05    0.4921209913E+00    0.8753375454E-01    0.8967198057E-03    0.1737574865E+00    0.5955458380E+00
    0.2500000000E+05    0.4929476396E+00    0.8749886841E-01    0.8435270297E-03    0.1740735597E+00    0.5957569010E+00
    0.2700000000E+05    0.4936512999E+00    0.8746515842E-01    0.7980486227E-03    0.1743445261E+00    0.5959419788E+00
    0.2900000000E+05    0.4942573303E+00    0.8743265047E-01    0.7586569711E-03    0.1745795563E+00    0.5961060364E+00
    0.3100000000E+05    0.4947845830E+00    0.8740132971E-01    0.7241557889E-03    0.1747854845E+00    0.5962528157E+00
    0.3300000000E+05    0.4952473618E+00    0.8737115898E-01    0.6936460331E-03    0.1749675089E+00    0.5963851946E+00
    0.3500000000E+05    0.4956567143E+00    0.8734208955E-01    0.6664388379E-03    0.1751296537E+00    0.5965054259E+00
    0.3700000000E+05    0.4960213069E+00    0.8731406746E-01    0.6419973303E-03    0.1752750835E+00    0.5966153007E+00
    0.3900000000E+05    0.4963480329E+00    0.8728703723E-01    0.6198967548E-03    0.1754063215E+00    0.5967162623E+00
    0.4100000000E+05    0.4966424431E+00    0.8726094406E-01    0.5997965284E-03    0.1755254046E+00    0.5968094883E+00
    0.4300000000E+05    0.4969090569E+00    0.8723573506E-01    0.5814202639E-03    0.1756339951E+00    0.5968959499E+00
    0.4500000000E+05    0.4971515913E+00    0.8721135993E-01    0.5645412321E-03    0.1757334633E+00    0.5969764559E+00
    0.4700000000E+05    0.4973731307E+00    0.8718777124E-01    0.5489716108E-03    0.1758249493E+00    0.5970516858E+00
    0.4900000000E+05    0.4975762558E+00    0.8716492457E-01    0.5345544178E-03    0.1759094093E+00    0.5971222155E+00
    0.1000000000E+05    0.4787548956E+00    0.8775284775E-01    0.1772431911E-02    0.1688120109E+00    0.5926043223E+00
    0.3000000000E+05    0.4945298209E+00    0.8741684365E-01    0.7408570331E-03    0.1746858012E+00    0.5961813889E+00
    0.5000000000E+05    0.4976716066E+00    0.8715376641E-01    0.5277358174E-03    0.1759492620E+00    0.5971558742E+00
    0.7000000000E+05    0.4989959741E+00    0.8696093450E-01    0.4284934998E-03    0.1765207233E+00    0.5976709088E+00
    0.9000000000E+05    0.4997187527E+00    0.8680975231E-01    0.3688107949E-03    0.1768543286E+00    0.5980087669E+00
    0.1100000000E+06    0.5001703341E+00    0.8668560705E-01    0.3280488696E-03    0.1770767784E+00    0.5982558875E+00
    0.1300000000E+06    0.5004771381E+00    0.8658034711E-01    0.2980033385E-03    0.1772377774E+00    0.5984488540E+00
    0.1500000000E+06    0.5006978342E+00    0.8648900412E-01    0.2747022905E-03    0.1773609573E+00    0.5986062260E+00
    0.1700000000E+06    0.5008633061E+00    0.8640833586E-01    0.2559639320E-03    0.1774590558E+00    0.5987385926E+00
    0.1900000000E+06    0.5009913311E+00    0.8633611241E-01    0.2404791215E-03    0.1775395773E+00    0.5988525176E+00
    0.2100000000E+06    0.5010928502E+00    0.8627073546E-01    0.2274092562E-03    0.1776072474E+00    0.5989523278E+00
    0.2300000000E+06    0.5011749571E+00    0.8621102072E-01    0.2161893694E-03    0.1776652001E+00    0.5990410148E+00
    0.2500000000E+06    0.5012424471E+00    0.8615606649E-01    0.2064232720E-03    0.1777156016E+00    0.5991207271E+00
    0.2700000000E+06    0.5012986749E+00    0.8610517043E-01    0.1978239082E-03    0.1777600011E+00    0.5991930563E+00
    0.2900000000E+06    0.5013460550E+00    0.8605777490E-01    0.1901775752E-03    0.1777995383E+00    0.5992592123E+00
    0.3100000000E+06    0.5013863680E+00    0.8601342974E-01    0.1833214938E-03    0.1778350720E+00    0.5993201348E+00
    0.3300000000E+06    0.5014209551E+00    0.8597176638E-01    0.1771292219E-03    0.1778672629E+00    0.5993765675E+00
    0.3500000000E+06    0.5014508441E+00    0.8593247921E-01    0.1715008644E-03    0.1778966285E+00    0.5994291087E+00
    0.3700000000E+06    0.5014768359E+00    0.8589531205E-01    0.1663563224E-03    0.1779235801E+00    0.5994782460E+00
    0.3900000000E+06    0.5014995632E+00    0.8586004800E-01    0.1616305260E-03    0.1779484499E+00    0.5995243825E+00
    0.4100000000E+06    0.5015195320E+00    0.8582650185E-01    0.1572699989E-03    0.1779715089E+00    0.5995678543E+00
    0.4300000000E+06    0.5015371516E+00    0.8579451414E-01    0.1532303342E-03    0.1779929809E+00    0.5996089451E+00
    0.4500000000E+06    0.5015527563E+00    0.8576394664E-01    0.1494743115E-03    0.1780130523E+00    0.5996478960E+00
    0.4700000000E+06    0.5015666219E+00    0.8573467874E-01    0.1459704697E-03    0.1780318802E+00    0.5996849138E+00
    0.4900000000E+06    0.5015789776E+00    0.8570660453E-01    0.1426920114E-03    0.1780495978E+00    0.5997201770E+00
    0.1000000000E+06    0.4999681568E+00    0.8674490948E-01    0.3467250438E-03    0.1769754294E+00    0.5981407652E+00
    0.3000000000E+06    0.5013670025E+00    0.8603524572E-01    0.1866593744E-03    0.1778177604E+00    0.5992902773E+00
    0.5000000000E+06    0.5015846504E+00    0.8569298543E-01    0.1411299886E-03    0.1780580763E+00    0.5997371999E+00
    0.7000000000E+06    0.5016523358E+00    0.8546542335E-01    0.1175422802E-03    0.1781899249E+00    0.6000144455E+00
    0.9000000000E+06    0.5016757620E+00    0.8529473118E-01    0.1025784105E-03    0.1782789308E+00    0.6002149350E+00
    0.1100000000E+07    0.5016816301E+00    0.8515811610E-01    0.9202751628E-04    0.1783455208E+00    0.6003717313E+00
    0.1300000000E+07    0.5016794167E+00    0.8504422418E-01    0.8408521136E-04    0.1783984801E+00    0.6005003561E+00
    0.1500000000E+07    0.5016731786E+00    0.8494657259E-01    0.7783367545E-04    0.1784423325E+00    0.6006093259E+00
    0.1700000000E+07    0.5016648700E+00    0.8486110889E-01    0.7275073533E-04    0.1784796944E+00    0.6007038116E+00
    0.1900000000E+07    0.5016555109E+00    0.8478513013E-01    0.6851475806E-04    0.1785122083E+00    0.6007871862E+00
    0.2100000000E+07    0.5016456634E+00    0.8471674315E-01    0.6491549676E-04    0.1785409689E+00    0.6008617704E+00
    0.2300000000E+07    0.5016356489E+00    0.8465457028E-01    0.6180900636E-04    0.1785667415E+00    0.6009292286E+00
    0.2500000000E+07    0.5016256553E+00    0.8459757774E-01    0.5909301167E-04    0.1785900807E+00    0.6009907948E+00
    0.2700000000E+07    0.5016157931E+00    0.8454496989E-01    0.5669260097E-04    0.1786114012E+00    0.6010474087E+00
    0.2900000000E+07    0.5016061265E+00    0.8449612131E-01    0.5455149349E-04    0.1786310206E+00    0.6010998026E+00
    0.3100000000E+07    0.5015966916E+00    0.8445053148E-01    0.5262648514E-04    0.1786491878E+00    0.6011485577E+00
    0.3300000000E+07    0.5015875068E+00    0.8440779357E-01    0.5088379074E-04    0.1786661009E+00    0.6011941436E+00
    0.3500000000E+07    0.5015785794E+00    0.8436757244E-01    0.4929656260E-04    0.1786819205E+00    0.6012369444E+00
    0.3700000000E+07    0.5015699098E+00    0.8432958872E-01    0.4784316323E-04    0.1786967782E+00    0.6012772788E+00
    0.3900000000E+07    0.5015614940E+00    0.8429360712E-01    0.4650593569E-04    0.1787107834E+00    0.6013154137E+00
    0.4100000000E+07    0.5015533255E+00    0.8425942757E-01    0.4527031059E-04    0.1787240280E+00    0.6013515751E+00
    0.4300000000E+07    0.5015453959E+00    0.8422687856E-01    0.4412414610E-04    0.1787365898E+00    0.6013859560E+00
    0.4500000000E+07    0.5015376963E+00    0.8419581195E-01    0.4305723244E-04    0.1787485353E+00    0.6014187225E+00
    0.4700000000E+07    0.5015302171E+00    0.8416609888E-01    0.4206091447E-04    0.1787599217E+00    0.6014500184E+00
    0.4900000000E+07    0.5015229489E+00    0.8413762660E-01    0.4112780052E-04    0.1787707989E+00    0.6014799693E+00
    0.1000000000E+07    0.5016801042E+00    0.8522303262E-01    0.9689436407E-04    0.1783143333E+00    0.6002975918E+00
    0.3000000000E+07    0.5016013787E+00    0.8447294638E-01    0.5356427569E-04    0.1786402724E+00    0.6011246034E+00
    0.5000000000E+07    0.5015193910E+00    0.8412382428E-01    0.4068292369E-04    0.1787760602E+00    0.6014944753E+00
    0.7000000000E+07    0.5014572127E+00    0.8389405231E-01    0.3394354372E-04    0.1788626817E+00    0.6017348239E+00
    0.9000000000E+07    0.5014077798E+00    0.8372258930E-01    0.2964965284E-04    0.1789263548E+00    0.6019129730E+00
    0.1100000000E+08    0.5013668686E+00    0.8358579445E-01    0.2661479550E-04    0.1789767062E+00    0.6020544933E+00
    0.1300000000E+08    0.5013320029E+00    0.8347200290E-01    0.2432680835E-04    0.1790183489E+00    0.6021718613E+00
    0.1500000000E+08    0.5013016354E+00    0.8337459515E-01    0.2252402281E-04    0.1790538520E+00    0.6022721046E+00
    0.1700000000E+08    0.5012747413E+00    0.8328945130E-01    0.2105713062E-04    0.1790847931E+00    0.6023595731E+00
    0.1900000000E+08    0.5012506085E+00    0.8321383242E-01    0.1983397265E-04    0.1791122111E+00    0.6024371465E+00
    0.2100000000E+08    0.5012287230E+00    0.8314582507E-01    0.1879421155E-04    0.1791368260E+00    0.6025068299E+00
    0.2300000000E+08    0.5012087017E+00    0.8308403973E-01    0.1789648751E-04    0.1791591577E+00    0.6025700756E+00
    0.2500000000E+08    0.5011902516E+00    0.8302743550E-01    0.1711138545E-04    0.1791795937E+00    0.6026279688E+00
    0.2700000000E+08    0.5011731438E+00    0.8297521246E-01    0.1641734335E-04    0.1791984305E+00    0.6026813419E+00
