  Pressure (Pa) 22mC5-400 (mol/kg) 3mC6-400 (mol/kg) 33mC5-400 (mol/kg) 23mC5-400 (mol/kg) C7-400 (mol/kg)
    0.1000000000E+01    0.1063328162E-02    0.1562314977E-02    0.3849474500E-03    0.9335416476E-04    0.1352176873E-01
    0.3000000000E+01    0.3176711083E-02    0.4484798273E-02    0.1111798712E-02    0.2788981261E-03    0.3882410391E-01
    0.5000000000E+01    0.5272597221E-02    0.7165634634E-02    0.1787300649E-02    0.4629072326E-03    0.6204462804E-01
    0.7000000000E+01    0.7351223991E-02    0.9633628196E-02    0.2417663257E-02    0.6454023063E-03    0.8343109475E-01
    0.9000000000E+01    0.9412824455E-02    0.1191317894E-01    0.3008116114E-02    0.8264037878E-03    0.1031934061E+00
    0.1100000000E+02    0.1145762742E-01    0.1402509343E-01    0.3563092854E-02    0.1005931744E-02    0.1215105773E+00
    0.1300000000E+02    0.1348585753E-01    0.1598722288E-01    0.4086375791E-02    0.1184005878E-02    0.1385362180E+00
    0.1500000000E+02    0.1549773537E-01    0.1781496984E-01    0.4581210345E-02    0.1360645535E-02    0.1544028864E+00
    0.1700000000E+02    0.1749347755E-01    0.1952169421E-01    0.5050396345E-02    0.1535869713E-02    0.1692255773E+00
    0.1900000000E+02    0.1947329680E-01    0.2111904099E-01    0.5496361451E-02    0.1709697070E-02    0.1831045390E+00
    0.2100000000E+02    0.2143740205E-01    0.2261720691E-01    0.5921220652E-02    0.1882145929E-02    0.1961275646E+00
    0.2300000000E+02    0.2338599851E-01    0.2402515882E-01    0.6326824777E-02    0.2053234288E-02    0.2083718691E+00
    0.2500000000E+02    0.2531928776E-01    0.2535081370E-01    0.6714800337E-02    0.2222979827E-02    0.2199056365E+00
    0.2700000000E+02    0.2723746783E-01    0.2660118801E-01    0.7086582422E-02    0.2391399914E-02    0.2307893038E+00
    0.2900000000E+02    0.2914073328E-01    0.2778252215E-01    0.7443442018E-02    0.2558511613E-02    0.2410766313E+00
    0.3100000000E+02    0.3102927527E-01    0.2890038493E-01    0.7786508821E-02    0.2724331690E-02    0.2508156002E+00
    0.3300000000E+02    0.3290328162E-01    0.2995976157E-01    0.8116790382E-02    0.2888876618E-02    0.2600491696E+00
    0.3500000000E+02    0.3476293693E-01    0.3096512819E-01    0.8435188240E-02    0.3052162586E-02    0.2688159172E+00
    0.3700000000E+02    0.3660842258E-01    0.3192051519E-01    0.8742511591E-02    0.3214205504E-02    0.2771505843E+00
    0.3900000000E+02    0.3843991685E-01    0.3282956144E-01    0.9039488910E-02    0.3375021007E-02    0.2850845414E+00
    0.4100000000E+02    0.4025759499E-01    0.3369556068E-01    0.9326777877E-02    0.3534624465E-02    0.2926461879E+00
    0.4300000000E+02    0.4206162923E-01    0.3452150148E-01    0.9604973880E-02    0.3693030985E-02    0.2998612959E+00
    0.4500000000E+02    0.4385218891E-01    0.3531010185E-01    0.9874617339E-02    0.3850255419E-02    0.3067533073E+00
    0.4700000000E+02    0.4562944049E-01    0.3606383915E-01    0.1013620001E-01    0.4006312367E-02    0.3133435916E+00
    0.4900000000E+02    0.4739354766E-01    0.3678497614E-01    0.1039017049E-01    0.4161216184E-02    0.3196516703E+00
    0.1000000000E+02    0.1043731149E-01    0.1298891225E-01    0.3289788807E-02    0.9163507167E-03    0.1125224940E+00
    0.3000000000E+02    0.3008683289E-01    0.2834906314E-01    0.7616633886E-02    0.2641582068E-02    0.2460118659E+00
    0.5000000000E+02    0.4827072248E-01    0.3713397363E-01    0.1051443070E-01    0.4238240088E-02    0.3227055263E+00
    0.7000000000E+02    0.6516201412E-01    0.4282234179E-01    0.1268314284E-01    0.5721500928E-02    0.3725913033E+00
    0.9000000000E+02    0.8090695693E-01    0.4680608783E-01    0.1439952132E-01    0.7104191806E-02    0.4076862460E+00
    0.1100000000E+03    0.9563000418E-01    0.4975127684E-01    0.1579938159E-01    0.8397228489E-02    0.4337493658E+00
    0.1300000000E+03    0.1094377319E+00    0.5201680158E-01    0.1696042934E-01    0.9609958916E-02    0.4538883821E+00
    0.1500000000E+03    0.1224219445E+00    0.5381320288E-01    0.1793242132E-01    0.1075043556E-01    0.4699291222E+00
    0.1700000000E+03    0.1346621577E+00    0.5527216871E-01    0.1874996113E-01    0.1182563310E-01    0.4830152999E+00
    0.1900000000E+03    0.1462275975E+00    0.5648030205E-01    0.1943860566E-01    0.1284162381E-01    0.4939001916E+00
    0.2100000000E+03    0.1571788233E+00    0.5749690090E-01    0.2001807249E-01    0.1380371984E-01    0.5031003487E+00
    0.2300000000E+03    0.1675690531E+00    0.5836393695E-01    0.2050406593E-01    0.1471658946E-01    0.5109819428E+00
    0.2500000000E+03    0.1774452537E+00    0.5911195509E-01    0.2090939087E-01    0.1558435263E-01    0.5178118584E+00
    0.2700000000E+03    0.1868490422E+00    0.5976371547E-01    0.2124467330E-01    0.1641066011E-01    0.5237892630E+00
    0.2900000000E+03    0.1958174357E+00    0.6033652561E-01    0.2151885051E-01    0.1719875920E-01    0.5290658398E+00
    0.3100000000E+03    0.2043834790E+00    0.6084378129E-01    0.2173951875E-01    0.1795154876E-01    0.5337591688E+00
    0.3300000000E+03    0.2125767715E+00    0.6129601278E-01    0.2191318878E-01    0.1867162546E-01    0.5379618193E+00
    0.3500000000E+03    0.2204239127E+00    0.6170161218E-01    0.2204547912E-01    0.1936132283E-01    0.5417476773E+00
    0.3700000000E+03    0.2279488799E+00    0.6206734995E-01    0.2214126585E-01    0.2002274439E-01    0.5451764425E+00
    0.3900000000E+03    0.2351733502E+00    0.6239874846E-01    0.2220480093E-01    0.2065779189E-01    0.5482968844E+00
    0.4100000000E+03    0.2421169759E+00    0.6270035694E-01    0.2223980728E-01    0.2126818948E-01    0.5511492397E+00
    0.4300000000E+03    0.2487976213E+00    0.6297595671E-01    0.2224955622E-01    0.2185550447E-01    0.5537670048E+00
    0.4500000000E+03    0.2552315665E+00    0.6322871661E-01    0.2223693117E-01    0.2242116519E-01    0.5561782933E+00
    0.4700000000E+03    0.2614336841E+00    0.6346131214E-01    0.2220448067E-01    0.2296647652E-01    0.5584068784E+00
    0.4900000000E+03    0.2674175923E+00    0.6367601779E-01    0.2215446285E-01    0.2349263328E-01    0.5604730014E+00
    0.1000000000E+03    0.8838917735E-01    0.4838138212E-01    0.1513327891E-01    0.7761299424E-02    0.4216120511E+00
    0.3000000000E+03    0.2001488260E+00    0.6059763221E-01    0.2163544340E-01    0.1757939878E-01    0.5314791234E+00
    0.5000000000E+03    0.2703316638E+00    0.6377728119E-01    0.2212350179E-01    0.2374887491E-01    0.5614506581E+00
    0.7000000000E+03    0.3197080746E+00    0.6521474480E-01    0.2096442841E-01    0.2809192098E-01    0.5756156086E+00
    0.9000000000E+03    0.3568048615E+00    0.6602157035E-01    0.1936159360E-01    0.3135672135E-01    0.5839218048E+00
    0.1100000000E+04    0.3858831769E+00    0.6653116020E-01    0.1772213664E-01    0.3391723315E-01    0.5894029160E+00
    0.1300000000E+04    0.4093639452E+00    0.6687791781E-01    0.1618766254E-01    0.3598595265E-01    0.5933014519E+00
    0.1500000000E+04    0.4287499068E+00    0.6712627207E-01    0.1480086352E-01    0.3769480637E-01    0.5962223119E+00
    0.1700000000E+04    0.4450351799E+00    0.6731088625E-01    0.1356598301E-01    0.3913108469E-01    0.5984959142E+00
    0.1900000000E+04    0.4589093657E+00    0.6745202119E-01    0.1247269702E-01    0.4035535066E-01    0.6003183027E+00
    0.2100000000E+04    0.4708686174E+00    0.6756228469E-01    0.1150598687E-01    0.4141118627E-01    0.6018132900E+00
    0.2300000000E+04    0.4812803836E+00    0.6764991660E-01    0.1065025527E-01    0.4233087421E-01    0.6030629908E+00
    0.2500000000E+04    0.4904232698E+00    0.6772051909E-01    0.9890968668E-02    0.4313889629E-01    0.6041240533E+00
    0.2700000000E+04    0.4985126887E+00    0.6777802680E-01    0.9215213782E-02    0.4385418495E-01    0.6050368454E+00
    0.2900000000E+04    0.5057179744E+00    0.6782527950E-01    0.8611780943E-02    0.4449162556E-01    0.6058309260E+00
    0.3100000000E+04    0.5121741513E+00    0.6786437469E-01    0.8071051487E-02    0.4506308967E-01    0.6065284453E+00
    0.3300000000E+04    0.5179902346E+00    0.6789689283E-01    0.7584815980E-02    0.4557816380E-01    0.6071463350E+00
    0.3500000000E+04    0.5232552133E+00    0.6792404550E-01    0.7146080228E-02    0.4604467484E-01    0.6076977645E+00
    0.3700000000E+04    0.5280424456E+00    0.6794677581E-01    0.6748883371E-02    0.4646907605E-01    0.6081931333E+00
    0.3900000000E+04    0.5324129396E+00    0.6796582772E-01    0.6388136943E-02    0.4685673525E-01    0.6086407653E+00
    0.4100000000E+04    0.5364178399E+00    0.6798179521E-01    0.6059486686E-02    0.4721215320E-01    0.6090474035E+00
    0.4300000000E+04    0.5401003358E+00    0.6799515761E-01    0.5759195821E-02    0.4753913126E-01    0.6094185694E+00
    0.4500000000E+04    0.5434971425E+00    0.6800630547E-01    0.5484047319E-02    0.4784090157E-01    0.6097588286E+00
    0.4700000000E+04    0.5466396641E+00    0.6801555980E-01    0.5231262431E-02    0.4812022918E-01    0.6100719896E+00
    0.4900000000E+04    0.5495549148E+00    0.6802318656E-01    0.4998432890E-02    0.4837949305E-01    0.6103612552E+00
    0.1000000000E+04    0.3721664220E+00    0.6630269195E-01    0.1853412916E-01    0.3270922294E-01    0.5869158103E+00
    0.3000000000E+04    0.5090323577E+00    0.6784573791E-01    0.8334122115E-02    0.4478495893E-01    0.6061905951E+00
    0.5000000000E+04    0.5509347395E+00    0.6802646043E-01    0.4888836007E-02    0.4850225513E-01    0.6104977915E+00
    0.7000000000E+04    0.5708880651E+00    0.6804490605E-01    0.3358338012E-02    0.5028200793E-01    0.6124568648E+00
    0.9000000000E+04    0.5824576576E+00    0.6802173576E-01    0.2532039746E-02    0.5131964029E-01    0.6135980137E+00
    0.1100000000E+05    0.5899779081E+00    0.6798550553E-01    0.2026985538E-02    0.5199783978E-01    0.6143550447E+00
    0.1300000000E+05    0.5952457473E+00    0.6794544939E-01    0.1690999042E-02    0.5247555433E-01    0.6148994505E+00
    0.1500000000E+05    0.5991358423E+00    0.6790504238E-01    0.1453378488E-02    0.5283029611E-01    0.6153130835E+00
    0.1700000000E+05    0.6021234938E+00    0.6786567642E-01    0.1277385155E-02    0.5310426389E-01    0.6156401420E+00
    0.1900000000E+05    0.6044886520E+00    0.6782789553E-01    0.1142258351E-02    0.5332235877E-01    0.6159066792E+00
    0.2100000000E+05    0.6064066882E+00    0.6779187313E-01    0.1035476630E-02    0.5350020878E-01    0.6161290957E+00
    0.2300000000E+05    0.6079929462E+00    0.6775761517E-01    0.9490842910E-03    0.5364811189E-01    0.6163182580E+00
    0.2500000000E+05    0.6093263459E+00    0.6772505247E-01    0.8778067615E-03    0.5377312728E-01    0.6164816678E+00
    0.2700000000E+05    0.6104626798E+00    0.6769408458E-01    0.8180208781E-03    0.5388025483E-01    0.6166246807E+00
    0.2900000000E+05    0.6114424902E+00    0.6766460118E-01    0.7671621316E-03    0.5397313457E-01    0.6167512297E+00
    0.3100000000E+05    0.6122959368E+00    0.6763649242E-01    0.7233681362E-03    0.5405447945E-01    0.6168642725E+00
    0.3300000000E+05    0.6130459151E+00    0.6760965382E-01    0.6852559915E-03    0.5412635285E-01    0.6169660794E+00
    0.3500000000E+05    0.6137101151E+00    0.6758398836E-01    0.6517786759E-03    0.5419035205E-01    0.6170584244E+00
    0.3700000000E+05    0.6143024194E+00    0.6755940707E-01    0.6221297632E-03    0.5424773287E-01    0.6171427154E+00
    0.3900000000E+05    0.6148338734E+00    0.6753582897E-01    0.5956786071E-03    0.5429949639E-01    0.6172200851E+00
    0.4100000000E+05    0.6153133739E+00    0.6751318057E-01    0.5719252671E-03    0.5434645047E-01    0.6172914563E+00
    0.4300000000E+05    0.6157481667E+00    0.6749139532E-01    0.5504685385E-03    0.5438925429E-01    0.6173575890E+00
    0.4500000000E+05    0.6161442120E+00    0.6747041291E-01    0.5309828710E-03    0.5442845111E-01    0.6174191150E+00
    0.4700000000E+05    0.6165064574E+00    0.6745017869E-01    0.5132014351E-03    0.5446449269E-01    0.6174765650E+00
    0.4900000000E+05    0.6168390433E+00    0.6743064306E-01    0.4969035172E-03    0.5449775788E-01    0.6175303875E+00
    0.1000000000E+05    0.5865798921E+00    0.6800446537E-01    0.2251708453E-02    0.5169093271E-01    0.6140106970E+00
    0.3000000000E+05    0.6118834358E+00    0.6765038166E-01    0.7444777334E-03    0.5401510718E-01    0.6168092840E+00
    0.5000000000E+05    0.6169953270E+00    0.6742112296E-01    0.4892521252E-03    0.5451345131E-01    0.6175560603E+00
    0.7000000000E+05    0.6191805458E+00    0.6725837833E-01    0.3821328450E-03    0.5473827697E-01    0.6179479409E+00
    0.9000000000E+05    0.6203914364E+00    0.6713255228E-01    0.3216242163E-03    0.5486934301E-01    0.6182041890E+00
    0.1100000000E+06    0.6211602212E+00    0.6703004667E-01    0.2819793166E-03    0.5495666787E-01    0.6183913383E+00
    0.1300000000E+06    0.6216913126E+00    0.6694358413E-01    0.2536029752E-03    0.5501983801E-01    0.6185373855E+00
    0.1500000000E+06    0.6220799744E+00    0.6686882849E-01    0.2320703338E-03    0.5506815378E-01    0.6186564768E+00
    0.1700000000E+06    0.6223765815E+00    0.6680299066E-01    0.2150412511E-03    0.5510662347E-01    0.6187566599E+00
    0.1900000000E+06    0.6226102688E+00    0.6674417160E-01    0.2011536052E-03    0.5513819570E-01    0.6188429123E+00
    0.2100000000E+06    0.6227990562E+00    0.6669102025E-01    0.1895562846E-03    0.5516472627E-01    0.6189185097E+00
    0.2300000000E+06    0.6229546867E+00    0.6664254132E-01    0.1796876385E-03    0.5518744539E-01    0.6189857142E+00
    0.2500000000E+06    0.6230851397E+00    0.6659798045E-01    0.1711606239E-03    0.5520720318E-01    0.6190461486E+00
    0.2700000000E+06    0.6231960270E+00    0.6655675230E-01    0.1636989654E-03    0.5522460744E-01    0.6191010143E+00
    0.2900000000E+06    0.6232914095E+00    0.6651839357E-01    0.1570996190E-03    0.5524010523E-01    0.6191512239E+00
    0.3100000000E+06    0.6233742986E+00    0.6648253126E-01    0.1512096512E-03    0.5525403337E-01    0.6191974860E+00
    0.3300000000E+06    0.6234469742E+00    0.6644886067E-01    0.1459114334E-03    0.5526665096E-01    0.6192403612E+00
    0.3500000000E+06    0.6235111943E+00    0.6641712965E-01    0.1411128408E-03    0.5527816087E-01    0.6192803002E+00
    0.3700000000E+06    0.6235683361E+00    0.6638712720E-01    0.1367405764E-03    0.5528872448E-01    0.6193176708E+00
    0.3900000000E+06    0.6236194936E+00    0.6635867497E-01    0.1327355089E-03    0.5529847192E-01    0.6193527763E+00
    0.4100000000E+06    0.6236655469E+00    0.6633162084E-01    0.1290493457E-03    0.5530750948E-01    0.6193858702E+00
    0.4300000000E+06    0.6237072121E+00    0.6630583405E-01    0.1256422113E-03    0.5531592486E-01    0.6194171660E+00
    0.4500000000E+06    0.6237450776E+00    0.6628120135E-01    0.1224808545E-03    0.5532379121E-01    0.6194468454E+00
    0.4700000000E+06    0.6237796314E+00    0.6625762402E-01    0.1195373011E-03    0.5533117007E-01    0.6194750642E+00
    0.4900000000E+06    0.6238112817E+00    0.6623501548E-01    0.1167878258E-03    0.5533811361E-01    0.6195019570E+00
    0.1000000000E+06    0.6208144774E+00    0.6707893297E-01    0.2999769429E-03    0.5491688894E-01    0.6183041757E+00
    0.3000000000E+06    0.6233342589E+00    0.6650017080E-01    0.1540740084E-03    0.5524724778E-01    0.6191748104E+00
    0.5000000000E+06    0.6238261277E+00    0.6622405029E-01    0.1154794161E-03    0.5534143633E-01    0.6195149433E+00
    0.7000000000E+06    0.6240312933E+00    0.6604104644E-01    0.9583687031E-04    0.5539310174E-01    0.6197268356E+00
    0.9000000000E+06    0.6241418800E+00    0.6590400351E-01    0.8347624321E-04    0.5542797023E-01    0.6198805466E+00
    0.1100000000E+07    0.6242099657E+00    0.6579443450E-01    0.7480095803E-04    0.5545405017E-01    0.6200010511E+00
    0.1300000000E+07    0.6242554492E+00    0.6570315718E-01    0.6828987783E-04    0.5547478613E-01    0.6201000974E+00
    0.1500000000E+07    0.6242875511E+00    0.6562493867E-01    0.6317544409E-04    0.5549195197E-01    0.6201841438E+00
    0.1700000000E+07    0.6243111161E+00    0.6555651233E-01    0.5902334026E-04    0.5550657371E-01    0.6202571182E+00
    0.1900000000E+07    0.6243289263E+00    0.6549570155E-01    0.5556709802E-04    0.5551929530E-01    0.6203215866E+00
    0.2100000000E+07    0.6243426898E+00    0.6544098307E-01    0.5263304740E-04    0.5553054610E-01    0.6203793170E+00
    0.2300000000E+07    0.6243535104E+00    0.6539124914E-01    0.5010256141E-04    0.5554062608E-01    0.6204315791E+00
    0.2500000000E+07    0.6243621321E+00    0.6534566897E-01    0.4789151067E-04    0.5554975272E-01    0.6204793149E+00
    0.2700000000E+07    0.6243690733E+00    0.6530360347E-01    0.4593836846E-04    0.5555808856E-01    0.6205232428E+00
    0.2900000000E+07    0.6243747058E+00    0.6526455046E-01    0.4419696895E-04    0.5556575817E-01    0.6205639232E+00
    0.3100000000E+07    0.6243793026E+00    0.6522810820E-01    0.4263191101E-04    0.5557285902E-01    0.6206018013E+00
    0.3300000000E+07    0.6243830683E+00    0.6519395025E-01    0.4121553687E-04    0.5557946883E-01    0.6206372366E+00
    0.3500000000E+07    0.6243861592E+00    0.6516180778E-01    0.3992588563E-04    0.5558565047E-01    0.6206705241E+00
    0.3700000000E+07    0.6243886964E+00    0.6513145674E-01    0.3874527061E-04    0.5559145556E-01    0.6207019081E+00
    0.3900000000E+07    0.6243907748E+00    0.6510270846E-01    0.3765926776E-04    0.5559692696E-01    0.6207315939E+00
    0.4100000000E+07    0.6243924704E+00    0.6507540258E-01    0.3665598178E-04    0.5560210065E-01    0.6207597549E+00
    0.4300000000E+07    0.6243938439E+00    0.6504940163E-01    0.3572550423E-04    0.5560700713E-01    0.6207865397E+00
    0.4500000000E+07    0.6243949449E+00    0.6502458690E-01    0.3485950700E-04    0.5561167243E-01    0.6208120759E+00
    0.4700000000E+07    0.6243958137E+00    0.6500085516E-01    0.3405093288E-04    0.5561611900E-01    0.6208364744E+00
    0.4900000000E+07    0.6243964840E+00    0.6497811607E-01    0.3329375708E-04    0.5562036630E-01    0.6208598318E+00
    0.1000000000E+07    0.6241796158E+00    0.6584648768E-01    0.7879881254E-04    0.5544183648E-01    0.6199440396E+00
    0.3000000000E+07    0.6243771196E+00    0.6524602492E-01    0.4339427968E-04    0.5556937444E-01    0.6205831883E+00
    0.5000000000E+07    0.6243967535E+00    0.6496709356E-01    0.3293279645E-04    0.5562242062E-01    0.6208711470E+00
    0.7000000000E+07    0.6243965176E+00    0.6478364937E-01    0.2746724911E-04    0.5565623050E-01    0.6210588665E+00
    0.9000000000E+07    0.6243914806E+00    0.6464681541E-01    0.2398729169E-04    0.5568106930E-01    0.6211982796E+00
    0.1100000000E+08    0.6243851027E+00    0.6453767975E-01    0.2152869206E-04    0.5570070344E-01    0.6213091804E+00
    0.1300000000E+08    0.6243784630E+00    0.6444691617E-01    0.1967564735E-04    0.5571693673E-01    0.6214012500E+00
    0.1500000000E+08    0.6243719465E+00    0.6436923434E-01    0.1821585634E-04    0.5573077326E-01    0.6214799505E+00
    0.1700000000E+08    0.6243656929E+00    0.6430134263E-01    0.1702823304E-04    0.5574282950E-01    0.6215486676E+00
    0.1900000000E+08    0.6243597461E+00    0.6424105324E-01    0.1603806244E-04    0.5575351114E-01    0.6216096453E+00
    0.2100000000E+08    0.6243541097E+00    0.6418683807E-01    0.1519644015E-04    0.5576309940E-01    0.6216644473E+00
    0.2300000000E+08    0.6243487707E+00    0.6413758762E-01    0.1446985006E-04    0.5577179721E-01    0.6217142072E+00
    0.2500000000E+08    0.6243437099E+00    0.6409247086E-01    0.1383445941E-04    0.5577975580E-01    0.6217597726E+00
    0.2700000000E+08    0.6243389060E+00    0.6405084923E-01    0.1327280056E-04    0.5578709091E-01    0.6218017942E+00
