  Pressure (Pa) 22mC5-400 (mol/kg) 3mC6-400 (mol/kg) 33mC5-400 (mol/kg) 23mC5-400 (mol/kg) C7-400 (mol/kg)
    0.1000000000E+01    0.1062506466E-02    0.2633389250E-02    0.6470686455E-04    0.8395389247E-03    0.5127888913E-02
    0.3000000000E+01    0.3169382399E-02    0.7723260759E-02    0.1898741280E-03    0.2504298641E-02    0.1504082475E-01
    0.5000000000E+01    0.5252422000E-02    0.1259016134E-01    0.3096757876E-03    0.4150240846E-02    0.2452160806E-01
    0.7000000000E+01    0.7312032557E-02    0.1724841653E-01    0.4244409422E-03    0.5777686981E-02    0.3359795920E-01
    0.9000000000E+01    0.9348612105E-02    0.2171115063E-01    0.5344712627E-03    0.7386951181E-02    0.4229527596E-01
    0.1100000000E+02    0.1136254968E-01    0.2599041002E-01    0.6400438310E-03    0.8978340486E-02    0.5063687189E-01
    0.1300000000E+02    0.1335422559E-01    0.3009727158E-01    0.7414136319E-03    0.1055215504E-01    0.5864418577E-01
    0.1500000000E+02    0.1532401161E-01    0.3404193829E-01    0.8388157488E-03    0.1210868826E-01    0.6633696648E-01
    0.1700000000E+02    0.1727227130E-01    0.3783382375E-01    0.9324673006E-03    0.1364822708E-01    0.7373343626E-01
    0.1900000000E+02    0.1919936015E-01    0.4148162702E-01    0.1022569158E-02    0.1517105207E-01    0.8085043545E-01
    0.2100000000E+02    0.2110562584E-01    0.4499339919E-01    0.1109307464E-02    0.1667743763E-01    0.8770355115E-01
    0.2300000000E+02    0.2299140847E-01    0.4837660260E-01    0.1192854987E-02    0.1816765217E-01    0.9430723163E-01
    0.2500000000E+02    0.2485704072E-01    0.5163816365E-01    0.1273372330E-02    0.1964195827E-01    0.1006748885E+00
    0.2700000000E+02    0.2670284809E-01    0.5478452009E-01    0.1351009003E-02    0.2110061282E-01    0.1068189882E+00
    0.2900000000E+02    0.2852914909E-01    0.5782166334E-01    0.1425904390E-02    0.2254386720E-01    0.1127511336E+00
    0.3100000000E+02    0.3033625538E-01    0.6075517655E-01    0.1498188614E-02    0.2397196740E-01    0.1184821377E+00
    0.3300000000E+02    0.3212447203E-01    0.6359026873E-01    0.1567983314E-02    0.2538515419E-01    0.1240220897E+00
    0.3500000000E+02    0.3389409761E-01    0.6633180560E-01    0.1635402341E-02    0.2678366322E-01    0.1293804147E+00
    0.3700000000E+02    0.3564542444E-01    0.6898433743E-01    0.1700552396E-02    0.2816772520E-01    0.1345659271E+00
    0.3900000000E+02    0.3737873869E-01    0.7155212414E-01    0.1763533592E-02    0.2953756600E-01    0.1395868798E+00
    0.4100000000E+02    0.3909432059E-01    0.7403915814E-01    0.1824439975E-02    0.3089340679E-01    0.1444510078E+00
    0.4300000000E+02    0.4079244454E-01    0.7644918499E-01    0.1883359992E-02    0.3223546414E-01    0.1491655684E+00
    0.4500000000E+02    0.4247337928E-01    0.7878572217E-01    0.1940376910E-02    0.3356395017E-01    0.1537373775E+00
    0.4700000000E+02    0.4413738805E-01    0.8105207619E-01    0.1995569211E-02    0.3487907265E-01    0.1581728427E+00
    0.4900000000E+02    0.4578472872E-01    0.8325135819E-01    0.2049010933E-02    0.3618103509E-01    0.1624779935E+00
    0.1000000000E+02    0.1035838717E-01    0.2387300081E-01    0.5877983385E-03    0.8184861277E-02    0.4650915744E-01
    0.3000000000E+02    0.2943508235E-01    0.5930103975E-01    0.1462365105E-02    0.2325979641E-01    0.1156411315E+00
    0.5000000000E+02    0.4660222765E-01    0.8432676950E-01    0.2075097332E-02    0.3682714376E-01    0.1645834886E+00
    0.7000000000E+02    0.6213609449E-01    0.1029418589E+00    0.2520008576E-02    0.4910495454E-01    0.2010695185E+00
    0.9000000000E+02    0.7626189814E-01    0.1173275112E+00    0.2849929375E-02    0.6027098906E-01    0.2293281765E+00
    0.1100000000E+03    0.8916507293E-01    0.1287763265E+00    0.3097276799E-02    0.7047161375E-01    0.2518674656E+00
    0.1300000000E+03    0.1009996894E+00    0.1381029646E+00    0.3283288605E-02    0.7982844309E-01    0.2702692424E+00
    0.1500000000E+03    0.1118948232E+00    0.1458463406E+00    0.3422589129E-02    0.8844336545E-01    0.2855807284E+00
    0.1700000000E+03    0.1219594340E+00    0.1523771836E+00    0.3525643874E-02    0.9640239306E-01    0.2985228687E+00
    0.1900000000E+03    0.1312861452E+00    0.1579588939E+00    0.3600171525E-02    0.1037786447E+00    0.3096082761E+00
    0.2100000000E+03    0.1399542021E+00    0.1627837592E+00    0.3652002840E-02    0.1106346802E+00    0.3192114512E+00
    0.2300000000E+03    0.1480318102E+00    0.1669954339E+00    0.3685627983E-02    0.1170243462E+00    0.3276123875E+00
    0.2500000000E+03    0.1555779992E+00    0.1707033985E+00    0.3704559253E-02    0.1229942464E+00    0.3350246317E+00
    0.2700000000E+03    0.1626441216E+00    0.1739925499E+00    0.3711579558E-02    0.1285849249E+00    0.3416139044E+00
    0.2900000000E+03    0.1692750663E+00    0.1769297340E+00    0.3708917493E-02    0.1338318238E+00    0.3475107884E+00
    0.3100000000E+03    0.1755102493E+00    0.1795683003E+00    0.3698373692E-02    0.1387660648E+00    0.3528195801E+00
    0.3300000000E+03    0.1813844266E+00    0.1819513438E+00    0.3681413928E-02    0.1434150915E+00    0.3576245920E+00
    0.3500000000E+03    0.1869283666E+00    0.1841140552E+00    0.3659238930E-02    0.1478031995E+00    0.3619947243E+00
    0.3700000000E+03    0.1921694090E+00    0.1860854534E+00    0.3632837559E-02    0.1519519776E+00    0.3659868360E+00
    0.3900000000E+03    0.1971319321E+00    0.1878896813E+00    0.3603027856E-02    0.1558806769E+00    0.3696482675E+00
    0.4100000000E+03    0.2018377453E+00    0.1895469883E+00    0.3570489095E-02    0.1596065203E+00    0.3730187544E+00
    0.4300000000E+03    0.2063064204E+00    0.1910744844E+00    0.3535787079E-02    0.1631449645E+00    0.3761318974E+00
    0.4500000000E+03    0.2105555737E+00    0.1924867258E+00    0.3499394286E-02    0.1665099220E+00    0.3790163028E+00
    0.4700000000E+03    0.2146011051E+00    0.1937961742E+00    0.3461706032E-02    0.1697139502E+00    0.3816964792E+00
    0.4900000000E+03    0.2184574038E+00    0.1950135599E+00    0.3423053554E-02    0.1727684138E+00    0.3841935457E+00
    0.1000000000E+03    0.8285603271E-01    0.1233599107E+00    0.2982403078E-02    0.6548386215E-01    0.2411979876E+00
    0.3000000000E+03    0.1724398551E+00    0.1782834417E+00    0.3704532264E-02    0.1363362318E+00    0.3502330184E+00
    0.5000000000E+03    0.2203187181E+00    0.1955906818E+00    0.3403454381E-02    0.1742428188E+00    0.3853792277E+00
    0.7000000000E+03    0.2502157602E+00    0.2040095980E+00    0.3008100778E-02    0.1979368183E+00    0.4028519808E+00
    0.9000000000E+03    0.2706811807E+00    0.2089599583E+00    0.2657023110E-02    0.2141723525E+00    0.4133492043E+00
    0.1100000000E+04    0.2855731638E+00    0.2122033352E+00    0.2366184404E-02    0.2259982020E+00    0.4203755814E+00
    0.1300000000E+04    0.2968945676E+00    0.2144830365E+00    0.2128163173E-02    0.2349975916E+00    0.4254211713E+00
    0.1500000000E+04    0.3057903813E+00    0.2161665483E+00    0.1932536117E-02    0.2420759243E+00    0.4292281096E+00
    0.1700000000E+04    0.3129631818E+00    0.2174562003E+00    0.1770217562E-02    0.2477889530E+00    0.4322079822E+00
    0.1900000000E+04    0.3188681626E+00    0.2184724650E+00    0.1634058650E-02    0.2524968669E+00    0.4346076287E+00
    0.2100000000E+04    0.3238132520E+00    0.2192914879E+00    0.1518594672E-02    0.2564434080E+00    0.4365841853E+00
    0.2300000000E+04    0.3280142165E+00    0.2199637180E+00    0.1419668021E-02    0.2597994246E+00    0.4382425034E+00
    0.2500000000E+04    0.3316267343E+00    0.2205238793E+00    0.1334100452E-02    0.2626882271E+00    0.4396552655E+00
    0.2700000000E+04    0.3347659433E+00    0.2209966377E+00    0.1259441216E-02    0.2652010450E+00    0.4408744678E+00
    0.2900000000E+04    0.3375188242E+00    0.2213999855E+00    0.1193781208E-02    0.2674068204E+00    0.4419383073E+00
    0.3100000000E+04    0.3399523062E+00    0.2217473474E+00    0.1135617478E-02    0.2693586202E+00    0.4428754863E+00
    0.3300000000E+04    0.3421187259E+00    0.2220489375E+00    0.1083754455E-02    0.2710979548E+00    0.4437079977E+00
    0.3500000000E+04    0.3440595957E+00    0.2223126608E+00    0.1037231545E-02    0.2726577605E+00    0.4444529829E+00
    0.3700000000E+04    0.3458082620E+00    0.2225447275E+00    0.9952696178E-03    0.2740645032E+00    0.4451240037E+00
    0.3900000000E+04    0.3473918172E+00    0.2227500817E+00    0.9572310857E-03    0.2753396928E+00    0.4457319338E+00
    0.4100000000E+04    0.3488324988E+00    0.2229327065E+00    0.9225898280E-03    0.2765009902E+00    0.4462855955E+00
    0.4300000000E+04    0.3501487292E+00    0.2230958451E+00    0.8909083127E-03    0.2775630314E+00    0.4467922237E+00
    0.4500000000E+04    0.3513558996E+00    0.2232421640E+00    0.8618200241E-03    0.2785380481E+00    0.4472578087E+00
    0.4700000000E+04    0.3524669679E+00    0.2233738746E+00    0.8350158433E-03    0.2794363419E+00    0.4476873542E+00
    0.4900000000E+04    0.3534929210E+00    0.2234928256E+00    0.8102333983E-03    0.2802666502E+00    0.4480850731E+00
    0.1000000000E+04    0.2786711916E+00    0.2107356934E+00    0.2504363120E-02    0.2205158245E+00    0.4171775594E+00
    0.3000000000E+04    0.3387719277E+00    0.2215799633E+00    0.1163843280E-02    0.2684116421E+00    0.4424212229E+00
    0.5000000000E+04    0.3539769641E+00    0.2235480126E+00    0.7985290140E-03    0.2806586841E+00    0.4482731359E+00
    0.7000000000E+04    0.3608760318E+00    0.2242558879E+00    0.6303081376E-03    0.2862728059E+00    0.4510007148E+00
    0.9000000000E+04    0.3648036343E+00    0.2245684846E+00    0.5322161752E-03    0.2895014397E+00    0.4526241072E+00
    0.1100000000E+05    0.3673342365E+00    0.2247146798E+00    0.4670910687E-03    0.2916027638E+00    0.4537223595E+00
    0.1300000000E+05    0.3690978338E+00    0.2247788682E+00    0.4201967023E-03    0.2930819851E+00    0.4545265079E+00
    0.1500000000E+05    0.3703955162E+00    0.2247985538E+00    0.3845134872E-03    0.2941813884E+00    0.4551477668E+00
    0.1700000000E+05    0.3713892253E+00    0.2247925434E+00    0.3562592913E-03    0.2950317334E+00    0.4556466744E+00
    0.1900000000E+05    0.3721737663E+00    0.2247710993E+00    0.3332076683E-03    0.2957098310E+00    0.4560591906E+00
    0.2100000000E+05    0.3728083077E+00    0.2247401790E+00    0.3139575602E-03    0.2962637819E+00    0.4564081203E+00
    0.2300000000E+05    0.3733316737E+00    0.2247034063E+00    0.2975802175E-03    0.2967252553E+00    0.4567086818E+00
    0.2500000000E+05    0.3737703886E+00    0.2246630657E+00    0.2834337628E-03    0.2971159597E+00    0.4569714533E+00
    0.2700000000E+05    0.3741431846E+00    0.2246206372E+00    0.2710591707E-03    0.2974512783E+00    0.4572040383E+00
    0.2900000000E+05    0.3744636644E+00    0.2245770995E+00    0.2601187009E-03    0.2977424194E+00    0.4574120567E+00
    0.3100000000E+05    0.3747419423E+00    0.2245331096E+00    0.2503577962E-03    0.2979977448E+00    0.4575997616E+00
    0.3300000000E+05    0.3749856931E+00    0.2244891122E+00    0.2415805966E-03    0.2982236212E+00    0.4577704379E+00
    0.3500000000E+05    0.3752008452E+00    0.2244454099E+00    0.2336336897E-03    0.2984249826E+00    0.4579266678E+00
    0.3700000000E+05    0.3753920492E+00    0.2244022074E+00    0.2263950207E-03    0.2986057129E+00    0.4580705126E+00
    0.3900000000E+05    0.3755630043E+00    0.2243596420E+00    0.2197661379E-03    0.2987689115E+00    0.4582036405E+00
    0.4100000000E+05    0.3757166893E+00    0.2243178035E+00    0.2136666527E-03    0.2989170826E+00    0.4583274178E+00
    0.4300000000E+05    0.3758555291E+00    0.2242767482E+00    0.2080302053E-03    0.2990522718E+00    0.4584429758E+00
    0.4500000000E+05    0.3759815179E+00    0.2242365085E+00    0.2028014764E-03    0.2991761669E+00    0.4585512605E+00
    0.4700000000E+05    0.3760963102E+00    0.2241970998E+00    0.1979339404E-03    0.2992901727E+00    0.4586530699E+00
    0.4900000000E+05    0.3762012902E+00    0.2241585251E+00    0.1933881508E-03    0.2993954685E+00    0.4587490826E+00
    0.1000000000E+05    0.3661927482E+00    0.2246554425E+00    0.4967230594E-03    0.2906523053E+00    0.4532202641E+00
    0.3000000000E+05    0.3746075512E+00    0.2245551293E+00    0.2551041985E-03    0.2978741221E+00    0.4575082239E+00
    0.5000000000E+05    0.3762504724E+00    0.2241395492E+00    0.1912251878E-03    0.2994451679E+00    0.4587951002E+00
    0.7000000000E+05    0.3769247945E+00    0.2238002190E+00    0.1587722200E-03    0.3001589091E+00    0.4595166997E+00
    0.9000000000E+05    0.3772817194E+00    0.2235231457E+00    0.1383636743E-03    0.3005764946E+00    0.4600101143E+00
    0.1100000000E+06    0.3774973134E+00    0.2232907101E+00    0.1240427479E-03    0.3008552927E+00    0.4603824241E+00
    0.1300000000E+06    0.3776384833E+00    0.2230910201E+00    0.1132943034E-03    0.3010572303E+00    0.4606803295E+00
    0.1500000000E+06    0.3777360336E+00    0.2229161776E+00    0.1048505030E-03    0.3012118101E+00    0.4609281322E+00
    0.1700000000E+06    0.3778060401E+00    0.2227607683E+00    0.9799440094E-04    0.3013349572E+00    0.4611400056E+00
    0.1900000000E+06    0.3778576714E+00    0.2226209473E+00    0.9228629771E-04    0.3014360635E+00    0.4613249055E+00
    0.2100000000E+06    0.3778965163E+00    0.2224938960E+00    0.8743968888E-04    0.3015210481E+00    0.4614888372E+00
    0.2300000000E+06    0.3779261620E+00    0.2223774911E+00    0.8325890213E-04    0.3015938384E+00    0.4616360163E+00
    0.2500000000E+06    0.3779490084E+00    0.2222700947E+00    0.7960517815E-04    0.3016571507E+00    0.4617695122E+00
    0.2700000000E+06    0.3779667163E+00    0.2221704185E+00    0.7637704004E-04    0.3017129281E+00    0.4618916272E+00
    0.2900000000E+06    0.3779804680E+00    0.2220774306E+00    0.7349834522E-04    0.3017626005E+00    0.4620041309E+00
    0.3100000000E+06    0.3779911255E+00    0.2219902927E+00    0.7091070381E-04    0.3018072458E+00    0.4621084126E+00
    0.3300000000E+06    0.3779993305E+00    0.2219083140E+00    0.6856849543E-04    0.3018476933E+00    0.4622055822E+00
    0.3500000000E+06    0.3780055688E+00    0.2218309193E+00    0.6643549426E-04    0.3018845924E+00    0.4622965403E+00
    0.3700000000E+06    0.3780102143E+00    0.2217576241E+00    0.6448252303E-04    0.3019184599E+00    0.4623820272E+00
    0.3900000000E+06    0.3780135587E+00    0.2216880169E+00    0.6268578491E-04    0.3019497127E+00    0.4624626593E+00
    0.4100000000E+06    0.3780158323E+00    0.2216217448E+00    0.6102565346E-04    0.3019786911E+00    0.4625389545E+00
    0.4300000000E+06    0.3780172186E+00    0.2215585034E+00    0.5948577903E-04    0.3020056761E+00    0.4626113524E+00
    0.4500000000E+06    0.3780178657E+00    0.2214980282E+00    0.5805241844E-04    0.3020309020E+00    0.4626802295E+00
    0.4700000000E+06    0.3780178940E+00    0.2214400875E+00    0.5671392478E-04    0.3020545660E+00    0.4627459103E+00
    0.4900000000E+06    0.3780174020E+00    0.2213844777E+00    0.5546035410E-04    0.3020768353E+00    0.4628086765E+00
    0.1000000000E+06    0.3774017281E+00    0.2234022076E+00    0.1306421942E-03    0.3007282385E+00    0.4602077272E+00
    0.3000000000E+06    0.3779861391E+00    0.2220331766E+00    0.7217124772E-04    0.3017854949E+00    0.4620572245E+00
    0.5000000000E+06    0.3780169869E+00    0.2213574899E+00    0.5486269613E-04    0.3020874924E+00    0.4628390448E+00
    0.7000000000E+06    0.3779951608E+00    0.2209056133E+00    0.4580829444E-04    0.3022532514E+00    0.4633396595E+00
    0.9000000000E+06    0.3779637783E+00    0.2205656980E+00    0.4003784913E-04    0.3023651959E+00    0.4637082455E+00
    0.1100000000E+07    0.3779315994E+00    0.2202931664E+00    0.3595799528E-04    0.3024489823E+00    0.4639999595E+00
    0.1300000000E+07    0.3779008826E+00    0.2200656880E+00    0.3288114190E-04    0.3025156442E+00    0.4642413317E+00
    0.1500000000E+07    0.3778721723E+00    0.2198704685E+00    0.3045600898E-04    0.3025708631E+00    0.4644471710E+00
    0.1700000000E+07    0.3778454890E+00    0.2196994909E+00    0.2848214215E-04    0.3026179253E+00    0.4646265879E+00
    0.1900000000E+07    0.3778206905E+00    0.2195473987E+00    0.2683579791E-04    0.3026588936E+00    0.4647855871E+00
    0.2100000000E+07    0.3777975936E+00    0.2194104351E+00    0.2543594865E-04    0.3026951432E+00    0.4649283350E+00
    0.2300000000E+07    0.3777760170E+00    0.2192858633E+00    0.2422704332E-04    0.3027276353E+00    0.4650578414E+00
    0.2500000000E+07    0.3777557951E+00    0.2191716279E+00    0.2316956784E-04    0.3027570670E+00    0.4651763507E+00
    0.2700000000E+07    0.3777367821E+00    0.2190661457E+00    0.2223455287E-04    0.3027839591E+00    0.4652855816E+00
    0.2900000000E+07    0.3777188508E+00    0.2189681715E+00    0.2140021648E-04    0.3028087110E+00    0.4653868793E+00
    0.3100000000E+07    0.3777018911E+00    0.2188767081E+00    0.2064982613E-04    0.3028316352E+00    0.4654813162E+00
    0.3300000000E+07    0.3776858075E+00    0.2187909448E+00    0.1997028919E-04    0.3028529811E+00    0.4655697612E+00
    0.3500000000E+07    0.3776705170E+00    0.2187102132E+00    0.1935119590E-04    0.3028729503E+00    0.4656529280E+00
    0.3700000000E+07    0.3776559474E+00    0.2186339562E+00    0.1878415265E-04    0.3028917084E+00    0.4657314101E+00
    0.3900000000E+07    0.3776420355E+00    0.2185617041E+00    0.1826230697E-04    0.3029093930E+00    0.4658057061E+00
    0.4100000000E+07    0.3776287257E+00    0.2184930577E+00    0.1778000244E-04    0.3029261197E+00    0.4658762394E+00
    0.4300000000E+07    0.3776159690E+00    0.2184276746E+00    0.1733252343E-04    0.3029419862E+00    0.4659433718E+00
    0.4500000000E+07    0.3776037222E+00    0.2183652588E+00    0.1691590336E-04    0.3029570763E+00    0.4660074158E+00
    0.4700000000E+07    0.3775919465E+00    0.2183055529E+00    0.1652677864E-04    0.3029714621E+00    0.4660686426E+00
    0.4900000000E+07    0.3775806075E+00    0.2182483317E+00    0.1616227586E-04    0.3029852060E+00    0.4661272890E+00
    0.1000000000E+07    0.3779475817E+00    0.2204227156E+00    0.3784102379E-04    0.3024097366E+00    0.4638616665E+00
    0.3000000000E+07    0.3777102558E+00    0.2189216804E+00    0.2101541871E-04    0.3028203847E+00    0.4654348969E+00
    0.5000000000E+07    0.3775750920E+00    0.2182205900E+00    0.1598847175E-04    0.3029918545E+00    0.4661557106E+00
    0.7000000000E+07    0.3774816743E+00    0.2177584798E+00    0.1335378024E-04    0.3031013689E+00    0.4666281994E+00
    0.9000000000E+07    0.3774103154E+00    0.2174132973E+00    0.1167332224E-04    0.3031819325E+00    0.4669801532E+00
    0.1100000000E+08    0.3773525826E+00    0.2171377016E+00    0.1048468190E-04    0.3032456762E+00    0.4672606753E+00
    0.1300000000E+08    0.3773041022E+00    0.2169083115E+00    0.9588022145E-05    0.3032984176E+00    0.4674938931E+00
    0.1500000000E+08    0.3772623158E+00    0.2167118496E+00    0.8881162793E-05    0.3033433983E+00    0.4676934625E+00
    0.1700000000E+08    0.3772255975E+00    0.2165400475E+00    0.8305763549E-05    0.3033826105E+00    0.4678678676E+00
    0.1900000000E+08    0.3771928499E+00    0.2163874058E+00    0.7825796137E-05    0.3034173660E+00    0.4680227413E+00
    0.2100000000E+08    0.3771632973E+00    0.2162500810E+00    0.7417662434E-05    0.3034485747E+00    0.4681620149E+00
    0.2300000000E+08    0.3771363712E+00    0.2161252810E+00    0.7065180478E-05    0.3034768937E+00    0.4682885411E+00
    0.2500000000E+08    0.3771116425E+00    0.2160109135E+00    0.6756837912E-05    0.3035028128E+00    0.4684044556E+00
    0.2700000000E+08    0.3770887792E+00    0.2159053703E+00    0.6484193411E-05    0.3035267070E+00    0.4685113988E+00
