  Pressure (Pa) 22mC5-400 (mol/kg) 3mC6-400 (mol/kg) 33mC5-400 (mol/kg) 23mC5-400 (mol/kg) C7-400 (mol/kg)
    0.1000000000E+01    0.1593285451E-02    0.3149508352E-02    0.1290397276E-03    0.4662718384E-03    0.6814450278E-02
    0.3000000000E+01    0.4749859845E-02    0.9177678065E-02    0.3765581848E-03    0.1390044872E-02    0.1986012475E-01
    0.5000000000E+01    0.7867076645E-02    0.1486987083E-01    0.6109418857E-03    0.2302310134E-02    0.3218224080E-01
    0.7000000000E+01    0.1094568408E-01    0.2025340629E-01    0.8332184975E-03    0.3203286339E-02    0.4383953913E-01
    0.9000000000E+01    0.1398641144E-01    0.2535272041E-01    0.1044306876E-02    0.4093186663E-02    0.5488456504E-01
    0.1100000000E+02    0.1698996963E-01    0.3018973612E-01    0.1245031229E-02    0.4972218916E-02    0.6536446447E-01
    0.1300000000E+02    0.1995705181E-01    0.3478417826E-01    0.1436133124E-02    0.5840585711E-02    0.7532166027E-01
    0.1500000000E+02    0.2288833386E-01    0.3915384234E-01    0.1618281715E-02    0.6698484623E-02    0.8479442936E-01
    0.1700000000E+02    0.2578447501E-01    0.4331482472E-01    0.1792082494E-02    0.7546108347E-02    0.9381739725E-01
    0.1900000000E+02    0.2864611827E-01    0.4728172073E-01    0.1958084791E-02    0.8383644847E-02    0.1024219634E+00
    0.2100000000E+02    0.3147389095E-01    0.5106779561E-01    0.2116788250E-02    0.9211277498E-02    0.1106366686E+00
    0.2300000000E+02    0.3426840516E-01    0.5468513267E-01    0.2268648420E-02    0.1002918523E-01    0.1184875130E+00
    0.2500000000E+02    0.3703025823E-01    0.5814476201E-01    0.2414081612E-02    0.1083754265E-01    0.1259982327E+00
    0.2700000000E+02    0.3976003318E-01    0.6145677287E-01    0.2553469120E-02    0.1163652019E-01    0.1331905415E+00
    0.2900000000E+02    0.4245829914E-01    0.6463041182E-01    0.2687160916E-02    0.1242628421E-01    0.1400843410E+00
    0.3100000000E+02    0.4512561174E-01    0.6767416894E-01    0.2815478873E-02    0.1320699714E-01    0.1466979067E+00
    0.3300000000E+02    0.4776251354E-01    0.7059585363E-01    0.2938719610E-02    0.1397881758E-01    0.1530480504E+00
    0.3500000000E+02    0.5036953438E-01    0.7340266150E-01    0.3057156987E-02    0.1474190042E-01    0.1591502640E+00
    0.3700000000E+02    0.5294719178E-01    0.7610123347E-01    0.3171044309E-02    0.1549639693E-01    0.1650188464E+00
    0.3900000000E+02    0.5549599128E-01    0.7869770827E-01    0.3280616283E-02    0.1624245490E-01    0.1706670167E+00
    0.4100000000E+02    0.5801642678E-01    0.8119776896E-01    0.3386090748E-02    0.1698021872E-01    0.1761070136E+00
    0.4300000000E+02    0.6050898088E-01    0.8360668450E-01    0.3487670214E-02    0.1770982945E-01    0.1813501855E+00
    0.4500000000E+02    0.6297412521E-01    0.8592934675E-01    0.3585543239E-02    0.1843142497E-01    0.1864070692E+00
    0.4700000000E+02    0.6541232071E-01    0.8817030363E-01    0.3679885655E-02    0.1914514003E-01    0.1912874619E+00
    0.4900000000E+02    0.6782401798E-01    0.9033378884E-01    0.3770861664E-02    0.1985110635E-01    0.1960004845E+00
    0.1000000000E+02    0.1549279295E-01    0.2780273460E-01    0.1145916399E-02    0.4534048515E-02    0.6019240065E-01
    0.3000000000E+02    0.4379579040E-01    0.6616802239E-01    0.2751972524E-02    0.1281776206E-01    0.1434250698E+00
    0.5000000000E+02    0.6902006781E-01    0.9138772329E-01    0.3815135643E-02    0.2020122408E-01    0.1982969118E+00
    0.7000000000E+02    0.9165223245E-01    0.1092278400E+00    0.4556382131E-02    0.2682668289E-01    0.2372243894E+00
    0.9000000000E+02    0.1120807477E+00    0.1225122484E+00    0.5087590942E-02    0.3280770079E-01    0.2662943711E+00
    0.1100000000E+03    0.1306195000E+00    0.1327869706E+00    0.5472871932E-02    0.3823604171E-01    0.2888425645E+00
    0.1300000000E+03    0.1475248985E+00    0.1409695529E+00    0.5752336169E-02    0.4318666885E-01    0.3068506061E+00
    0.1500000000E+03    0.1630084826E+00    0.1476389738E+00    0.5952737574E-02    0.4772142962E-01    0.3215701440E+00
    0.1700000000E+03    0.1772463548E+00    0.1531786255E+00    0.6092788144E-02    0.5189181250E-01    0.3338308134E+00
    0.1900000000E+03    0.1903863302E+00    0.1578524765E+00    0.6186052230E-02    0.5574103699E-01    0.3442043838E+00
    0.2100000000E+03    0.2025534239E+00    0.1618482149E+00    0.6242636237E-02    0.5930565726E-01    0.3530977940E+00
    0.2300000000E+03    0.2138541070E+00    0.1653029469E+00    0.6270232833E-02    0.6261680636E-01    0.3608086045E+00
    0.2500000000E+03    0.2243796430E+00    0.1683191621E+00    0.6274797192E-02    0.6570117152E-01    0.3675594643E+00
    0.2700000000E+03    0.2342087284E+00    0.1709750097E+00    0.6261002240E-02    0.6858176579E-01    0.3735203119E+00
    0.2900000000E+03    0.2434095994E+00    0.1733311199E+00    0.6232555150E-02    0.7127854413E-01    0.3788231180E+00
    0.3100000000E+03    0.2520417284E+00    0.1754352519E+00    0.6192423384E-02    0.7380889916E-01    0.3835719396E+00
    0.3300000000E+03    0.2601571988E+00    0.1773255373E+00    0.6142999819E-02    0.7618806317E-01    0.3878499379E+00
    0.3500000000E+03    0.2678018286E+00    0.1790327895E+00    0.6086225702E-02    0.7842943651E-01    0.3917243792E+00
    0.3700000000E+03    0.2750160938E+00    0.1805821789E+00    0.6023683706E-02    0.8054485758E-01    0.3952502641E+00
    0.3900000000E+03    0.2818358925E+00    0.1819944674E+00    0.5956669347E-02    0.8254482620E-01    0.3984730048E+00
    0.4100000000E+03    0.2882931807E+00    0.1832869337E+00    0.5886246459E-02    0.8443868950E-01    0.4014304304E+00
    0.4300000000E+03    0.2944165046E+00    0.1844740734E+00    0.5813290737E-02    0.8623479753E-01    0.4041543082E+00
    0.4500000000E+03    0.3002314483E+00    0.1855681381E+00    0.5738524236E-02    0.8794063415E-01    0.4066715132E+00
    0.4700000000E+03    0.3057610122E+00    0.1865795532E+00    0.5662542915E-02    0.8956292772E-01    0.4090049364E+00
    0.4900000000E+03    0.3110259349E+00    0.1875172453E+00    0.5585838800E-02    0.9110774509E-01    0.4111741976E+00
    0.1000000000E+03    0.1215691375E+00    0.1279581596E+00    0.5295564679E-02    0.3558592540E-01    0.2782376075E+00
    0.3000000000E+03    0.2477933425E+00    0.1744121050E+00    0.6213788441E-02    0.7256352608E-01    0.3812611561E+00
    0.5000000000E+03    0.3135650864E+00    0.1879608904E+00    0.5547345519E-02    0.9185283521E-01    0.4122026457E+00
    0.7000000000E+03    0.3541747442E+00    0.1943666350E+00    0.4806161928E-02    0.1037755925E+00    0.4272458104E+00
    0.9000000000E+03    0.3817939629E+00    0.1980722490E+00    0.4180890097E-02    0.1118931099E+00    0.4361908438E+00
    0.1100000000E+04    0.4018032894E+00    0.2004723652E+00    0.3677692467E-02    0.1177802724E+00    0.4421455861E+00
    0.1300000000E+04    0.4169646683E+00    0.2021440388E+00    0.3274002186E-02    0.1222457993E+00    0.4464085368E+00
    0.1500000000E+04    0.4288460436E+00    0.2033689020E+00    0.2947187587E-02    0.1257489651E+00    0.4496194575E+00
    0.1700000000E+04    0.4384048720E+00    0.2043005742E+00    0.2679287724E-02    0.1285703253E+00    0.4521305767E+00
    0.1900000000E+04    0.4462592193E+00    0.2050298699E+00    0.2456826316E-02    0.1308910520E+00    0.4541520440E+00
    0.2100000000E+04    0.4528259674E+00    0.2056138575E+00    0.2269807068E-02    0.1328333887E+00    0.4558171302E+00
    0.2300000000E+04    0.4583965078E+00    0.2060901647E+00    0.2110785636E-02    0.1344828116E+00    0.4572145078E+00
    0.2500000000E+04    0.4631806340E+00    0.2064845828E+00    0.1974163471E-02    0.1359008831E+00    0.4584055091E+00
    0.2700000000E+04    0.4673332138E+00    0.2068153658E+00    0.1855679665E-02    0.1371330644E+00    0.4594339359E+00
    0.2900000000E+04    0.4709710420E+00    0.2070957853E+00    0.1752050842E-02    0.1382136524E+00    0.4603319232E+00
    0.3100000000E+04    0.4741838502E+00    0.2073357142E+00    0.1660715899E-02    0.1391690063E+00    0.4611235932E+00
    0.3300000000E+04    0.4770417058E+00    0.2075426436E+00    0.1579653775E-02    0.1400197162E+00    0.4618274142E+00
    0.3500000000E+04    0.4796001121E+00    0.2077223559E+00    0.1507252048E-02    0.1407820982E+00    0.4624577717E+00
    0.3700000000E+04    0.4819036000E+00    0.2078793829E+00    0.1442211114E-02    0.1414692474E+00    0.4630260421E+00
    0.3900000000E+04    0.4839883076E+00    0.2080173240E+00    0.1383473498E-02    0.1420917947E+00    0.4635413433E+00
    0.4100000000E+04    0.4858838660E+00    0.2081390726E+00    0.1330171112E-02    0.1426584600E+00    0.4640110713E+00
    0.4300000000E+04    0.4876147985E+00    0.2082469796E+00    0.1281585461E-02    0.1431764624E+00    0.4644412904E+00
    0.4500000000E+04    0.4892015738E+00    0.2083429736E+00    0.1237117312E-02    0.1436518297E+00    0.4648370212E+00
    0.4700000000E+04    0.4906614099E+00    0.2084286511E+00    0.1196263329E-02    0.1440896343E+00    0.4652024575E+00
    0.4900000000E+04    0.4920088936E+00    0.2085053437E+00    0.1158597925E-02    0.1444941747E+00    0.4655411301E+00
    0.1000000000E+04    0.3925388402E+00    0.1993892542E+00    0.3915310517E-02    0.1150537030E+00    0.4394382166E+00
    0.3000000000E+04    0.4726258022E+00    0.2072202962E+00    0.1704983865E-02    0.1387055816E+00    0.4607397825E+00
    0.5000000000E+04    0.4926444634E+00    0.2085406777E+00    0.1140845632E-02    0.1446851383E+00    0.4657013840E+00
    0.7000000000E+04    0.5016922024E+00    0.2089719882E+00    0.8884826916E-03    0.1474173138E+00    0.4680356099E+00
    0.9000000000E+04    0.5068359081E+00    0.2091334372E+00    0.7439875831E-03    0.1489873689E+00    0.4694368223E+00
    0.1100000000E+05    0.5101494070E+00    0.2091854668E+00    0.6492792898E-03    0.1500096157E+00    0.4703919561E+00
    0.1300000000E+05    0.5124596952E+00    0.2091859943E+00    0.5817338579E-03    0.1507299477E+00    0.4710959869E+00
    0.1500000000E+05    0.5141611487E+00    0.2091601671E+00    0.5307174008E-03    0.1512660590E+00    0.4716431174E+00
    0.1700000000E+05    0.5154655715E+00    0.2091202697E+00    0.4905610698E-03    0.1516813896E+00    0.4720848120E+00
    0.1900000000E+05    0.5164968353E+00    0.2090728060E+00    0.4579569042E-03    0.1520131766E+00    0.4724517475E+00
    0.2100000000E+05    0.5173321968E+00    0.2090214202E+00    0.4308386125E-03    0.1522847281E+00    0.4727634436E+00
    0.2300000000E+05    0.5180223278E+00    0.2089682372E+00    0.4078451241E-03    0.1525113867E+00    0.4730329677E+00
    0.2500000000E+05    0.5186018371E+00    0.2089145294E+00    0.3880409365E-03    0.1527036690E+00    0.4732694306E+00
    0.2700000000E+05    0.5190951642E+00    0.2088610701E+00    0.3707602632E-03    0.1528690279E+00    0.4734793999E+00
    0.2900000000E+05    0.5195200561E+00    0.2088083302E+00    0.3555153177E-03    0.1530128949E+00    0.4736677432E+00
    0.3100000000E+05    0.5198897093E+00    0.2087565926E+00    0.3419398444E-03    0.1531393231E+00    0.4738381538E+00
    0.3300000000E+05    0.5202141397E+00    0.2087060215E+00    0.3297529981E-03    0.1532513997E+00    0.4739934917E+00
    0.3500000000E+05    0.5205010852E+00    0.2086567044E+00    0.3187354719E-03    0.1533515181E+00    0.4741360103E+00
    0.3700000000E+05    0.5207566180E+00    0.2086086791E+00    0.3087132687E-03    0.1534415632E+00    0.4742675124E+00
    0.3900000000E+05    0.5209855692E+00    0.2085619515E+00    0.2995463928E-03    0.1535230400E+00    0.4743894604E+00
    0.4100000000E+05    0.5211918306E+00    0.2085165065E+00    0.2911207964E-03    0.1535971651E+00    0.4745030544E+00
    0.4300000000E+05    0.5213785718E+00    0.2084723156E+00    0.2833425331E-03    0.1536649327E+00    0.4746092903E+00
    0.4500000000E+05    0.5215484002E+00    0.2084293422E+00    0.2761334383E-03    0.1537271637E+00    0.4747090024E+00
    0.4700000000E+05    0.5217034801E+00    0.2083875452E+00    0.2694278903E-03    0.1537845418E+00    0.4748028956E+00
    0.4900000000E+05    0.5218456230E+00    0.2083468805E+00    0.2631703440E-03    0.1538376413E+00    0.4748915707E+00
    0.1000000000E+05    0.5086546873E+00    0.2091683400E+00    0.6922445648E-03    0.1495471419E+00    0.4699544575E+00
    0.3000000000E+05    0.5197110993E+00    0.2087823236E+00    0.3485381260E-03    0.1530780770E+00    0.4737549949E+00
    0.5000000000E+05    0.5219123300E+00    0.2083269589E+00    0.2601944928E-03    0.1538627413E+00    0.4749341154E+00
    0.7000000000E+05    0.5228370399E+00    0.2079775637E+00    0.2156625957E-03    0.1542264743E+00    0.4756049371E+00
    0.9000000000E+05    0.5233390925E+00    0.2076986871E+00    0.1877622241E-03    0.1544431681E+00    0.4760674584E+00
    0.1100000000E+06    0.5236508334E+00    0.2074674835E+00    0.1682267853E-03    0.1545902141E+00    0.4764183409E+00
    0.1300000000E+06    0.5238611759E+00    0.2072702804E+00    0.1535855274E-03    0.1546982961E+00    0.4767001566E+00
    0.1500000000E+06    0.5240113576E+00    0.2070984531E+00    0.1420951496E-03    0.1547821388E+00    0.4769352214E+00
    0.1700000000E+06    0.5241230633E+00    0.2069462565E+00    0.1327722781E-03    0.1548497465E+00    0.4771366250E+00
    0.1900000000E+06    0.5242087578E+00    0.2068096856E+00    0.1250149105E-03    0.1549058719E+00    0.4773126764E+00
    0.2100000000E+06    0.5242761005E+00    0.2066858416E+00    0.1184313335E-03    0.1549535298E+00    0.4774689682E+00
    0.2300000000E+06    0.5243300487E+00    0.2065725611E+00    0.1127543150E-03    0.1549947333E+00    0.4776094385E+00
    0.2500000000E+06    0.5243739470E+00    0.2064681875E+00    0.1077945188E-03    0.1550308831E+00    0.4777369625E+00
    0.2700000000E+06    0.5244101305E+00    0.2063714249E+00    0.1034135818E-03    0.1550629872E+00    0.4778537017E+00
    0.2900000000E+06    0.5244402765E+00    0.2062812404E+00    0.9950774862E-04    0.1550917913E+00    0.4779613208E+00
    0.3100000000E+06    0.5244656190E+00    0.2061967977E+00    0.9599749604E-04    0.1551178609E+00    0.4780611291E+00
    0.3300000000E+06    0.5244870855E+00    0.2061174103E+00    0.9282072043E-04    0.1551416331E+00    0.4781541739E+00
    0.3500000000E+06    0.5245053851E+00    0.2060425077E+00    0.8992812647E-04    0.1551634521E+00    0.4782413063E+00
    0.3700000000E+06    0.5245210690E+00    0.2059716109E+00    0.8728002413E-04    0.1551835931E+00    0.4783232271E+00
    0.3900000000E+06    0.5245345716E+00    0.2059043134E+00    0.8484405237E-04    0.1552022792E+00    0.4784005198E+00
    0.4100000000E+06    0.5245462394E+00    0.2058402678E+00    0.8259352868E-04    0.1552196931E+00    0.4784736757E+00
    0.4300000000E+06    0.5245563519E+00    0.2057791746E+00    0.8050623087E-04    0.1552359868E+00    0.4785431120E+00
    0.4500000000E+06    0.5245651370E+00    0.2057207736E+00    0.7856348356E-04    0.1552512872E+00    0.4786091862E+00
    0.4700000000E+06    0.5245727820E+00    0.2056648379E+00    0.7674946312E-04    0.1552657017E+00    0.4786722067E+00
    0.4900000000E+06    0.5245794421E+00    0.2056111679E+00    0.7505066203E-04    0.1552793216E+00    0.4787324414E+00
    0.1000000000E+06    0.5235115167E+00    0.2075781350E+00    0.1772250985E-03    0.1545229227E+00    0.4762535073E+00
    0.3000000000E+06    0.5244534842E+00    0.2062383473E+00    0.9770740208E-04    0.1551051381E+00    0.4780121306E+00
    0.5000000000E+06    0.5245824443E+00    0.2055851267E+00    0.7424077625E-04    0.1552858586E+00    0.4787615886E+00
    0.7000000000E+06    0.5246133004E+00    0.2051495348E+00    0.6197434454E-04    0.1553891656E+00    0.4792423556E+00
    0.9000000000E+06    0.5246169790E+00    0.2048223016E+00    0.5415975671E-04    0.1554607003E+00    0.4795965783E+00
    0.1100000000E+07    0.5246107642E+00    0.2045601371E+00    0.4863590472E-04    0.1555151642E+00    0.4798770160E+00
    0.1300000000E+07    0.5246005375E+00    0.2043414200E+00    0.4447070916E-04    0.1555590398E+00    0.4801090946E+00
    0.1500000000E+07    0.5245886906E+00    0.2041537845E+00    0.4118814886E-04    0.1555957307E+00    0.4803070235E+00
    0.1700000000E+07    0.5245763041E+00    0.2039894917E+00    0.3851665256E-04    0.1556272370E+00    0.4804795507E+00
    0.1900000000E+07    0.5245638965E+00    0.2038433752E+00    0.3628860536E-04    0.1556548305E+00    0.4806324447E+00
    0.2100000000E+07    0.5245517225E+00    0.2037118140E+00    0.3439426796E-04    0.1556793685E+00    0.4807697098E+00
    0.2300000000E+07    0.5245399050E+00    0.2035921715E+00    0.3275841360E-04    0.1557014559E+00    0.4808942392E+00
    0.2500000000E+07    0.5245284983E+00    0.2034824684E+00    0.3132753773E-04    0.1557215349E+00    0.4810081910E+00
    0.2700000000E+07    0.5245175199E+00    0.2033811806E+00    0.3006241713E-04    0.1557399384E+00    0.4811132180E+00
    0.2900000000E+07    0.5245069676E+00    0.2032871099E+00    0.2893356208E-04    0.1557569232E+00    0.4812106138E+00
    0.3100000000E+07    0.5244968285E+00    0.2031992967E+00    0.2791832037E-04    0.1557726913E+00    0.4813014100E+00
    0.3300000000E+07    0.5244870846E+00    0.2031169612E+00    0.2699896841E-04    0.1557874049E+00    0.4813864423E+00
    0.3500000000E+07    0.5244777154E+00    0.2030394606E+00    0.2616141506E-04    0.1558011955E+00    0.4814663973E+00
    0.3700000000E+07    0.5244686998E+00    0.2029662591E+00    0.2539429883E-04    0.1558141717E+00    0.4815418459E+00
    0.3900000000E+07    0.5244600170E+00    0.2028969051E+00    0.2468834470E-04    0.1558264242E+00    0.4816132679E+00
    0.4100000000E+07    0.5244516469E+00    0.2028310149E+00    0.2403589677E-04    0.1558380291E+00    0.4816810703E+00
    0.4300000000E+07    0.5244435705E+00    0.2027682593E+00    0.2343057271E-04    0.1558490512E+00    0.4817456016E+00
    0.4500000000E+07    0.5244357701E+00    0.2027083537E+00    0.2286700414E-04    0.1558595462E+00    0.4818071621E+00
    0.4700000000E+07    0.5244282292E+00    0.2026510510E+00    0.2234063889E-04    0.1558695620E+00    0.4818660127E+00
    0.4900000000E+07    0.5244209323E+00    0.2025961345E+00    0.2184758831E-04    0.1558791405E+00    0.4819223815E+00
    0.1000000000E+07    0.5246146144E+00    0.2046847389E+00    0.5118527453E-04    0.1554895567E+00    0.4797440612E+00
    0.3000000000E+07    0.5245018474E+00    0.2032424735E+00    0.2841294527E-04    0.1557649484E+00    0.4812567806E+00
    0.5000000000E+07    0.5244173709E+00    0.2025695107E+00    0.2161249240E-04    0.1558837773E+00    0.4819496988E+00
    0.7000000000E+07    0.5243560264E+00    0.2021260708E+00    0.1804892886E-04    0.1559604288E+00    0.4824037677E+00
    0.9000000000E+07    0.5243081395E+00    0.2017948874E+00    0.1577627813E-04    0.1560171003E+00    0.4827419246E+00
    0.1100000000E+08    0.5242689141E+00    0.2015304972E+00    0.1416889628E-04    0.1560620776E+00    0.4830114025E+00
    0.1300000000E+08    0.5242357084E+00    0.2013104518E+00    0.1295643615E-04    0.1560993691E+00    0.4832354063E+00
    0.1500000000E+08    0.5242069240E+00    0.2011220054E+00    0.1200067592E-04    0.1561312215E+00    0.4834270682E+00
    0.1700000000E+08    0.5241815228E+00    0.2009572216E+00    0.1122270227E-04    0.1561590209E+00    0.4835945458E+00
    0.1900000000E+08    0.5241587931E+00    0.2008108222E+00    0.1057378459E-04    0.1561836832E+00    0.4837432546E+00
    0.2100000000E+08    0.5241382264E+00    0.2006791186E+00    0.1002200635E-04    0.1562058451E+00    0.4838769737E+00
    0.2300000000E+08    0.5241194466E+00    0.2005594315E+00    0.9545482272E-05    0.1562259673E+00    0.4839984454E+00
    0.2500000000E+08    0.5241021677E+00    0.2004497532E+00    0.9128643030E-05    0.1562443937E+00    0.4841097222E+00
    0.2700000000E+08    0.5240861673E+00    0.2003485403E+00    0.8760072939E-05    0.1562613881E+00    0.4842123808E+00
