  Pressure (Pa) 22mC5-400 (mol/kg) 3mC6-400 (mol/kg) 33mC5-400 (mol/kg) 23mC5-400 (mol/kg) C7-400 (mol/kg)
    0.1000000000E+01    0.1593497737E-02    0.5191563045E-03    0.1279073235E-03    0.3730671247E-03    0.1685004093E-01
    0.3000000000E+01    0.4751746778E-02    0.1481684017E-02    0.3672118030E-03    0.1112477257E-02    0.4810217930E-01
    0.5000000000E+01    0.7872253699E-02    0.2354865820E-02    0.5870546898E-03    0.1843059040E-02    0.7646774757E-01
    0.7000000000E+01    0.1095570718E-01    0.3150567964E-02    0.7900113376E-03    0.2564973522E-02    0.1023294960E+00
    0.9000000000E+01    0.1400277913E-01    0.3878645339E-02    0.9782087752E-03    0.3278377829E-02    0.1260053496E+00
    0.1100000000E+02    0.1701412525E-01    0.4547350233E-02    0.1153418749E-02    0.3983425294E-02    0.1477615761E+00
    0.1300000000E+02    0.1999038544E-01    0.5163645305E-02    0.1317128660E-02    0.4680265561E-02    0.1678228689E+00
    0.1500000000E+02    0.2293218434E-01    0.5733445987E-02    0.1470596268E-02    0.5369044701E-02    0.1863801576E+00
    0.1700000000E+02    0.2584013175E-01    0.6261810196E-02    0.1614892314E-02    0.6049905315E-02    0.2035967206E+00
    0.1900000000E+02    0.2871482305E-01    0.6753088248E-02    0.1750934051E-02    0.6722986638E-02    0.2196130170E+00
    0.2100000000E+02    0.3155683968E-01    0.7211042392E-02    0.1879511856E-02    0.7388424638E-02    0.2345505388E+00
    0.2300000000E+02    0.3436674947E-01    0.7638942910E-02    0.2001310533E-02    0.8046352107E-02    0.2485149086E+00
    0.2500000000E+02    0.3714510711E-01    0.8039645963E-02    0.2116926480E-02    0.8696898760E-02    0.2615983889E+00
    0.2700000000E+02    0.3989245446E-01    0.8415657117E-02    0.2226881640E-02    0.9340191317E-02    0.2738819304E+00
    0.2900000000E+02    0.4260932099E-01    0.8769183528E-02    0.2331634902E-02    0.9976353593E-02    0.2854368544E+00
    0.3100000000E+02    0.4529622405E-01    0.9102177064E-02    0.2431591484E-02    0.1060550658E-01    0.2963262430E+00
    0.3300000000E+02    0.4795366928E-01    0.9416370174E-02    0.2527110692E-02    0.1122776852E-01    0.3066060967E+00
    0.3500000000E+02    0.5058215091E-01    0.9713305868E-02    0.2618512383E-02    0.1184325499E-01    0.3163263002E+00
    0.3700000000E+02    0.5318215211E-01    0.9994362916E-02    0.2706082363E-02    0.1245207900E-01    0.3255314361E+00
    0.3900000000E+02    0.5575414522E-01    0.1026077712E-01    0.2790076931E-02    0.1305435099E-01    0.3342614708E+00
    0.4100000000E+02    0.5829859216E-01    0.1051365940E-01    0.2870726713E-02    0.1365017900E-01    0.3425523372E+00
    0.4300000000E+02    0.6081594462E-01    0.1075401112E-01    0.2948239913E-02    0.1423966866E-01    0.3504364311E+00
    0.4500000000E+02    0.6330664442E-01    0.1098273734E-01    0.3022805084E-02    0.1482292329E-01    0.3579430363E+00
    0.4700000000E+02    0.6577112370E-01    0.1120065803E-01    0.3094593499E-02    0.1540004396E-01    0.3650986893E+00
    0.4900000000E+02    0.6820980524E-01    0.1140851793E-01    0.3163761179E-02    0.1597112954E-01    0.3719274944E+00
    0.1000000000E+02    0.1551287756E-01    0.4219957090E-02    0.1067338277E-02    0.3631936729E-02    0.1371084995E+00
    0.3000000000E+02    0.4395648608E-01    0.8938133861E-02    0.2382189327E-02    0.1029179879E-01    0.2909610868E+00
    0.5000000000E+02    0.6941960149E-01    0.1150888932E-01    0.3197407267E-02    0.1625443948E-01    0.3752262644E+00
    0.7000000000E+02    0.9235741057E-01    0.1312418935E-01    0.3761634338E-02    0.2162630936E-01    0.4284484056E+00
    0.9000000000E+02    0.1131362177E+00    0.1423185195E-01    0.4171397408E-02    0.2649307570E-01    0.4651340022E+00
    0.1100000000E+03    0.1320541383E+00    0.1503779844E-01    0.4474841890E-02    0.3092446089E-01    0.4919652274E+00
    0.1300000000E+03    0.1493562794E+00    0.1564992324E-01    0.4700240548E-02    0.3497779176E-01    0.5124493588E+00
    0.1500000000E+03    0.1652460441E+00    0.1613020665E-01    0.4866088759E-02    0.3870064278E-01    0.5286046743E+00
    0.1700000000E+03    0.1798936644E+00    0.1651678143E-01    0.4985384123E-02    0.4213283137E-01    0.5416750717E+00
    0.1900000000E+03    0.1934427240E+00    0.1683439092E-01    0.5067710456E-02    0.4530794290E-01    0.5524691004E+00
    0.2100000000E+03    0.2060151998E+00    0.1709978837E-01    0.5120371112E-02    0.4825450970E-01    0.5615351793E+00
    0.2300000000E+03    0.2177154004E+00    0.1732471915E-01    0.5149062287E-02    0.5099693206E-01    0.5692584731E+00
    0.2500000000E+03    0.2286330733E+00    0.1751766038E-01    0.5158302122E-02    0.5355620471E-01    0.5759174649E+00
    0.2700000000E+03    0.2388458771E+00    0.1768488279E-01    0.5151719688E-02    0.5595049505E-01    0.5817185207E+00
    0.2900000000E+03    0.2484213662E+00    0.1783112396E-01    0.5132258153E-02    0.5819560720E-01    0.5868178292E+00
    0.3100000000E+03    0.2574185954E+00    0.1796002938E-01    0.5102322495E-02    0.6030535732E-01    0.5913357886E+00
    0.3300000000E+03    0.2658894278E+00    0.1807444953E-01    0.5063889752E-02    0.6229187940E-01    0.5953667095E+00
    0.3500000000E+03    0.2738796071E+00    0.1817664516E-01    0.5018593033E-02    0.6416587606E-01    0.5989855230E+00
    0.3700000000E+03    0.2814296428E+00    0.1826843200E-01    0.4967786611E-02    0.6593682566E-01    0.6022525186E+00
    0.3900000000E+03    0.2885755459E+00    0.1835128499E-01    0.4912597046E-02    0.6761315422E-01    0.6052167569E+00
    0.4100000000E+03    0.2953494425E+00    0.1842641446E-01    0.4853963787E-02    0.6920237906E-01    0.6079185693E+00
    0.4300000000E+03    0.3017800898E+00    0.1849482285E-01    0.4792671718E-02    0.7071122937E-01    0.6103914184E+00
    0.4500000000E+03    0.3078933110E+00    0.1855734737E-01    0.4729377462E-02    0.7214574803E-01    0.6126633018E+00
    0.4700000000E+03    0.3137123644E+00    0.1861469266E-01    0.4664630782E-02    0.7351137786E-01    0.6147578247E+00
    0.4900000000E+03    0.3192582577E+00    0.1866745592E-01    0.4598892098E-02    0.7481303515E-01    0.6166950298E+00
    0.1000000000E+03    0.1228113755E+00    0.1466433055E-01    0.4334338135E-02    0.2875935215E-01    0.4795146949E+00
    0.3000000000E+03    0.2529888669E+00    0.1789754961E-01    0.5118467086E-02    0.5926660790E-01    0.5891430619E+00
    0.5000000000E+03    0.3219347857E+00    0.1869228149E-01    0.4565773808E-02    0.7544128213E-01    0.6176100899E+00
    0.7000000000E+03    0.3649107830E+00    0.1903980452E-01    0.3916347462E-02    0.8553385221E-01    0.6307407186E+00
    0.9000000000E+03    0.3943283769E+00    0.1922951448E-01    0.3357784696E-02    0.9244939174E-01    0.6383093907E+00
    0.1100000000E+04    0.4157413899E+00    0.1934623731E-01    0.2904873401E-02    0.9748830433E-01    0.6432363827E+00
    0.1300000000E+04    0.4320252356E+00    0.1942361243E-01    0.2540938037E-02    0.1013240927E+00    0.6467010877E+00
    0.1500000000E+04    0.4448229631E+00    0.1947755181E-01    0.2246849744E-02    0.1043417398E+00    0.6492714004E+00
    0.1700000000E+04    0.4551431204E+00    0.1951651728E-01    0.2006746525E-02    0.1067776403E+00    0.6512546863E+00
    0.1900000000E+04    0.4636395288E+00    0.1954540279E-01    0.1808458335E-02    0.1087850971E+00    0.6528318619E+00
    0.2100000000E+04    0.4707547552E+00    0.1956722385E-01    0.1642838560E-02    0.1104679156E+00    0.6541163786E+00
    0.2300000000E+04    0.4767990747E+00    0.1958393280E-01    0.1503020119E-02    0.1118988963E+00    0.6551829999E+00
    0.2500000000E+04    0.4819964525E+00    0.1959684504E-01    0.1383812704E-02    0.1131306068E+00    0.6560830029E+00
    0.2700000000E+04    0.4865125863E+00    0.1960687624E-01    0.1281254645E-02    0.1142019517E+00    0.6568527327E+00
    0.2900000000E+04    0.4904726824E+00    0.1961468155E-01    0.1192288887E-02    0.1151423385E+00    0.6575186710E+00
    0.3100000000E+04    0.4939730993E+00    0.1962074070E-01    0.1114530185E-02    0.1159744067E+00    0.6581005706E+00
    0.3300000000E+04    0.4970891940E+00    0.1962541203E-01    0.1046097326E-02    0.1167158677E+00    0.6586134659E+00
    0.3500000000E+04    0.4998807407E+00    0.1962896792E-01    0.9854913144E-03    0.1173807750E+00    0.6590690032E+00
    0.3700000000E+04    0.5023957553E+00    0.1963161851E-01    0.9315060944E-03    0.1179804214E+00    0.6594763444E+00
    0.3900000000E+04    0.5046732475E+00    0.1963352815E-01    0.8831624583E-03    0.1185239849E+00    0.6598427964E+00
    0.4100000000E+04    0.5067452345E+00    0.1963482687E-01    0.8396586040E-03    0.1190190005E+00    0.6601742579E+00
    0.4300000000E+04    0.5086382385E+00    0.1963561867E-01    0.8003327724E-03    0.1194717125E+00    0.6604755438E+00
    0.4500000000E+04    0.5103744153E+00    0.1963598751E-01    0.7646347327E-03    0.1198873386E+00    0.6607506228E+00
    0.4700000000E+04    0.5119724162E+00    0.1963600176E-01    0.7321038144E-03    0.1202702730E+00    0.6610027957E+00
    0.4900000000E+04    0.5134480536E+00    0.1963571751E-01    0.7023518305E-03    0.1206242421E+00    0.6612348304E+00
    0.1000000000E+04    0.4058162237E+00    0.1929427906E-01    0.3118963282E-02    0.9515208126E-01    0.6410081755E+00
    0.3000000000E+04    0.4922752216E+00    0.1961790463E-01    0.1152136428E-02    0.1155707071E+00    0.6578190935E+00
    0.5000000000E+04    0.5141442813E+00    0.1963547827E-01    0.6884130948E-03    0.1207913772E+00    0.6613440412E+00
    0.7000000000E+04    0.5240714444E+00    0.1962290036E-01    0.4971195046E-03    0.1231858465E+00    0.6628852583E+00
    0.9000000000E+04    0.5297305170E+00    0.1960478387E-01    0.3948172272E-03    0.1245647983E+00    0.6637546595E+00
    0.1100000000E+05    0.5333836283E+00    0.1958618644E-01    0.3314597204E-03    0.1254639675E+00    0.6643154256E+00
    0.1300000000E+05    0.5359352015E+00    0.1956842308E-01    0.2883625857E-03    0.1260983098E+00    0.6647085635E+00
    0.1500000000E+05    0.5378173084E+00    0.1955181480E-01    0.2570844239E-03    0.1265708763E+00    0.6650003548E+00
    0.1700000000E+05    0.5392623165E+00    0.1953637706E-01    0.2332860509E-03    0.1269372797E+00    0.6652261056E+00
    0.1900000000E+05    0.5404062773E+00    0.1952202954E-01    0.2145184459E-03    0.1272301936E+00    0.6654063686E+00
    0.2100000000E+05    0.5413341261E+00    0.1950866727E-01    0.1992978361E-03    0.1274700855E+00    0.6655539314E+00
    0.2300000000E+05    0.5421016185E+00    0.1949618583E-01    0.1866738124E-03    0.1276704370E+00    0.6656771740E+00
    0.2500000000E+05    0.5427468651E+00    0.1948448975E-01    0.1760096852E-03    0.1278404946E+00    0.6657818206E+00
    0.2700000000E+05    0.5432967976E+00    0.1947349465E-01    0.1668628990E-03    0.1279868144E+00    0.6658719173E+00
    0.2900000000E+05    0.5437709856E+00    0.1946312696E-01    0.1589161928E-03    0.1281141767E+00    0.6659504066E+00
    0.3100000000E+05    0.5441839903E+00    0.1945332288E-01    0.1519360880E-03    0.1282261501E+00    0.6660194809E+00
    0.3300000000E+05    0.5445468698E+00    0.1944402706E-01    0.1457468507E-03    0.1283254538E+00    0.6660808080E+00
    0.3500000000E+05    0.5448681721E+00    0.1943519142E-01    0.1402135999E-03    0.1284141968E+00    0.6661356795E+00
    0.3700000000E+05    0.5451546087E+00    0.1942677405E-01    0.1352310237E-03    0.1284940407E+00    0.6661851120E+00
    0.3900000000E+05    0.5454115226E+00    0.1941873827E-01    0.1307156450E-03    0.1285663124E+00    0.6662299166E+00
    0.4100000000E+05    0.5456432198E+00    0.1941105184E-01    0.1266004003E-03    0.1286320850E+00    0.6662707490E+00
    0.4300000000E+05    0.5458532090E+00    0.1940368635E-01    0.1228307613E-03    0.1286922357E+00    0.6663081446E+00
    0.4500000000E+05    0.5460443782E+00    0.1939661660E-01    0.1193619103E-03    0.1287474889E+00    0.6663425456E+00
    0.4700000000E+05    0.5462191258E+00    0.1938982020E-01    0.1161566492E-03    0.1287984482E+00    0.6663743201E+00
    0.4900000000E+05    0.5463794599E+00    0.1938327714E-01    0.1131838296E-03    0.1288456207E+00    0.6664037775E+00
    0.1000000000E+05    0.5317348612E+00    0.1959542517E-01    0.3598014976E-03    0.1250570321E+00    0.6640621884E+00
    0.3000000000E+05    0.5439843762E+00    0.1945815811E-01    0.1553174201E-03    0.1281719004E+00    0.6659860062E+00
    0.5000000000E+05    0.5464547619E+00    0.1938009495E-01    0.1117762054E-03    0.1288679237E+00    0.6664177206E+00
    0.7000000000E+05    0.5475035451E+00    0.1932624600E-01    0.9116588368E-04    0.1291914844E+00    0.6666214670E+00
    0.9000000000E+05    0.5480787262E+00    0.1928518062E-01    0.7865757504E-04    0.1293846132E+00    0.6667449224E+00
    0.1100000000E+06    0.5484394636E+00    0.1925200365E-01    0.7006604309E-04    0.1295158490E+00    0.6668299899E+00
    0.1300000000E+06    0.5486853355E+00    0.1922417794E-01    0.6370902272E-04    0.1296124095E+00    0.6668933810E+00
    0.1500000000E+06    0.5488627026E+00    0.1920022024E-01    0.5876560879E-04    0.1296873738E+00    0.6669431663E+00
    0.1700000000E+06    0.5489960323E+00    0.1917918862E-01    0.5478219867E-04    0.1297478592E+00    0.6669837605E+00
    0.1900000000E+06    0.5490994394E+00    0.1916044773E-01    0.5148537472E-04    0.1297980958E+00    0.6670178017E+00
    0.2100000000E+06    0.5491816276E+00    0.1914354876E-01    0.4869936089E-04    0.1298407692E+00    0.6670469732E+00
    0.2300000000E+06    0.5492482493E+00    0.1912816297E-01    0.4630539212E-04    0.1298776741E+00    0.6670724058E+00
    0.2500000000E+06    0.5493031316E+00    0.1911404234E-01    0.4421998402E-04    0.1299100598E+00    0.6670948909E+00
    0.2700000000E+06    0.5493489551E+00    0.1910099520E-01    0.4238252807E-04    0.1299388260E+00    0.6671150008E+00
    0.2900000000E+06    0.5493876521E+00    0.1908887030E-01    0.4074782737E-04    0.1299646388E+00    0.6671331616E+00
    0.3100000000E+06    0.5494206493E+00    0.1907754627E-01    0.3928140569E-04    0.1299880032E+00    0.6671496977E+00
    0.3300000000E+06    0.5494490222E+00    0.1906692417E-01    0.3795644973E-04    0.1300093101E+00    0.6671648612E+00
    0.3500000000E+06    0.5494735962E+00    0.1905692232E-01    0.3675175293E-04    0.1300288673E+00    0.6671788516E+00
    0.3700000000E+06    0.5494950152E+00    0.1904747251E-01    0.3565029522E-04    0.1300469207E+00    0.6671918292E+00
    0.3900000000E+06    0.5495137881E+00    0.1903851718E-01    0.3463823858E-04    0.1300636702E+00    0.6672039242E+00
    0.4100000000E+06    0.5495303224E+00    0.1903000733E-01    0.3370420208E-04    0.1300792793E+00    0.6672152442E+00
    0.4300000000E+06    0.5495449482E+00    0.1902190086E-01    0.3283872884E-04    0.1300938839E+00    0.6672258786E+00
    0.4500000000E+06    0.5495579351E+00    0.1901416140E-01    0.3203388771E-04    0.1301075979E+00    0.6672359026E+00
    0.4700000000E+06    0.5495695058E+00    0.1900675726E-01    0.3128297124E-04    0.1301205173E+00    0.6672453800E+00
    0.4900000000E+06    0.5495798456E+00    0.1899966070E-01    0.3058026352E-04    0.1301327240E+00    0.6672543653E+00
    0.1000000000E+06    0.5482778055E+00    0.1926779860E-01    0.7400728486E-04    0.1294557736E+00    0.6667909092E+00
    0.3000000000E+06    0.5494047891E+00    0.1908311482E-01    0.3999540920E-04    0.1299766004E+00    0.6671416155E+00
    0.5000000000E+06    0.5495846034E+00    0.1899622000E-01    0.3024542760E-04    0.1301385825E+00    0.6672586883E+00
    0.7000000000E+06    0.5496422758E+00    0.1893889863E-01    0.2518712387E-04    0.1302311384E+00    0.6673279146E+00
    0.9000000000E+06    0.5496634578E+00    0.1889608545E-01    0.2197672483E-04    0.1302951810E+00    0.6673768383E+00
    0.1100000000E+07    0.5496699724E+00    0.1886191465E-01    0.1971274699E-04    0.1303439040E+00    0.6674146054E+00
    0.1300000000E+07    0.5496696281E+00    0.1883348433E-01    0.1800845007E-04    0.1303831274E+00    0.6674453375E+00
    0.1500000000E+07    0.5496657957E+00    0.1880914524E-01    0.1666699190E-04    0.1304159073E+00    0.6674712350E+00
    0.1700000000E+07    0.5496601143E+00    0.1878786986E-01    0.1557634254E-04    0.1304440392E+00    0.6674936082E+00
    0.1900000000E+07    0.5496534487E+00    0.1876897464E-01    0.1466748151E-04    0.1304686648E+00    0.6675132995E+00
    0.2100000000E+07    0.5496462815E+00    0.1875198179E-01    0.1389528477E-04    0.1304905535E+00    0.6675308819E+00
    0.2300000000E+07    0.5496388931E+00    0.1873654424E-01    0.1322885551E-04    0.1305102478E+00    0.6675467629E+00
    0.2500000000E+07    0.5496314506E+00    0.1872240192E-01    0.1264623994E-04    0.1305281445E+00    0.6675612425E+00
    0.2700000000E+07    0.5496240551E+00    0.1870935492E-01    0.1213135751E-04    0.1305445420E+00    0.6675745477E+00
    0.2900000000E+07    0.5496167678E+00    0.1869724626E-01    0.1167212683E-04    0.1305596705E+00    0.6675868546E+00
    0.3100000000E+07    0.5496096248E+00    0.1868595045E-01    0.1125927361E-04    0.1305737111E+00    0.6675983026E+00
    0.3300000000E+07    0.5496026470E+00    0.1867536557E-01    0.1088554553E-04    0.1305868090E+00    0.6676090037E+00
    0.3500000000E+07    0.5495958451E+00    0.1866540770E-01    0.1054517953E-04    0.1305990822E+00    0.6676190493E+00
    0.3700000000E+07    0.5495892233E+00    0.1865600697E-01    0.1023353110E-04    0.1306106278E+00    0.6676285151E+00
    0.3900000000E+07    0.5495827816E+00    0.1864710454E-01    0.9946810209E-05    0.1306215269E+00    0.6676374643E+00
    0.4100000000E+07    0.5495765175E+00    0.1863865043E-01    0.9681889674E-05    0.1306318477E+00    0.6676459505E+00
    0.4300000000E+07    0.5495704266E+00    0.1863060181E-01    0.9436163433E-05    0.1306416483E+00    0.6676540191E+00
    0.4500000000E+07    0.5495645037E+00    0.1862292169E-01    0.9207440175E-05    0.1306509784E+00    0.6676617094E+00
    0.4700000000E+07    0.5495587427E+00    0.1861557793E-01    0.8993862315E-05    0.1306598809E+00    0.6676690553E+00
    0.4900000000E+07    0.5495531376E+00    0.1860854241E-01    0.8793843493E-05    0.1306683932E+00    0.6676760862E+00
    0.1000000000E+07    0.5496679018E+00    0.1887814210E-01    0.2075708140E-04    0.1303210001E+00    0.6673967942E+00
    0.3000000000E+07    0.5496131767E+00    0.1869150360E-01    0.1146039649E-04    0.1305668170E+00    0.6675926785E+00
    0.5000000000E+07    0.5495503916E+00    0.1860513239E-01    0.8698484917E-05    0.1306725134E+00    0.6676794917E+00
    0.7000000000E+07    0.5495022015E+00    0.1854841416E-01    0.7254220768E-05    0.1307405777E+00    0.6677359611E+00
    0.9000000000E+07    0.5494636803E+00    0.1850614560E-01    0.6334379779E-05    0.1307908460E+00    0.6677778879E+00
    0.1100000000E+08    0.5494316947E+00    0.1847245473E-01    0.5684445518E-05    0.1308307106E+00    0.6678112480E+00
    0.1300000000E+08    0.5494043739E+00    0.1844444910E-01    0.5194580071E-05    0.1308637437E+00    0.6678389541E+00
    0.1500000000E+08    0.5493805377E+00    0.1842048928E-01    0.4808679500E-05    0.1308919455E+00    0.6678626472E+00
    0.1700000000E+08    0.5493593999E+00    0.1839955586E-01    0.4494737360E-05    0.1309165494E+00    0.6678833433E+00
    0.1900000000E+08    0.5493404122E+00    0.1838097164E-01    0.4233001490E-05    0.1309383696E+00    0.6679017159E+00
    0.2100000000E+08    0.5493231771E+00    0.1836426380E-01    0.4010542036E-05    0.1309579721E+00    0.6679182339E+00
    0.2300000000E+08    0.5493073981E+00    0.1834908917E-01    0.3818497156E-05    0.1309757661E+00    0.6679332374E+00
    0.2500000000E+08    0.5492928479E+00    0.1833519079E-01    0.3650565134E-05    0.1309920570E+00    0.6679469806E+00
    0.2700000000E+08    0.5492793483E+00    0.1832237127E-01    0.3502127200E-05    0.1310070789E+00    0.6679596587E+00
