  Pressure (Pa) 22mC5-400 (mol/kg) 3mC6-400 (mol/kg) 33mC5-400 (mol/kg) 23mC5-400 (mol/kg) C7-400 (mol/kg)
    0.1000000000E+01    0.1594152960E-02    0.2071880137E-02    0.1277082027E-03    0.9330509632E-04    0.1681172820E-01
    0.3000000000E+01    0.4757576981E-02    0.5888244627E-02    0.3656417301E-03    0.2784602451E-03    0.4779134153E-01
    0.5000000000E+01    0.7888266316E-02    0.9322598543E-02    0.5832180028E-03    0.4617011279E-03    0.7568539321E-01
    0.7000000000E+01    0.1098674051E-01    0.1242947250E-01    0.7833724051E-03    0.6430581188E-03    0.1009336217E+00
    0.9000000000E+01    0.1405350810E-01    0.1525349371E-01    0.9684899433E-03    0.8225609482E-03    0.1238959676E+00
    0.1100000000E+02    0.1708906690E-01    0.1783153613E-01    0.1140527431E-02    0.1000238720E-02    0.1448698911E+00
    0.1300000000E+02    0.2009390428E-01    0.2019433388E-01    0.1301104733E-02    0.1176119927E-02    0.1641033663E+00
    0.1500000000E+02    0.2306849746E-01    0.2236770781E-01    0.1451573799E-02    0.1350232468E-02    0.1818047628E+00
    0.1700000000E+02    0.2601331373E-01    0.2437350943E-01    0.1593071527E-02    0.1522603664E-02    0.1981504495E+00
    0.1900000000E+02    0.2892881074E-01    0.2623035527E-01    0.1726560676E-02    0.1693260270E-02    0.2132907117E+00
    0.2100000000E+02    0.3181543675E-01    0.2795420402E-01    0.1852861864E-02    0.1862228493E-02    0.2273544023E+00
    0.2300000000E+02    0.3467363085E-01    0.2955881444E-01    0.1972678811E-02    0.2029534004E-02    0.2404526309E+00
    0.2500000000E+02    0.3750382319E-01    0.3105611173E-01    0.2086618436E-02    0.2195201950E-02    0.2526817175E+00
    0.2700000000E+02    0.4030643523E-01    0.3245648301E-01    0.2195206983E-02    0.2359256973E-02    0.2641255741E+00
    0.2900000000E+02    0.4308187993E-01    0.3376901754E-01    0.2298903047E-02    0.2521723216E-02    0.2748576410E+00
    0.3100000000E+02    0.4583056201E-01    0.3500170323E-01    0.2398108183E-02    0.2682624339E-02    0.2849424712E+00
    0.3300000000E+02    0.4855287808E-01    0.3616158851E-01    0.2493175589E-02    0.2841983530E-02    0.2944370358E+00
    0.3500000000E+02    0.5124921691E-01    0.3725491645E-01    0.2584417269E-02    0.2999823520E-02    0.3033918052E+00
    0.3700000000E+02    0.5391995959E-01    0.3828723659E-01    0.2672109962E-02    0.3156166588E-02    0.3118516514E+00
    0.3900000000E+02    0.5656547972E-01    0.3926349862E-01    0.2756500089E-02    0.3311034577E-02    0.3198566032E+00
    0.4100000000E+02    0.5918614360E-01    0.4018813125E-01    0.2837807887E-02    0.3464448902E-02    0.3274424827E+00
    0.4300000000E+02    0.6178231041E-01    0.4106510900E-01    0.2916230902E-02    0.3616430563E-02    0.3346414439E+00
    0.4500000000E+02    0.6435433237E-01    0.4189800896E-01    0.2991946925E-02    0.3767000153E-02    0.3414824308E+00
    0.4700000000E+02    0.6690255491E-01    0.4269005920E-01    0.3065116496E-02    0.3916177868E-02    0.3479915683E+00
    0.4900000000E+02    0.6942731686E-01    0.4344418037E-01    0.3135885034E-02    0.4063983517E-02    0.3541924971E+00
    0.1000000000E+02    0.1557515790E-01    0.1657121345E-01    0.1056035455E-02    0.9116261712E-03    0.1346149526E+00
    0.3000000000E+02    0.4445954133E-01    0.3439488064E-01    0.2349043863E-02    0.2602367957E-02    0.2799772359E+00
    0.5000000000E+02    0.7068100422E-01    0.4380785509E-01    0.3170410679E-02    0.4137377904E-02    0.3571841636E+00
    0.7000000000E+02    0.9460086576E-01    0.4961825514E-01    0.3761388322E-02    0.5537780597E-02    0.4051142270E+00
    0.9000000000E+02    0.1165173696E+00    0.5355700058E-01    0.4210009385E-02    0.6821013403E-02    0.4377905193E+00
    0.1100000000E+03    0.1366788740E+00    0.5639976095E-01    0.4558736752E-02    0.8001597463E-02    0.4615090463E+00
    0.1300000000E+03    0.1552938728E+00    0.5854592315E-01    0.4832213415E-02    0.9091723452E-02    0.4795177032E+00
    0.1500000000E+03    0.1725386986E+00    0.6022202871E-01    0.5046620217E-02    0.1010170188E-01    0.4936622608E+00
    0.1700000000E+03    0.1885635104E+00    0.6156611831E-01    0.5213483043E-02    0.1104031307E-01    0.5050695603E+00
    0.1900000000E+03    0.2034969919E+00    0.6266708525E-01    0.5341464062E-02    0.1191508184E-01    0.5144666351E+00
    0.2100000000E+03    0.2174500751E+00    0.6358474882E-01    0.5437310191E-02    0.1273249512E-01    0.5223436711E+00
    0.2300000000E+03    0.2305189144E+00    0.6436083459E-01    0.5506406561E-02    0.1349817590E-01    0.5290432469E+00
    0.2500000000E+03    0.2427872830E+00    0.6502532930E-01    0.5553126050E-02    0.1421702323E-01    0.5348120397E+00
    0.2700000000E+03    0.2543285165E+00    0.6560033411E-01    0.5581064394E-02    0.1489332592E-01    0.5398322124E+00
    0.2900000000E+03    0.2652071017E+00    0.6610249414E-01    0.5593206340E-02    0.1553085537E-01    0.5442412262E+00
    0.3100000000E+03    0.2754799831E+00    0.6654458231E-01    0.5592047648E-02    0.1613294198E-01    0.5481447711E+00
    0.3300000000E+03    0.2851976438E+00    0.6693656202E-01    0.5579687360E-02    0.1670253834E-01    0.5516254514E+00
    0.3500000000E+03    0.2944050053E+00    0.6728631826E-01    0.5557899202E-02    0.1724227184E-01    0.5547487686E+00
    0.3700000000E+03    0.3031421810E+00    0.6760017186E-01    0.5528187835E-02    0.1775448870E-01    0.5575673340E+00
    0.3900000000E+03    0.3114451089E+00    0.6788324837E-01    0.5491833809E-02    0.1824129100E-01    0.5601238939E+00
    0.4100000000E+03    0.3193460875E+00    0.6813974729E-01    0.5449929906E-02    0.1870456798E-01    0.5624535412E+00
    0.4300000000E+03    0.3268742303E+00    0.6837314182E-01    0.5403410788E-02    0.1914602262E-01    0.5645853562E+00
    0.4500000000E+03    0.3340558536E+00    0.6858632897E-01    0.5353077398E-02    0.1956719435E-01    0.5665436431E+00
    0.4700000000E+03    0.3409148085E+00    0.6878174406E-01    0.5299617151E-02    0.1996947840E-01    0.5683488730E+00
    0.4900000000E+03    0.3474727669E+00    0.6896144890E-01    0.5243620763E-02    0.2035414259E-01    0.5700184117E+00
    0.1000000000E+03    0.1268036315E+00    0.5508486514E-01    0.4395053313E-02    0.7423325828E-02    0.4505214954E+00
    0.3000000000E+03    0.2704159601E+00    0.6633036850E-01    0.5594150008E-02    0.1583613630E-01    0.5462505590E+00
    0.5000000000E+03    0.3506451103E+00    0.6904596942E-01    0.5214833186E-02    0.2054023215E-01    0.5708070169E+00
    0.7000000000E+03    0.4022590973E+00    0.7022690134E-01    0.4596553778E-02    0.2356921185E-01    0.5821260138E+00
    0.9000000000E+03    0.4383590661E+00    0.7086966750E-01    0.4010028132E-02    0.2568959870E-01    0.5886603073E+00
    0.1100000000E+04    0.4650549971E+00    0.7126437045E-01    0.3507893819E-02    0.2725898328E-01    0.5929235869E+00
    0.1300000000E+04    0.4856040207E+00    0.7152562935E-01    0.3089693797E-02    0.2846804829E-01    0.5959293337E+00
    0.1500000000E+04    0.5019094010E+00    0.7170753047E-01    0.2743015511E-02    0.2942825012E-01    0.5981653083E+00
    0.1700000000E+04    0.5151605232E+00    0.7183878684E-01    0.2454543253E-02    0.3020926059E-01    0.5998955238E+00
    0.1900000000E+04    0.5261398853E+00    0.7193598333E-01    0.2212820637E-02    0.3085693043E-01    0.6012754397E+00
    0.2100000000E+04    0.5353837322E+00    0.7200932833E-01    0.2008626280E-02    0.3140269031E-01    0.6024025990E+00
    0.2300000000E+04    0.5432719764E+00    0.7206542554E-01    0.1834703826E-02    0.3186881441E-01    0.6033413256E+00
    0.2500000000E+04    0.5500813284E+00    0.7210872091E-01    0.1685374814E-02    0.3227153090E-01    0.6041357697E+00
    0.2700000000E+04    0.5560181116E+00    0.7214230757E-01    0.1556186612E-02    0.3262294350E-01    0.6048172501E+00
    0.2900000000E+04    0.5612392952E+00    0.7216839727E-01    0.1443628369E-02    0.3293226332E-01    0.6054086051E+00
    0.3100000000E+04    0.5658664084E+00    0.7218860878E-01    0.1344911901E-02    0.3320662384E-01    0.6059268848E+00
    0.3300000000E+04    0.5699949979E+00    0.7220415076E-01    0.1257805533E-02    0.3345163509E-01    0.6063850776E+00
    0.3500000000E+04    0.5737012113E+00    0.7221594146E-01    0.1180508716E-02    0.3367176932E-01    0.6067932539E+00
    0.3700000000E+04    0.5770464759E+00    0.7222468911E-01    0.1111557275E-02    0.3387063534E-01    0.6071593429E+00
    0.3900000000E+04    0.5800808870E+00    0.7223094735E-01    0.1049751487E-02    0.3405117700E-01    0.6074896742E+00
    0.4100000000E+04    0.5828457015E+00    0.7223515413E-01    0.9941011529E-03    0.3421581951E-01    0.6077893622E+00
    0.4300000000E+04    0.5853752022E+00    0.7223765954E-01    0.9437833386E-03    0.3436657867E-01    0.6080625854E+00
    0.4500000000E+04    0.5876981091E+00    0.7223874615E-01    0.8981096400E-03    0.3450514368E-01    0.6083127912E+00
    0.4700000000E+04    0.5898386618E+00    0.7223864396E-01    0.8565006234E-03    0.3463294065E-01    0.6085428493E+00
    0.4900000000E+04    0.5918174594E+00    0.7223754167E-01    0.8184657261E-03    0.3475118184E-01    0.6087551686E+00
    0.1000000000E+04    0.4526359866E+00    0.7108875154E-01    0.3747920792E-02    0.2652873374E-01    0.5909942381E+00
    0.3000000000E+04    0.5636206183E+00    0.7217915429E-01    0.1392690795E-02    0.3307343233E-01    0.6056759880E+00
    0.5000000000E+04    0.5927518065E+00    0.7223666529E-01    0.8006555849E-03    0.3480704904E-01    0.6088553253E+00
    0.7000000000E+04    0.6061255642E+00    0.7219310422E-01    0.5575391981E-03    0.3560995122E-01    0.6102886336E+00
    0.9000000000E+04    0.6137946842E+00    0.7213117471E-01    0.4296369034E-03    0.3607437235E-01    0.6111213249E+00
    0.1100000000E+05    0.6187650374E+00    0.7206780157E-01    0.3519181994E-03    0.3637795072E-01    0.6116738358E+00
    0.1300000000E+05    0.6222472934E+00    0.7200735538E-01    0.3000473970E-03    0.3659245026E-01    0.6120718613E+00
    0.1500000000E+05    0.6248224963E+00    0.7195088359E-01    0.2630753335E-03    0.3675241578E-01    0.6123750887E+00
    0.1700000000E+05    0.6268041365E+00    0.7189841716E-01    0.2354135412E-03    0.3687654021E-01    0.6126156339E+00
    0.1900000000E+05    0.6283762062E+00    0.7184967147E-01    0.2139347147E-03    0.3697582689E-01    0.6128123802E+00
    0.2100000000E+05    0.6296537902E+00    0.7180428327E-01    0.1967615157E-03    0.3705717833E-01    0.6129771936E+00
    0.2300000000E+05    0.6307125556E+00    0.7176189374E-01    0.1827027929E-03    0.3712514601E-01    0.6131179266E+00
    0.2500000000E+05    0.6316042935E+00    0.7172217606E-01    0.1709681339E-03    0.3718285426E-01    0.6132399959E+00
    0.2700000000E+05    0.6323656469E+00    0.7168484196E-01    0.1610132692E-03    0.3723251994E-01    0.6133472668E+00
    0.2900000000E+05    0.6330232703E+00    0.7164964050E-01    0.1524515904E-03    0.3727576027E-01    0.6134425773E+00
    0.3100000000E+05    0.6335970164E+00    0.7161635422E-01    0.1450011157E-03    0.3731378318E-01    0.6135280618E+00
    0.3300000000E+05    0.6341019749E+00    0.7158479467E-01    0.1384514324E-03    0.3734750946E-01    0.6136053592E+00
    0.3500000000E+05    0.6345498206E+00    0.7155479819E-01    0.1326423858E-03    0.3737765351E-01    0.6136757503E+00
    0.3700000000E+05    0.6349497273E+00    0.7152622218E-01    0.1274499329E-03    0.3740477829E-01    0.6137402523E+00
    0.3900000000E+05    0.6353090034E+00    0.7149894193E-01    0.1227765078E-03    0.3742933356E-01    0.6137996843E+00
    0.4100000000E+05    0.6356335437E+00    0.7147284786E-01    0.1185443096E-03    0.3745168308E-01    0.6138547138E+00
    0.4300000000E+05    0.6359281546E+00    0.7144784336E-01    0.1146905301E-03    0.3747212433E-01    0.6139058911E+00
    0.4500000000E+05    0.6361967950E+00    0.7142384284E-01    0.1111639000E-03    0.3749090298E-01    0.6139536744E+00
    0.4700000000E+05    0.6364427547E+00    0.7140077019E-01    0.1079221461E-03    0.3750822375E-01    0.6139984484E+00
    0.4900000000E+05    0.6366687903E+00    0.7137855748E-01    0.1049300936E-03    0.3752425867E-01    0.6140405391E+00
    0.1000000000E+05    0.6165196841E+00    0.7209926850E-01    0.3865001100E-03    0.3624049068E-01    0.6114224381E+00
    0.3000000000E+05    0.6333195916E+00    0.7163277037E-01    0.1486019876E-03    0.3729536073E-01    0.6134864357E+00
    0.5000000000E+05    0.6367750782E+00    0.7136775434E-01    0.1035182933E-03    0.3753184034E-01    0.6140606666E+00
    0.7000000000E+05    0.6382665727E+00    0.7118493385E-01    0.8321272177E-04    0.3764186337E-01    0.6143725198E+00
    0.9000000000E+05    0.6390979419E+00    0.7104549419E-01    0.7122112507E-04    0.3770756474E-01    0.6145819612E+00
    0.1100000000E+06    0.6396279223E+00    0.7093282268E-01    0.6312402667E-04    0.3775222475E-01    0.6147382126E+00
    0.1300000000E+06    0.6399951516E+00    0.7083831062E-01    0.5720202100E-04    0.3778509278E-01    0.6148622785E+00
    0.1500000000E+06    0.6402645332E+00    0.7075692547E-01    0.5263521814E-04    0.3781061480E-01    0.6149649142E+00
    0.1700000000E+06    0.6404705073E+00    0.7068547140E-01    0.4897829788E-04    0.3783121085E-01    0.6150523141E+00
    0.1900000000E+06    0.6406330489E+00    0.7062179260E-01    0.4596637722E-04    0.3784831952E-01    0.6151283537E+00
    0.2100000000E+06    0.6407645407E+00    0.7056436624E-01    0.4343095480E-04    0.3786285427E-01    0.6151956102E+00
    0.2300000000E+06    0.6408730682E+00    0.7051207675E-01    0.4125915269E-04    0.3787542558E-01    0.6152558808E+00
    0.2500000000E+06    0.6409641345E+00    0.7046408254E-01    0.3937218535E-04    0.3788645855E-01    0.6153104664E+00
    0.2700000000E+06    0.6410416154E+00    0.7041973309E-01    0.3771319502E-04    0.3789625930E-01    0.6153603384E+00
    0.2900000000E+06    0.6411083195E+00    0.7037851514E-01    0.3623999584E-04    0.3790505450E-01    0.6154062400E+00
    0.3100000000E+06    0.6411663315E+00    0.7034001669E-01    0.3492054811E-04    0.3791301602E-01    0.6154487527E+00
    0.3300000000E+06    0.6412172317E+00    0.7030390197E-01    0.3373002744E-04    0.3792027690E-01    0.6154883396E+00
    0.3500000000E+06    0.6412622396E+00    0.7026989372E-01    0.3264886509E-04    0.3792694188E-01    0.6155253756E+00
    0.3700000000E+06    0.6413023114E+00    0.7023776038E-01    0.3166140116E-04    0.3793309477E-01    0.6155601678E+00
    0.3900000000E+06    0.6413382072E+00    0.7020730657E-01    0.3075493642E-04    0.3793880349E-01    0.6155929716E+00
    0.4100000000E+06    0.6413705390E+00    0.7017836588E-01    0.2991905063E-04    0.3794412379E-01    0.6156240010E+00
    0.4300000000E+06    0.6413998051E+00    0.7015079548E-01    0.2914510311E-04    0.3794910194E-01    0.6156534376E+00
    0.4500000000E+06    0.6414264152E+00    0.7012447182E-01    0.2842586079E-04    0.3795377667E-01    0.6156814364E+00
    0.4700000000E+06    0.6414507092E+00    0.7009928733E-01    0.2775521695E-04    0.3795818072E-01    0.6157081309E+00
    0.4900000000E+06    0.6414729716E+00    0.7007514778E-01    0.2712797564E-04    0.3796234197E-01    0.6157336370E+00
    0.1000000000E+06    0.6393893520E+00    0.7098646566E-01    0.6682476891E-04    0.3773177937E-01    0.6146650723E+00
    0.3000000000E+06    0.6411383033E+00    0.7035894852E-01    0.3556274704E-04    0.3790913039E-01    0.6154278886E+00
    0.5000000000E+06    0.6414834174E+00    0.7006344352E-01    0.2682921431E-04    0.3796433916E-01    0.6157459764E+00
    0.7000000000E+06    0.6416280265E+00    0.6986841031E-01    0.2232417517E-04    0.3799589604E-01    0.6159493266E+00
    0.9000000000E+06    0.6417062212E+00    0.6972268718E-01    0.1947192068E-04    0.3801773540E-01    0.6160990484E+00
    0.1100000000E+07    0.6417544914E+00    0.6960634669E-01    0.1746314704E-04    0.3803435250E-01    0.6162175916E+00
    0.1300000000E+07    0.6417868150E+00    0.6950952785E-01    0.1595216490E-04    0.3804773081E-01    0.6163157255E+00
    0.1500000000E+07    0.6418096813E+00    0.6942662493E-01    0.1476348004E-04    0.3805891203E-01    0.6163994541E+00
    0.1700000000E+07    0.6418265050E+00    0.6935414485E-01    0.1379738220E-04    0.3806850827E-01    0.6164724688E+00
    0.1900000000E+07    0.6418392498E+00    0.6928976343E-01    0.1299251440E-04    0.3807690873E-01    0.6165372022E+00
    0.2100000000E+07    0.6418491226E+00    0.6923185591E-01    0.1230879812E-04    0.3808437578E-01    0.6165953420E+00
    0.2300000000E+07    0.6418569042E+00    0.6917924186E-01    0.1171880963E-04    0.3809109445E-01    0.6166481076E+00
    0.2500000000E+07    0.6418631215E+00    0.6913103664E-01    0.1120307317E-04    0.3809719997E-01    0.6166964084E+00
    0.2700000000E+07    0.6418681418E+00    0.6908656018E-01    0.1074732918E-04    0.3810279414E-01    0.6167409411E+00
    0.2900000000E+07    0.6418722289E+00    0.6904527844E-01    0.1034086806E-04    0.3810795547E-01    0.6167822508E+00
    0.3100000000E+07    0.6418755766E+00    0.6900676438E-01    0.9975470846E-05    0.3811274572E-01    0.6168207724E+00
    0.3300000000E+07    0.6418783304E+00    0.6897067117E-01    0.9644711934E-05    0.3811721441E-01    0.6168568584E+00
    0.3500000000E+07    0.6418806012E+00    0.6893671329E-01    0.9343486240E-05    0.3812140175E-01    0.6168907982E+00
    0.3700000000E+07    0.6418824753E+00    0.6890465288E-01    0.9067680160E-05    0.3812534091E-01    0.6169228327E+00
    0.3900000000E+07    0.6418840205E+00    0.6887428972E-01    0.8813937403E-05    0.3812905954E-01    0.6169531642E+00
    0.4100000000E+07    0.6418852907E+00    0.6884545364E-01    0.8579488979E-05    0.3813258091E-01    0.6169819646E+00
    0.4300000000E+07    0.6418863293E+00    0.6881799884E-01    0.8362027577E-05    0.3813592481E-01    0.6170093809E+00
    0.4500000000E+07    0.6418871716E+00    0.6879179942E-01    0.8159613266E-05    0.3813910820E-01    0.6170355399E+00
    0.4700000000E+07    0.6418878467E+00    0.6876674595E-01    0.7970601682E-05    0.3814214574E-01    0.6170605518E+00
    0.4900000000E+07    0.6418883783E+00    0.6874274267E-01    0.7793588653E-05    0.3814505015E-01    0.6170845128E+00
    0.1000000000E+07    0.6417329597E+00    0.6966159960E-01    0.1838951654E-04    0.3802654086E-01    0.6161613868E+00
    0.3000000000E+07    0.6418739852E+00    0.6902569875E-01    0.1015347370E-04    0.3811039364E-01    0.6168018364E+00
    0.5000000000E+07    0.6418885968E+00    0.6873110814E-01    0.7709197635E-05    0.3814645596E-01    0.6170961261E+00
    0.7000000000E+07    0.6418888772E+00    0.6853754687E-01    0.6430981038E-05    0.3816968045E-01    0.6172892896E+00
    0.9000000000E+07    0.6418856278E+00    0.6839324091E-01    0.5616787123E-05    0.3818683355E-01    0.6174332873E+00
    0.1100000000E+08    0.6418813531E+00    0.6827818452E-01    0.5041420077E-05    0.3820043714E-01    0.6175481170E+00
    0.1300000000E+08    0.6418768443E+00    0.6818251994E-01    0.4607700203E-05    0.3821170989E-01    0.6176436159E+00
    0.1500000000E+08    0.6418723890E+00    0.6810065844E-01    0.4265988184E-05    0.3822133420E-01    0.6177253566E+00
    0.1700000000E+08    0.6418680955E+00    0.6802912411E-01    0.3987964183E-05    0.3822973087E-01    0.6177968034E+00
    0.1900000000E+08    0.6418640006E+00    0.6796560745E-01    0.3756150132E-05    0.3823717773E-01    0.6178602577E+00
    0.2100000000E+08    0.6418601111E+00    0.6790849574E-01    0.3559104094E-05    0.3824386785E-01    0.6179173262E+00
    0.2300000000E+08    0.6418564207E+00    0.6785661829E-01    0.3388983513E-05    0.3824994085E-01    0.6179691755E+00
    0.2500000000E+08    0.6418529178E+00    0.6780909841E-01    0.3240211149E-05    0.3825550097E-01    0.6180166791E+00
    0.2700000000E+08    0.6418495891E+00    0.6776526255E-01    0.3108698980E-05    0.3826062808E-01    0.6180605080E+00
