  Pressure (Pa) 22mC5-400 (mol/kg) 3mC6-400 (mol/kg) 33mC5-400 (mol/kg) 23mC5-400 (mol/kg) C7-400 (mol/kg)
    0.1000000000E+01    0.1593734347E-02    0.2613178595E-02    0.2572280599E-03    0.1865612250E-03    0.1017744776E-01
    0.3000000000E+01    0.4753856696E-02    0.7551972141E-02    0.7460168473E-03    0.5564853035E-03    0.2941772693E-01
    0.5000000000E+01    0.7878061036E-02    0.1214127668E-01    0.1203572590E-02    0.9222084710E-03    0.4730315774E-01
    0.7000000000E+01    0.1096698622E-01    0.1641693497E-01    0.1633045469E-02    0.1283805428E-02    0.6397246704E-01
    0.9000000000E+01    0.1402125588E-01    0.2041004983E-01    0.2037161012E-02    0.1641349095E-02    0.7954605068E-01
    0.1100000000E+02    0.1704147887E-01    0.2414774258E-01    0.2418289317E-02    0.1994910665E-02    0.9412890517E-01
    0.1300000000E+02    0.2002824971E-01    0.2765377034E-01    0.2778501216E-02    0.2344559653E-02    0.1078130142E+00
    0.1500000000E+02    0.2298214896E-01    0.3094903199E-01    0.3119614181E-02    0.2690363948E-02    0.1206793044E+00
    0.1700000000E+02    0.2590374372E-01    0.3405198545E-01    0.3443230055E-02    0.3032389858E-02    0.1327992593E+00
    0.1900000000E+02    0.2879358790E-01    0.3697899398E-01    0.3750766281E-02    0.3370702154E-02    0.1442362575E+00
    0.2100000000E+02    0.3165222271E-01    0.3974461508E-01    0.4043481867E-02    0.3705364118E-02    0.1550466906E+00
    0.2300000000E+02    0.3448017693E-01    0.4236184294E-01    0.4322499110E-02    0.4036437583E-02    0.1652809004E+00
    0.2500000000E+02    0.3727796732E-01    0.4484231281E-01    0.4588821852E-02    0.4363982974E-02    0.1749839694E+00
    0.2700000000E+02    0.4004609896E-01    0.4719647413E-01    0.4843350895E-02    0.4688059351E-02    0.1841963904E+00
    0.2900000000E+02    0.4278506553E-01    0.4943373785E-01    0.5086897079E-02    0.5008724442E-02    0.1929546363E+00
    0.3100000000E+02    0.4549534968E-01    0.5156260234E-01    0.5320192425E-02    0.5326034684E-02    0.2012916473E+00
    0.3300000000E+02    0.4817742331E-01    0.5359076137E-01    0.5543899657E-02    0.5640045257E-02    0.2092372486E+00
    0.3500000000E+02    0.5083174787E-01    0.5552519717E-01    0.5758620386E-02    0.5950810121E-02    0.2168185102E+00
    0.3700000000E+02    0.5345877466E-01    0.5737226084E-01    0.5964902162E-02    0.6258382048E-02    0.2240600583E+00
    0.3900000000E+02    0.5605894509E-01    0.5913774205E-01    0.6163244564E-02    0.6562812654E-02    0.2309843450E+00
    0.4100000000E+02    0.5863269095E-01    0.6082692981E-01    0.6354104494E-02    0.6864152430E-02    0.2376118831E+00
    0.4300000000E+02    0.6118043468E-01    0.6244466539E-01    0.6537900776E-02    0.7162450775E-02    0.2439614515E+00
    0.4500000000E+02    0.6370258964E-01    0.6399538878E-01    0.6715018176E-02    0.7457756023E-02    0.2500502744E+00
    0.4700000000E+02    0.6619956030E-01    0.6548317938E-01    0.6885810922E-02    0.7750115474E-02    0.2558941793E+00
    0.4900000000E+02    0.6867174253E-01    0.6691179192E-01    0.7050605791E-02    0.8039575417E-02    0.2615077356E+00
    0.1000000000E+02    0.1553558572E-01    0.2230926671E-01    0.2230462710E-02    0.1818623258E-02    0.8695528989E-01
    0.3000000000E+02    0.4414376317E-01    0.5051122144E-01    0.5204783165E-02    0.5167795441E-02    0.1971738636E+00
    0.5000000000E+02    0.6989865938E-01    0.6760499887E-01    0.7130849310E-02    0.8183232270E-02    0.2642323725E+00
    0.7000000000E+02    0.9322585340E-01    0.7907403248E-01    0.8483358970E-02    0.1091469874E-01    0.3093946385E+00
    0.9000000000E+02    0.1144691445E+00    0.8730188512E-01    0.9473826981E-02    0.1340239816E-01    0.3419154810E+00
    0.1100000000E+03    0.1339093050E+00    0.9349171232E-01    0.1021458714E-01    0.1567916457E-01    0.3664723810E+00
    0.1300000000E+03    0.1517779152E+00    0.9831658013E-01    0.1077301344E-01    0.1777208021E-01    0.3856853073E+00
    0.1500000000E+03    0.1682677179E+00    0.1021824896E+00    0.1119316141E-01    0.1970368609E-01    0.4011366524E+00
    0.1700000000E+03    0.1835404682E+00    0.1053489118E+00    0.1150568726E-01    0.2149289982E-01    0.4138389880E+00
    0.1900000000E+03    0.1977329572E+00    0.1079894377E+00    0.1173291172E-01    0.2315571984E-01    0.4244706027E+00
    0.2100000000E+03    0.2109616837E+00    0.1102246023E+00    0.1189163953E-01    0.2470577174E-01    0.4335030727E+00
    0.2300000000E+03    0.2233265158E+00    0.1121407204E+00    0.1199484466E-01    0.2615473626E-01    0.4412745221E+00
    0.2500000000E+03    0.2349135858E+00    0.1138012285E+00    0.1205273816E-01    0.2751268790E-01    0.4480337698E+00
    0.2700000000E+03    0.2457976005E+00    0.1152537954E+00    0.1207347788E-01    0.2878836500E-01    0.4539680263E+00
    0.2900000000E+03    0.2560436994E+00    0.1165349354E+00    0.1206365924E-01    0.2998938705E-01    0.4592208776E+00
    0.3100000000E+03    0.2657089601E+00    0.1176730910E+00    0.1202866575E-01    0.3112243069E-01    0.4639043119E+00
    0.3300000000E+03    0.2748436272E+00    0.1186907469E+00    0.1197292619E-01    0.3219337345E-01    0.4681069717E+00
    0.3500000000E+03    0.2834921218E+00    0.1196059125E+00    0.1190010743E-01    0.3320741178E-01    0.4718999462E+00
    0.3700000000E+03    0.2916938766E+00    0.1204331823E+00    0.1181326186E-01    0.3416915871E-01    0.4753409188E+00
    0.3900000000E+03    0.2994840295E+00    0.1211845087E+00    0.1171494167E-01    0.3508272494E-01    0.4784771903E+00
    0.4100000000E+03    0.3068940043E+00    0.1218697743E+00    0.1160728882E-01    0.3595178679E-01    0.4813479191E+00
    0.4300000000E+03    0.3139519989E+00    0.1224972207E+00    0.1149210654E-01    0.3677964327E-01    0.4839858036E+00
    0.4500000000E+03    0.3206833972E+00    0.1230737758E+00    0.1137091670E-01    0.3756926424E-01    0.4864183648E+00
    0.4700000000E+03    0.3271111195E+00    0.1236053055E+00    0.1124500633E-01    0.3832333139E-01    0.4886689337E+00
    0.4900000000E+03    0.3332559206E+00    0.1240968094E+00    0.1111546553E-01    0.3904427314E-01    0.4907574214E+00
    0.1000000000E+03    0.1243991249E+00    0.9060116085E-01    0.9870493716E-02    0.1456533639E-01    0.3549933464E+00
    0.3000000000E+03    0.2609456469E+00    0.1171203611E+00    0.1204901269E-01    0.3056402159E-01    0.4616277620E+00
    0.5000000000E+03    0.3362281831E+00    0.1243289158E+00    0.1104962831E-01    0.3939301906E-01    0.4917463235E+00
    0.7000000000E+03    0.3845905484E+00    0.1276469569E+00    0.9702810161E-02    0.4507005556E-01    0.5061217395E+00
    0.9000000000E+03    0.4184521668E+00    0.1295337321E+00    0.8482757399E-02    0.4904846717E-01    0.5145936309E+00
    0.1100000000E+04    0.4435240699E+00    0.1307392053E+00    0.7459435374E-02    0.5199677123E-01    0.5202032489E+00
    0.1300000000E+04    0.4628400849E+00    0.1315686506E+00    0.6616095659E-02    0.5427020884E-01    0.5242044408E+00
    0.1500000000E+04    0.4781741053E+00    0.1321694165E+00    0.5920825189E-02    0.5607655529E-01    0.5272099447E+00
    0.1700000000E+04    0.4906369640E+00    0.1326212106E+00    0.5343785913E-02    0.5754596182E-01    0.5295552619E+00
    0.1900000000E+04    0.5009612199E+00    0.1329708385E+00    0.4860622048E-02    0.5876428516E-01    0.5314397736E+00
    0.2100000000E+04    0.5096500167E+00    0.1332475466E+00    0.4452268066E-02    0.5979051217E-01    0.5329895470E+00
    0.2300000000E+04    0.5170605015E+00    0.1334705224E+00    0.4103974717E-02    0.6066652611E-01    0.5342882673E+00
    0.2500000000E+04    0.5234532127E+00    0.1336528581E+00    0.3804329370E-02    0.6142288991E-01    0.5353937088E+00
    0.2700000000E+04    0.5290226562E+00    0.1338037813E+00    0.3544452649E-02    0.6208242724E-01    0.5363470693E+00
    0.2900000000E+04    0.5339169506E+00    0.1339299742E+00    0.3317381991E-02    0.6266252377E-01    0.5371785338E+00
    0.3100000000E+04    0.5382508517E+00    0.1340363893E+00    0.3117609978E-02    0.6317665310E-01    0.5379107351E+00
    0.3300000000E+04    0.5421146239E+00    0.1341267703E+00    0.2940741036E-02    0.6363541644E-01    0.5385609845E+00
    0.3500000000E+04    0.5455802259E+00    0.1342039970E+00    0.2783235883E-02    0.6404726752E-01    0.5391427547E+00
    0.3700000000E+04    0.5487057145E+00    0.1342703184E+00    0.2642220375E-02    0.6441902893E-01    0.5396666916E+00
    0.3900000000E+04    0.5515384372E+00    0.1343275146E+00    0.2515341498E-02    0.6475626634E-01    0.5401413217E+00
    0.4100000000E+04    0.5541173850E+00    0.1343770117E+00    0.2400658047E-02    0.6506356450E-01    0.5405735571E+00
    0.4300000000E+04    0.5564749525E+00    0.1344199644E+00    0.2296556914E-02    0.6534473362E-01    0.5409690615E+00
    0.4500000000E+04    0.5586382714E+00    0.1344573169E+00    0.2201688477E-02    0.6560296586E-01    0.5413325215E+00
    0.4700000000E+04    0.5606302346E+00    0.1344898478E+00    0.2114916307E-02    0.6584095544E-01    0.5416678495E+00
    0.4900000000E+04    0.5624702901E+00    0.1345182049E+00    0.2035277712E-02    0.6606099183E-01    0.5419783381E+00
    0.1000000000E+04    0.4318571593E+00    0.1301970877E+00    0.7946804474E-02    0.5062449185E-01    0.5176557507E+00
    0.3000000000E+04    0.5361478177E+00    0.1339853964E+00    0.3214381077E-02    0.6292711416E-01    0.5375558558E+00
    0.5000000000E+04    0.5633386438E+00    0.1345309912E+00    0.1997872357E-02    0.6616490067E-01    0.5421251569E+00
    0.7000000000E+04    0.5757284183E+00    0.1346621110E+00    0.1477576595E-02    0.6765375070E-01    0.5442550113E+00
    0.9000000000E+04    0.5827922670E+00    0.1346763108E+00    0.1192784637E-02    0.6851031113E-01    0.5455232200E+00
    0.1100000000E+05    0.5873495413E+00    0.1346475239E+00    0.1013330664E-02    0.6906791625E-01    0.5463813506E+00
    0.1300000000E+05    0.5905305424E+00    0.1346011919E+00    0.8895718281E-03    0.6946062172E-01    0.5470096201E+00
    0.1500000000E+05    0.5928755967E+00    0.1345477427E+00    0.7987286714E-03    0.6975270965E-01    0.5474948394E+00
    0.1700000000E+05    0.5946752440E+00    0.1344919166E+00    0.7289455728E-03    0.6997885166E-01    0.5478842993E+00
    0.1900000000E+05    0.5960995134E+00    0.1344359998E+00    0.6734612190E-03    0.7015940031E-01    0.5482061121E+00
    0.2100000000E+05    0.5972544882E+00    0.1343811214E+00    0.6281420668E-03    0.7030709257E-01    0.5484781177E+00
    0.2300000000E+05    0.5982097622E+00    0.1343278296E+00    0.5903192467E-03    0.7043030972E-01    0.5487122282E+00
    0.2500000000E+05    0.5990128757E+00    0.1342763683E+00    0.5581920310E-03    0.7053479449E-01    0.5489167281E+00
    0.2700000000E+05    0.5996974041E+00    0.1342268183E+00    0.5305006279E-03    0.7062461496E-01    0.5490975745E+00
    0.2900000000E+05    0.6002877315E+00    0.1341791717E+00    0.5063365615E-03    0.7070273452E-01    0.5492591719E+00
    0.3100000000E+05    0.6008019923E+00    0.1341333735E+00    0.4850276290E-03    0.7077136366E-01    0.5494048548E+00
    0.3300000000E+05    0.6012539518E+00    0.1340893444E+00    0.4660653396E-03    0.7083218535E-01    0.5495371989E+00
    0.3500000000E+05    0.6016542463E+00    0.1340469944E+00    0.4490575967E-03    0.7088650393E-01    0.5496582296E+00
    0.3700000000E+05    0.6020112240E+00    0.1340062301E+00    0.4336969358E-03    0.7093534618E-01    0.5497695636E+00
    0.3900000000E+05    0.6023315284E+00    0.1339669592E+00    0.4197386589E-03    0.7097953167E-01    0.5498725093E+00
    0.4100000000E+05    0.6026205120E+00    0.1339290927E+00    0.4069854396E-03    0.7101972268E-01    0.5499681387E+00
    0.4300000000E+05    0.6028825352E+00    0.1338925463E+00    0.3952762680E-03    0.7105646033E-01    0.5500573391E+00
    0.4500000000E+05    0.6031211860E+00    0.1338572408E+00    0.3844783679E-03    0.7109019121E-01    0.5501408527E+00
    0.4700000000E+05    0.6033394434E+00    0.1338231023E+00    0.3744811934E-03    0.7112128722E-01    0.5502193053E+00
    0.4900000000E+05    0.6035398014E+00    0.1337900624E+00    0.3651919035E-03    0.7115006061E-01    0.5502932291E+00
    0.1000000000E+05    0.5852930754E+00    0.1346651588E+00    0.1093940571E-02    0.6881568135E-01    0.5459890295E+00
    0.3000000000E+05    0.6005534244E+00    0.1341560461E+00    0.4953601726E-03    0.7073811987E-01    0.5493338267E+00
    0.5000000000E+05    0.6036339387E+00    0.1337739342E+00    0.3607876760E-03    0.7116366050E-01    0.5503286378E+00
    0.7000000000E+05    0.6049487083E+00    0.1334959361E+00    0.2958729813E-03    0.7136065322E-01    0.5508818149E+00
    0.9000000000E+05    0.6056747354E+00    0.1332787258E+00    0.2560857480E-03    0.7147794078E-01    0.5512575321E+00
    0.1100000000E+06    0.6061336268E+00    0.1331007195E+00    0.2285901003E-03    0.7155750652E-01    0.5515394974E+00
    0.1300000000E+06    0.6064490358E+00    0.1329499950E+00    0.2081609523E-03    0.7161597918E-01    0.5517641063E+00
    0.1500000000E+06    0.6066786027E+00    0.1328193253E+00    0.1922266167E-03    0.7166133392E-01    0.5519502392E+00
    0.1700000000E+06    0.6068527966E+00    0.1327040111E+00    0.1793571792E-03    0.7169790413E-01    0.5521088749E+00
    0.1900000000E+06    0.6069892271E+00    0.1326008283E+00    0.1686866257E-03    0.7172826219E-01    0.5522469308E+00
    0.2100000000E+06    0.6070987746E+00    0.1325074705E+00    0.1596561192E-03    0.7175403949E-01    0.5523690332E+00
    0.2300000000E+06    0.6071885211E+00    0.1324222313E+00    0.1518869289E-03    0.7177632527E-01    0.5524784217E+00
    0.2500000000E+06    0.6072632723E+00    0.1323438128E+00    0.1451121630E-03    0.7179587731E-01    0.5525774494E+00
    0.2700000000E+06    0.6073264027E+00    0.1322712054E+00    0.1391376531E-03    0.7181324086E-01    0.5526678779E+00
    0.2900000000E+06    0.6073803505E+00    0.1322036079E+00    0.1338183438E-03    0.7182881942E-01    0.5527510582E+00
    0.3100000000E+06    0.6074269209E+00    0.1321403742E+00    0.1290434149E-03    0.7184291876E-01    0.5528280492E+00
    0.3300000000E+06    0.6074674780E+00    0.1320809754E+00    0.1247265610E-03    0.7185577539E-01    0.5528996951E+00
    0.3500000000E+06    0.6075030719E+00    0.1320249734E+00    0.1207994420E-03    0.7186757549E-01    0.5529666801E+00
    0.3700000000E+06    0.6075345237E+00    0.1319720010E+00    0.1172071511E-03    0.7187846789E-01    0.5530295655E+00
    0.3900000000E+06    0.6075624843E+00    0.1319217475E+00    0.1139050043E-03    0.7188857324E-01    0.5530888180E+00
    0.4100000000E+06    0.6075874767E+00    0.1318739477E+00    0.1108562206E-03    0.7189799049E-01    0.5531448293E+00
    0.4300000000E+06    0.6076099251E+00    0.1318283734E+00    0.1080302133E-03    0.7190680172E-01    0.5531979315E+00
    0.4500000000E+06    0.6076301779E+00    0.1317848267E+00    0.1054013127E-03    0.7191507563E-01    0.5532484084E+00
    0.4700000000E+06    0.6076485231E+00    0.1317431350E+00    0.1029477953E-03    0.7192287030E-01    0.5532965045E+00
    0.4900000000E+06    0.6076652012E+00    0.1317031470E+00    0.1006511386E-03    0.7193023517E-01    0.5533424318E+00
    0.1000000000E+06    0.6059275238E+00    0.1331857153E+00    0.2412199195E-03    0.7152109764E-01    0.5514073633E+00
    0.3000000000E+06    0.6074044640E+00    0.1321714810E+00    0.1313687117E-03    0.7183603784E-01    0.5527902703E+00
    0.5000000000E+06    0.6076729797E+00    0.1316837495E+00    0.9955657402E-04    0.7193376992E-01    0.5533646409E+00
    0.7000000000E+06    0.6077765796E+00    0.1313597271E+00    0.8300403054E-04    0.7198962513E-01    0.5537296778E+00
    0.9000000000E+06    0.6078276844E+00    0.1311167710E+00    0.7248200878E-04    0.7202829307E-01    0.5539972356E+00
    0.1100000000E+07    0.6078560567E+00    0.1309223582E+00    0.6505420472E-04    0.7205772705E-01    0.5542083354E+00
    0.1300000000E+07    0.6078728013E+00    0.1307603015E+00    0.5945840942E-04    0.7208143413E-01    0.5543826012E+00
    0.1500000000E+07    0.6078829402E+00    0.1306213633E+00    0.5505133556E-04    0.7210125568E-01    0.5545309433E+00
    0.1700000000E+07    0.6078890465E+00    0.1304997713E+00    0.5146651139E-04    0.7211827365E-01    0.5546600529E+00
    0.1900000000E+07    0.6078925603E+00    0.1303916768E+00    0.4847798837E-04    0.7213317602E-01    0.5547743287E+00
    0.2100000000E+07    0.6078943421E+00    0.1302943844E+00    0.4593795680E-04    0.7214642655E-01    0.5548768168E+00
    0.2300000000E+07    0.6078949326E+00    0.1302059331E+00    0.4374515913E-04    0.7215835238E-01    0.5549697133E+00
    0.2500000000E+07    0.6078946858E+00    0.1301248516E+00    0.4182761557E-04    0.7216919263E-01    0.5550546536E+00
    0.2700000000E+07    0.6078938407E+00    0.1300500077E+00    0.4013258309E-04    0.7217912735E-01    0.5551328882E+00
    0.2900000000E+07    0.6078925634E+00    0.1299805113E+00    0.3862042265E-04    0.7218829537E-01    0.5552053946E+00
    0.3100000000E+07    0.6078909718E+00    0.1299156505E+00    0.3726069628E-04    0.7219680599E-01    0.5552729514E+00
    0.3300000000E+07    0.6078891511E+00    0.1298548463E+00    0.3602959570E-04    0.7220474679E-01    0.5553361888E+00
    0.3500000000E+07    0.6078871639E+00    0.1297976219E+00    0.3490819720E-04    0.7221218896E-01    0.5553956238E+00
    0.3700000000E+07    0.6078850568E+00    0.1297435800E+00    0.3388124643E-04    0.7221919120E-01    0.5554516863E+00
    0.3900000000E+07    0.6078828648E+00    0.1296923857E+00    0.3293629310E-04    0.7222580243E-01    0.5555047369E+00
    0.4100000000E+07    0.6078806147E+00    0.1296437546E+00    0.3206306233E-04    0.7223206388E-01    0.5555550816E+00
    0.4300000000E+07    0.6078783268E+00    0.1295974427E+00    0.3125299002E-04    0.7223801059E-01    0.5556029820E+00
    0.4500000000E+07    0.6078760167E+00    0.1295532391E+00    0.3049887382E-04    0.7224367259E-01    0.5556486637E+00
    0.4700000000E+07    0.6078736968E+00    0.1295109608E+00    0.2979460734E-04    0.7224907583E-01    0.5556923223E+00
    0.4900000000E+07    0.6078713762E+00    0.1294704472E+00    0.2913497501E-04    0.7225424287E-01    0.5557341289E+00
    0.1000000000E+07    0.6078438026E+00    0.1310147353E+00    0.6848131505E-04    0.7204388868E-01    0.5541083282E+00
    0.3000000000E+07    0.6078918010E+00    0.1299475404E+00    0.3792312501E-04    0.7219262695E-01    0.5552397493E+00
    0.5000000000E+07    0.6078702181E+00    0.1294508075E+00    0.2882047024E-04    0.7225674408E-01    0.5557543852E+00
    0.7000000000E+07    0.6078481121E+00    0.1291238289E+00    0.2405490538E-04    0.7229808420E-01    0.5560907467E+00
    0.9000000000E+07    0.6078287189E+00    0.1288797865E+00    0.2101741155E-04    0.7232863974E-01    0.5563408615E+00
    0.1100000000E+08    0.6078118486E+00    0.1286850581E+00    0.1886996327E-04    0.7235288519E-01    0.5565399695E+00
    0.1300000000E+08    0.6077970282E+00    0.1285230536E+00    0.1725065087E-04    0.7237298451E-01    0.5567053481E+00
    0.1500000000E+08    0.6077838520E+00    0.1283843581E+00    0.1597451619E-04    0.7239015018E-01    0.5568467612E+00
    0.1700000000E+08    0.6077720081E+00    0.1282631117E+00    0.1493599784E-04    0.7240513022E-01    0.5569702674E+00
    0.1900000000E+08    0.6077612596E+00    0.1281554184E+00    0.1406992696E-04    0.7241841870E-01    0.5570798852E+00
    0.2100000000E+08    0.6077514249E+00    0.1280585564E+00    0.1333363038E-04    0.7243035912E-01    0.5571784170E+00
    0.2300000000E+08    0.6077423629E+00    0.1279705490E+00    0.1269785273E-04    0.7244119991E-01    0.5572678951E+00
    0.2500000000E+08    0.6077339623E+00    0.1278899154E+00    0.1214178520E-04    0.7245112661E-01    0.5573498398E+00
    0.2700000000E+08    0.6077261337E+00    0.1278155174E+00    0.1165017282E-04    0.7246028146E-01    0.5574254184E+00
