  Pressure (Pa) 22mC5-400 (mol/kg) 3mC6-400 (mol/kg) 33mC5-400 (mol/kg) 23mC5-400 (mol/kg) C7-400 (mol/kg)
    0.1000000000E+01    0.1594153961E-02    0.2594256201E-02    0.1278830228E-03    0.9330515493E-04    0.1515616988E-01
    0.3000000000E+01    0.4757585894E-02    0.7396016422E-02    0.3670452333E-03    0.2784607667E-03    0.4321984610E-01
    0.5000000000E+01    0.7888290799E-02    0.1174304709E-01    0.5867144857E-03    0.4617025604E-03    0.6863907233E-01
    0.7000000000E+01    0.1098678797E-01    0.1569692752E-01    0.7895487481E-03    0.6430608953E-03    0.9177137926E-01
    0.9000000000E+01    0.1405358568E-01    0.1930860227E-01    0.9777326596E-03    0.8225654870E-03    0.1129126015E+00
    0.1100000000E+02    0.1708918152E-01    0.2262058154E-01    0.1153077634E-02    0.1000245425E-02    0.1323096365E+00
    0.1300000000E+02    0.2009406262E-01    0.2566861699E-01    0.1317097762E-02    0.1176129190E-02    0.1501701634E+00
    0.1500000000E+02    0.2306870597E-01    0.2848299332E-01    0.1471068047E-02    0.1350244667E-02    0.1666701333E+00
    0.1700000000E+02    0.2601357865E-01    0.3108953458E-01    0.1616069565E-02    0.1522619163E-02    0.1819596066E+00
    0.1900000000E+02    0.2892913811E-01    0.3351039612E-01    0.1753024847E-02    0.1693279422E-02    0.1961673468E+00
    0.2100000000E+02    0.3181583239E-01    0.3576469365E-01    0.1882725836E-02    0.1862251639E-02    0.2094044701E+00
    0.2300000000E+02    0.3467410039E-01    0.3786900710E-01    0.2005856187E-02    0.2029561472E-02    0.2217673691E+00
    0.2500000000E+02    0.3750437207E-01    0.3983778758E-01    0.2123009177E-02    0.2195234060E-02    0.2333400733E+00
    0.2700000000E+02    0.4030706870E-01    0.4168368831E-01    0.2234702206E-02    0.2359294031E-02    0.2441961710E+00
    0.2900000000E+02    0.4308260308E-01    0.4341783574E-01    0.2341388611E-02    0.2521765519E-02    0.2544003815E+00
    0.3100000000E+02    0.4583137972E-01    0.4505005308E-01    0.2443467361E-02    0.2682672174E-02    0.2640098532E+00
    0.3300000000E+02    0.4855379510E-01    0.4658904558E-01    0.2541291053E-02    0.2842037175E-02    0.2730752394E+00
    0.3500000000E+02    0.5125023780E-01    0.4804255520E-01    0.2635172547E-02    0.2999883241E-02    0.2816415956E+00
    0.3700000000E+02    0.5392108876E-01    0.4941749021E-01    0.2725390505E-02    0.3156232644E-02    0.2897491322E+00
    0.3900000000E+02    0.5656672144E-01    0.5072003444E-01    0.2812194027E-02    0.3311107216E-02    0.2974338492E+00
    0.4100000000E+02    0.5918750198E-01    0.5195573980E-01    0.2895806568E-02    0.3464528366E-02    0.3047280731E+00
    0.4300000000E+02    0.6178378942E-01    0.5312960498E-01    0.2976429241E-02    0.3616517084E-02    0.3116609142E+00
    0.4500000000E+02    0.6435593585E-01    0.5424614266E-01    0.3054243631E-02    0.3767093954E-02    0.3182586569E+00
    0.4700000000E+02    0.6690428656E-01    0.5530943715E-01    0.3129414191E-02    0.3916279166E-02    0.3245450946E+00
    0.4900000000E+02    0.6942918023E-01    0.5632319405E-01    0.3202090303E-02    0.4064092521E-02    0.3305418180E+00
    0.1000000000E+02    0.1557525314E-01    0.2099967769E-01    0.1066909170E-02    0.9116317437E-03    0.1228153403E+00
    0.3000000000E+02    0.4446031115E-01    0.4424611734E-01    0.2392980903E-02    0.2602412991E-02    0.2592761529E+00
    0.5000000000E+02    0.7068293475E-01    0.5681256102E-01    0.3237535940E-02    0.4137490836E-02    0.3334377438E+00
    0.7000000000E+02    0.9460429800E-01    0.6467436208E-01    0.3842923280E-02    0.5537981377E-02    0.3800822907E+00
    0.9000000000E+02    0.1165225383E+00    0.7005112944E-01    0.4300403674E-02    0.6821315763E-02    0.4121531921E+00
    0.1100000000E+03    0.1366859355E+00    0.7395654460E-01    0.4654543035E-02    0.8002010559E-02    0.4355720973E+00
    0.1300000000E+03    0.1553029255E+00    0.7691929395E-01    0.4931245753E-02    0.9092253047E-02    0.4534329126E+00
    0.1500000000E+03    0.1725497981E+00    0.7924207903E-01    0.5147457689E-02    0.1010235123E-01    0.4675102086E+00
    0.1700000000E+03    0.1885766800E+00    0.8111067138E-01    0.5315181640E-02    0.1104108355E-01    0.4788950002E+00
    0.1900000000E+03    0.2035122316E+00    0.8264538080E-01    0.5443385739E-02    0.1191597344E-01    0.4882951176E+00
    0.2100000000E+03    0.2174673672E+00    0.8392754209E-01    0.5539018405E-02    0.1273350683E-01    0.4961899457E+00
    0.2300000000E+03    0.2305382286E+00    0.8501410664E-01    0.5607600554E-02    0.1349930594E-01    0.5029157608E+00
    0.2500000000E+03    0.2428085796E+00    0.8594613688E-01    0.5653598374E-02    0.1421826929E-01    0.5087154602E+00
    0.2700000000E+03    0.2543517493E+00    0.8675398189E-01    0.5680672796E-02    0.1489468530E-01    0.5137688952E+00
    0.2900000000E+03    0.2652322199E+00    0.8746055440E-01    0.5691854754E-02    0.1553232510E-01    0.5182120963E+00
    0.3100000000E+03    0.2755069331E+00    0.8808347470E-01    0.5689673100E-02    0.1613451893E-01    0.5221498647E+00
    0.3300000000E+03    0.2852263701E+00    0.8863651364E-01    0.5676250798E-02    0.1670421928E-01    0.5256642561E+00
    0.3500000000E+03    0.2944354518E+00    0.8913058811E-01    0.5653378979E-02    0.1724405347E-01    0.5288204397E+00
    0.3700000000E+03    0.3031742913E+00    0.8957446298E-01    0.5622575021E-02    0.1775636773E-01    0.5316708345E+00
    0.3900000000E+03    0.3114788269E+00    0.8997525567E-01    0.5585128781E-02    0.1824326415E-01    0.5342580846E+00
    0.4100000000E+03    0.3193813579E+00    0.9033880526E-01    0.5542139837E-02    0.1870663202E-01    0.5366172397E+00
    0.4300000000E+03    0.3269109989E+00    0.9066994665E-01    0.5494547797E-02    0.1914817439E-01    0.5387773748E+00
    0.4500000000E+03    0.3340940674E+00    0.9097271712E-01    0.5443157161E-02    0.1956943074E-01    0.5407628132E+00
    0.4700000000E+03    0.3409544159E+00    0.9125051399E-01    0.5388657866E-02    0.1997179640E-01    0.5425940603E+00
    0.4900000000E+03    0.3475137178E+00    0.9150621632E-01    0.5331642365E-02    0.2035653927E-01    0.5442885250E+00
    0.1000000000E+03    0.1268097310E+00    0.7214748689E-01    0.4488490742E-02    0.7423682648E-02    0.4247086082E+00
    0.3000000000E+03    0.2704420011E+00    0.8778153357E-01    0.5692293139E-02    0.1583766004E-01    0.5202385768E+00
    0.5000000000E+03    0.3506867147E+00    0.9162656382E-01    0.5302353086E-02    0.2054266710E-01    0.5450891991E+00
    0.7000000000E+03    0.4023115251E+00    0.9331486653E-01    0.4675183278E-02    0.2357228087E-01    0.5566041888E+00
    0.9000000000E+03    0.4384189959E+00    0.9424136898E-01    0.4081689258E-02    0.2569310749E-01    0.5632744538E+00
    0.1100000000E+04    0.4651201766E+00    0.9481491121E-01    0.3574007549E-02    0.2726280003E-01    0.5676382844E+00
    0.1300000000E+04    0.4856729018E+00    0.9519774976E-01    0.3151289231E-02    0.2847208239E-01    0.5707221767E+00
    0.1500000000E+04    0.5019808982E+00    0.9546672157E-01    0.2800852958E-02    0.2943243798E-01    0.5730211969E+00
    0.1700000000E+04    0.5152338594E+00    0.9566274294E-01    0.2509198687E-02    0.3021355670E-01    0.5748037516E+00
    0.1900000000E+04    0.5262144946E+00    0.9580951398E-01    0.2264740768E-02    0.3086130161E-01    0.5762281016E+00
    0.2100000000E+04    0.5354591961E+00    0.9592166155E-01    0.2058164849E-02    0.3140711204E-01    0.5773936654E+00
    0.2300000000E+04    0.5433479815E+00    0.9600867207E-01    0.1882146063E-02    0.3187326829E-01    0.5783660729E+00
    0.2500000000E+04    0.5501576376E+00    0.9607694853E-01    0.1730954368E-02    0.3227600301E-01    0.5791904150E+00
    0.2700000000E+04    0.5560945437E+00    0.9613095681E-01    0.1600097524E-02    0.3262742322E-01    0.5798987065E+00
    0.2900000000E+04    0.5613157111E+00    0.9617389841E-01    0.1486033749E-02    0.3293674247E-01    0.5805143137E+00
    0.3100000000E+04    0.5659427008E+00    0.9620812248E-01    0.1385950330E-02    0.3321109612E-01    0.5810546948E+00
    0.3300000000E+04    0.5700710837E+00    0.9623538758E-01    0.1297595875E-02    0.3345609559E-01    0.5815331599E+00
    0.3500000000E+04    0.5737770261E+00    0.9625703327E-01    0.1219153793E-02    0.3367621427E-01    0.5819600366E+00
    0.3700000000E+04    0.5771219699E+00    0.9627409557E-01    0.1149146711E-02    0.3387506179E-01    0.5823434626E+00
    0.3900000000E+04    0.5801560218E+00    0.9628738656E-01    0.1086363945E-02    0.3405558269E-01    0.5826899385E+00
    0.4100000000E+04    0.5829204478E+00    0.9629755047E-01    0.1029806104E-02    0.3422020270E-01    0.5830047210E+00
    0.4300000000E+04    0.5854495379E+00    0.9630510384E-01    0.9786424891E-03    0.3437093805E-01    0.5832921071E+00
    0.4500000000E+04    0.5877720176E+00    0.9631046482E-01    0.9321780838E-03    0.3450947828E-01    0.5835556449E+00
    0.4700000000E+04    0.5899121314E+00    0.9631397484E-01    0.8898277864E-03    0.3463724976E-01    0.5837982899E+00
    0.4900000000E+04    0.5918904818E+00    0.9631591491E-01    0.8510961445E-03    0.3475546496E-01    0.5840225244E+00
    0.1000000000E+04    0.4526987717E+00    0.9455914289E-01    0.3816658426E-02    0.2653241000E-01    0.5656620915E+00
    0.3000000000E+04    0.5636969842E+00    0.9619197873E-01    0.1434396707E-02    0.3307790874E-01    0.5807929943E+00
    0.5000000000E+04    0.5928246031E+00    0.9631637061E-01    0.8329529838E-03    0.3481131903E-01    0.5841284069E+00
    0.7000000000E+04    0.6061938883E+00    0.9628287640E-01    0.5847289280E-03    0.3561396077E-01    0.5856526596E+00
    0.9000000000E+04    0.6138590389E+00    0.9621613470E-01    0.4535150649E-03    0.3607815039E-01    0.5865485722E+00
    0.1100000000E+05    0.6188260100E+00    0.9614305522E-01    0.3734311040E-03    0.3638153131E-01    0.5871491827E+00
    0.1300000000E+05    0.6223053810E+00    0.9607127969E-01    0.3197643533E-03    0.3659586234E-01    0.5875858643E+00
    0.1500000000E+05    0.6248780989E+00    0.9600311433E-01    0.2813697706E-03    0.3675568263E-01    0.5879213214E+00
    0.1700000000E+05    0.6268575742E+00    0.9593911408E-01    0.2525458160E-03    0.3687968052E-01    0.5881894548E+00
    0.1900000000E+05    0.6284277379E+00    0.9587921496E-01    0.2300947899E-03    0.3697885575E-01    0.5884102878E+00
    0.2100000000E+05    0.6297036277E+00    0.9582313896E-01    0.2120929585E-03    0.3706010810E-01    0.5885964564E+00
    0.2300000000E+05    0.6307608741E+00    0.9577054931E-01    0.1973171967E-03    0.3712798693E-01    0.5887563570E+00
    0.2500000000E+05    0.6316512402E+00    0.9572111132E-01    0.1849542516E-03    0.3718561492E-01    0.5888958038E+00
    0.2700000000E+05    0.6324113462E+00    0.9567451508E-01    0.1744430489E-03    0.3723520761E-01    0.5890189616E+00
    0.2900000000E+05    0.6330678290E+00    0.9563048233E-01    0.1653843061E-03    0.3727838118E-01    0.5891288992E+00
    0.3100000000E+05    0.6336405265E+00    0.9558876663E-01    0.1574862801E-03    0.3731634272E-01    0.5892279323E+00
    0.3300000000E+05    0.6341445167E+00    0.9554915105E-01    0.1505309027E-03    0.3735001230E-01    0.5893178452E+00
    0.3500000000E+05    0.6345914643E+00    0.9551144485E-01    0.1443519204E-03    0.3738010377E-01    0.5894000367E+00
    0.3700000000E+05    0.6349905348E+00    0.9547548024E-01    0.1388203635E-03    0.3740717959E-01    0.5894756212E+00
    0.3900000000E+05    0.6353490300E+00    0.9544110930E-01    0.1338346378E-03    0.3743168912E-01    0.5895454986E+00
    0.4100000000E+05    0.6356728384E+00    0.9540820126E-01    0.1293136121E-03    0.3745399579E-01    0.5896104046E+00
    0.4300000000E+05    0.6359667616E+00    0.9537664014E-01    0.1251916987E-03    0.3747439676E-01    0.5896709473E+00
    0.4500000000E+05    0.6362347540E+00    0.9534632275E-01    0.1214152868E-03    0.3749313745E-01    0.5897276342E+00
    0.4700000000E+05    0.6364801018E+00    0.9531715696E-01    0.1179401161E-03    0.3751042238E-01    0.5897808929E+00
    0.4900000000E+05    0.6367055582E+00    0.9528906022E-01    0.1147293123E-03    0.3752642337E-01    0.5898310862E+00
    0.1000000000E+05    0.6165822790E+00    0.9617970922E-01    0.4091070341E-03    0.3624416600E-01    0.5868751810E+00
    0.3000000000E+05    0.6333636154E+00    0.9560934906E-01    0.1613052589E-03    0.3729795032E-01    0.5891796568E+00
    0.5000000000E+05    0.6368115679E+00    0.9527538926E-01    0.1132131706E-03    0.3753398873E-01    0.5898551323E+00
    0.7000000000E+05    0.6382986739E+00    0.9504351723E-01    0.9132316638E-04    0.3764375457E-01    0.5902313899E+00
    0.9000000000E+05    0.6391270646E+00    0.9486613781E-01    0.7831839484E-04    0.3770928130E-01    0.5904880108E+00
    0.1100000000E+06    0.6396548447E+00    0.9472255825E-01    0.6950346624E-04    0.3775381224E-01    0.5906814549E+00
    0.1300000000E+06    0.6400203580E+00    0.9460197854E-01    0.6303932413E-04    0.3778657958E-01    0.5908361973E+00
    0.1500000000E+06    0.6402883501E+00    0.9449805850E-01    0.5804475937E-04    0.3781202006E-01    0.5909649246E+00
    0.1700000000E+06    0.6404931675E+00    0.9440676067E-01    0.5403938336E-04    0.3783254820E-01    0.5910750163E+00
    0.1900000000E+06    0.6406547253E+00    0.9432535599E-01    0.5073662902E-04    0.3784959912E-01    0.5911711266E+00
    0.2100000000E+06    0.6407853665E+00    0.9425191375E-01    0.4795377780E-04    0.3786408391E-01    0.5912563721E+00
    0.2300000000E+06    0.6408931482E+00    0.9418501792E-01    0.4556819445E-04    0.3787661142E-01    0.5913329388E+00
    0.2500000000E+06    0.6409835532E+00    0.9412359917E-01    0.4349414692E-04    0.3788760555E-01    0.5914024169E+00
    0.2700000000E+06    0.6410604422E+00    0.9406683027E-01    0.4166968089E-04    0.3789737153E-01    0.5914659989E+00
    0.2900000000E+06    0.6411266121E+00    0.9401405817E-01    0.4004877602E-04    0.3790613534E-01    0.5915246009E+00
    0.3100000000E+06    0.6411841387E+00    0.9396475825E-01    0.3859644538E-04    0.3791406834E-01    0.5915789422E+00
    0.3300000000E+06    0.6412345951E+00    0.9391850281E-01    0.3728555732E-04    0.3792130314E-01    0.5916295970E+00
    0.3500000000E+06    0.6412791950E+00    0.9387493851E-01    0.3609470787E-04    0.3792794414E-01    0.5916770315E+00
    0.3700000000E+06    0.6413188899E+00    0.9383377014E-01    0.3500675673E-04    0.3793407488E-01    0.5917216289E+00
    0.3900000000E+06    0.6413544361E+00    0.9379474849E-01    0.3400779569E-04    0.3793976305E-01    0.5917637080E+00
    0.4100000000E+06    0.6413864424E+00    0.9375766130E-01    0.3308640621E-04    0.3794506423E-01    0.5918035371E+00
    0.4300000000E+06    0.6414154044E+00    0.9372232628E-01    0.3223311510E-04    0.3795002449E-01    0.5918413436E+00
    0.4500000000E+06    0.6414417293E+00    0.9368858573E-01    0.3143998885E-04    0.3795468246E-01    0.5918773225E+00
    0.4700000000E+06    0.6414657554E+00    0.9365630231E-01    0.3070032659E-04    0.3795907075E-01    0.5919116418E+00
    0.4900000000E+06    0.6414877652E+00    0.9362535569E-01    0.3000842474E-04    0.3796321716E-01    0.5919444473E+00
    0.1000000000E+06    0.6394173002E+00    0.9479094138E-01    0.7353566698E-04    0.3773342704E-01    0.5905906989E+00
    0.3000000000E+06    0.6411563477E+00    0.9398900289E-01    0.3930338985E-04    0.3791019664E-01    0.5915522653E+00
    0.5000000000E+06    0.6414980901E+00    0.9361035004E-01    0.2967882845E-04    0.3796520724E-01    0.5919603229E+00
    0.7000000000E+06    0.6416408198E+00    0.9336022198E-01    0.2470610580E-04    0.3799665360E-01    0.5922223336E+00
    0.9000000000E+06    0.6417177651E+00    0.9317324294E-01    0.2155529085E-04    0.3801841946E-01    0.5924156066E+00
    0.1100000000E+07    0.6417651235E+00    0.9302391652E-01    0.1933520400E-04    0.3803498291E-01    0.5925687806E+00
    0.1300000000E+07    0.6417967416E+00    0.9289961680E-01    0.1766473917E-04    0.3804831971E-01    0.5926956541E+00
    0.1500000000E+07    0.6418190398E+00    0.9279316276E-01    0.1635028075E-04    0.3805946749E-01    0.5928039407E+00
    0.1700000000E+07    0.6418353925E+00    0.9270007813E-01    0.1528176664E-04    0.3806903600E-01    0.5928983916E+00
    0.1900000000E+07    0.6418477380E+00    0.9261738368E-01    0.1439144435E-04    0.3807741296E-01    0.5929821415E+00
    0.2100000000E+07    0.6418572663E+00    0.9254299630E-01    0.1363504485E-04    0.3808485974E-01    0.5930573677E+00
    0.2300000000E+07    0.6418647467E+00    0.9247540223E-01    0.1298227003E-04    0.3809156067E-01    0.5931256441E+00
    0.2500000000E+07    0.6418706972E+00    0.9241346686E-01    0.1241159861E-04    0.3809765049E-01    0.5931881455E+00
    0.2700000000E+07    0.6418754790E+00    0.9235631785E-01    0.1190727084E-04    0.3810323062E-01    0.5932457717E+00
    0.2900000000E+07    0.6418793512E+00    0.9230327007E-01    0.1145744877E-04    0.3810837930E-01    0.5932992278E+00
    0.3100000000E+07    0.6418825037E+00    0.9225377561E-01    0.1105304639E-04    0.3811315807E-01    0.5933490759E+00
    0.3300000000E+07    0.6418850792E+00    0.9220738943E-01    0.1068695951E-04    0.3811761626E-01    0.5933957717E+00
    0.3500000000E+07    0.6418871862E+00    0.9216374513E-01    0.1035354337E-04    0.3812179396E-01    0.5934396898E+00
    0.3700000000E+07    0.6418889092E+00    0.9212253745E-01    0.1004824913E-04    0.3812572423E-01    0.5934811417E+00
    0.3900000000E+07    0.6418903142E+00    0.9208350939E-01    0.9767365111E-05    0.3812943461E-01    0.5935203893E+00
    0.4100000000E+07    0.6418914539E+00    0.9204644255E-01    0.9507828915E-05    0.3813294830E-01    0.5935576549E+00
    0.4300000000E+07    0.6418923707E+00    0.9201114976E-01    0.9267088579E-05    0.3813628503E-01    0.5935931287E+00
    0.4500000000E+07    0.6418930989E+00    0.9197746941E-01    0.9042998352E-05    0.3813946170E-01    0.5936269751E+00
    0.4700000000E+07    0.6418936666E+00    0.9194526100E-01    0.8833739315E-05    0.3814249292E-01    0.5936593364E+00
    0.4900000000E+07    0.6418940972E+00    0.9191440161E-01    0.8637758158E-05    0.3814539138E-01    0.5936903374E+00
    0.1000000000E+07    0.6417440158E+00    0.9309484033E-01    0.2035912623E-04    0.3802719622E-01    0.5924961429E+00
    0.3000000000E+07    0.6418810076E+00    0.9227810858E-01    0.1125005351E-04    0.3811081159E-01    0.5933245722E+00
    0.5000000000E+07    0.6418942672E+00    0.9189944349E-01    0.8544322025E-05    0.3814679435E-01    0.5937053625E+00
    0.7000000000E+07    0.6418937962E+00    0.9165055218E-01    0.7128938420E-05    0.3816997464E-01    0.5939552464E+00
    0.9000000000E+07    0.6418900476E+00    0.9146495285E-01    0.6227201374E-05    0.3818709840E-01    0.5941414887E+00
    0.1100000000E+08    0.6418854085E+00    0.9131694739E-01    0.5589883367E-05    0.3820068059E-01    0.5942899806E+00
    0.1300000000E+08    0.6418806178E+00    0.9119387022E-01    0.5109412948E-05    0.3821193678E-01    0.5944134578E+00
    0.1500000000E+08    0.6418759353E+00    0.9108853943E-01    0.4730834935E-05    0.3822154776E-01    0.5945191338E+00
    0.1700000000E+08    0.6418714532E+00    0.9099648768E-01    0.4422793283E-05    0.3822993338E-01    0.5946114926E+00
    0.1900000000E+08    0.6418671985E+00    0.9091474632E-01    0.4165934344E-05    0.3823737088E-01    0.5946935127E+00
    0.2100000000E+08    0.6418631709E+00    0.9084124217E-01    0.3947587380E-05    0.3824405292E-01    0.5947672734E+00
    0.2300000000E+08    0.6418593597E+00    0.9077447017E-01    0.3759067022E-05    0.3825011885E-01    0.5948342840E+00
    0.2500000000E+08    0.6418557497E+00    0.9071330312E-01    0.3594196303E-05    0.3825567271E-01    0.5948956748E+00
    0.2700000000E+08    0.6418523253E+00    0.9065687497E-01    0.3448447381E-05    0.3826079423E-01    0.5949523139E+00
