  Pressure (Pa) 22mC5-400 (mol/kg) 3mC6-400 (mol/kg) 33mC5-400 (mol/kg) 23mC5-400 (mol/kg) C7-400 (mol/kg)
    0.1000000000E+01    0.1592197895E-02    0.2118787922E-02    0.1299303730E-03    0.9319077130E-03    0.1719046282E-02
    0.3000000000E+01    0.4740208707E-02    0.6283656242E-02    0.3842143626E-03    0.2774446081E-02    0.5098422846E-02
    0.5000000000E+01    0.7840640091E-02    0.1035433105E-01    0.6312754145E-03    0.4589160994E-02    0.8401728606E-02
    0.7000000000E+01    0.1089458260E-01    0.1433398250E-01    0.8713592372E-03    0.6376689998E-02    0.1163151972E-01
    0.9000000000E+01    0.1390309353E-01    0.1822563994E-01    0.1104701113E-02    0.8137651217E-02    0.1479023892E-01
    0.1100000000E+02    0.1686719825E-01    0.2203219965E-01    0.1331526439E-02    0.9872644083E-02    0.1788022172E-01
    0.1300000000E+02    0.1978789130E-01    0.2575643207E-01    0.1552051240E-02    0.1158225004E-01    0.2090370224E-01
    0.1500000000E+02    0.2266613762E-01    0.2940098857E-01    0.1766482641E-02    0.1326703320E-01    0.2386281866E-01
    0.1700000000E+02    0.2550287359E-01    0.3296840779E-01    0.1975019320E-02    0.1492754101E-01    0.2675961832E-01
    0.1900000000E+02    0.2829900812E-01    0.3646112152E-01    0.2177851927E-02    0.1656430483E-01    0.2959606247E-01
    0.2100000000E+02    0.3105542360E-01    0.3988146033E-01    0.2375163482E-02    0.1817784054E-01    0.3237403080E-01
    0.2300000000E+02    0.3377297691E-01    0.4323165873E-01    0.2567129747E-02    0.1976864910E-01    0.3509532558E-01
    0.2500000000E+02    0.3645250028E-01    0.4651386010E-01    0.2753919578E-02    0.2133721707E-01    0.3776167565E-01
    0.2700000000E+02    0.3909480224E-01    0.4973012129E-01    0.2935695254E-02    0.2288401713E-01    0.4037474012E-01
    0.2900000000E+02    0.4170066838E-01    0.5288241691E-01    0.3112612792E-02    0.2440950859E-01    0.4293611181E-01
    0.3100000000E+02    0.4427086221E-01    0.5597264345E-01    0.3284822240E-02    0.2591413782E-01    0.4544732059E-01
    0.3300000000E+02    0.4680612592E-01    0.5900262307E-01    0.3452467955E-02    0.2739833873E-01    0.4790983644E-01
    0.3500000000E+02    0.4930718110E-01    0.6197410722E-01    0.3615688863E-02    0.2886253321E-01    0.5032507231E-01
    0.3700000000E+02    0.5177472946E-01    0.6488878005E-01    0.3774618714E-02    0.3030713152E-01    0.5269438694E-01
    0.3900000000E+02    0.5420945353E-01    0.6774826158E-01    0.3929386308E-02    0.3173253269E-01    0.5501908737E-01
    0.4100000000E+02    0.5661201727E-01    0.7055411076E-01    0.4080115722E-02    0.3313912492E-01    0.5730043140E-01
    0.4300000000E+02    0.5898306673E-01    0.7330782829E-01    0.4226926519E-02    0.3452728593E-01    0.5953962993E-01
    0.4500000000E+02    0.6132323064E-01    0.7601085936E-01    0.4369933949E-02    0.3589738331E-01    0.6173784903E-01
    0.4700000000E+02    0.6363312100E-01    0.7866459614E-01    0.4509249134E-02    0.3724977487E-01    0.6389621210E-01
    0.4900000000E+02    0.6591333359E-01    0.8127038022E-01    0.4644979246E-02    0.3858480894E-01    0.6601580175E-01
    0.1000000000E+02    0.1539063380E-01    0.2013938099E-01    0.1218914629E-02    0.9008356940E-02    0.1634368043E-01
    0.3000000000E+02    0.4299017746E-01    0.5443517323E-01    0.3199296875E-02    0.2516440358E-01    0.4419789332E-01
    0.5000000000E+02    0.6704249261E-01    0.8255569599E-01    0.4711532355E-02    0.3924592328E-01    0.6706138416E-01
    0.7000000000E+02    0.8820113831E-01    0.1060356832E+00    0.5877692089E-02    0.5163502452E-01    0.8617243171E-01
    0.9000000000E+02    0.1069674308E+00    0.1259397792E+00    0.6783104918E-02    0.6262481876E-01    0.1023903505E+00
    0.1100000000E+03    0.1237323671E+00    0.1430297688E+00    0.7488961498E-02    0.7244392554E-01    0.1163302338E+00
    0.1300000000E+03    0.1388054354E+00    0.1578651553E+00    0.8040084040E-02    0.8127331340E-01    0.1284440126E+00
    0.1500000000E+03    0.1524348535E+00    0.1708661499E+00    0.8469898127E-02    0.8925813007E-01    0.1390712310E+00
    0.1700000000E+03    0.1648220642E+00    0.1823544997E+00    0.8803715099E-02    0.9651617634E-01    0.1484719663E+00
    0.1900000000E+03    0.1761323021E+00    0.1925807479E+00    0.9060957354E-02    0.1031440830E+00    0.1568488133E+00
    0.2100000000E+03    0.1865024169E+00    0.2017429107E+00    0.9256701767E-02    0.1092218845E+00    0.1643619507E+00
    0.2300000000E+03    0.1960467512E+00    0.2099995667E+00    0.9402771610E-02    0.1148164554E+00    0.1711397019E+00
    0.2500000000E+03    0.2048616122E+00    0.2174792172E+00    0.9508522591E-02    0.1199841243E+00    0.1772860888E+00
    0.2700000000E+03    0.2130287165E+00    0.2242871000E+00    0.9581417461E-02    0.1247726881E+00    0.1828863323E+00
    0.2900000000E+03    0.2206178717E+00    0.2305102305E+00    0.9627451860E-02    0.1292229798E+00    0.1880109223E+00
    0.3100000000E+03    0.2276890858E+00    0.2362211860E+00    0.9651473815E-02    0.1333701015E+00    0.1927186736E+00
    0.3300000000E+03    0.2342942417E+00    0.2414809842E+00    0.9657426130E-02    0.1372444042E+00    0.1970590512E+00
    0.3500000000E+03    0.2404784387E+00    0.2463412985E+00    0.9648532123E-02    0.1408722713E+00    0.2010739599E+00
    0.3700000000E+03    0.2462810747E+00    0.2508461832E+00    0.9627439280E-02    0.1442767521E+00    0.2047991385E+00
    0.3900000000E+03    0.2517367276E+00    0.2550334292E+00    0.9596331282E-02    0.1474780769E+00    0.2082652556E+00
    0.4100000000E+03    0.2568758764E+00    0.2589356405E+00    0.9557016055E-02    0.1504940785E+00    0.2114987798E+00
    0.4300000000E+03    0.2617254963E+00    0.2625810953E+00    0.9510995461E-02    0.1533405405E+00    0.2145226761E+00
    0.4500000000E+03    0.2663095524E+00    0.2659944418E+00    0.9459520828E-02    0.1560314857E+00    0.2173569688E+00
    0.4700000000E+03    0.2706494116E+00    0.2691972628E+00    0.9403637464E-02    0.1585794173E+00    0.2200191978E+00
    0.4900000000E+03    0.2747641884E+00    0.2722085391E+00    0.9344220546E-02    0.1609955210E+00    0.2225247941E+00
    0.1000000000E+03    0.1155790858E+00    0.1347977017E+00    0.7157861263E-02    0.6766843899E-01    0.1096136815E+00
    0.3000000000E+03    0.2242148054E+00    0.2334256743E+00    0.9641949164E-02    0.1313324386E+00    0.1904136153E+00
    0.5000000000E+03    0.2767426010E+00    0.2736476630E+00    0.9313421249E-02    0.1621573151E+00    0.2237231773E+00
    0.7000000000E+03    0.3078516835E+00    0.2955620270E+00    0.8637553520E-02    0.1804373545E+00    0.2420620775E+00
    0.9000000000E+03    0.3284397380E+00    0.3093721689E+00    0.7989252782E-02    0.1925510752E+00    0.2537379910E+00
    0.1100000000E+04    0.3430686092E+00    0.3188794119E+00    0.7427513197E-02    0.2011698041E+00    0.2618574929E+00
    0.1300000000E+04    0.3539935383E+00    0.3258262335E+00    0.6949964866E-02    0.2076147680E+00    0.2678497382E+00
    0.1500000000E+04    0.3624593156E+00    0.3311249274E+00    0.6543180464E-02    0.2126155526E+00    0.2724656287E+00
    0.1700000000E+04    0.3692095456E+00    0.3352998098E+00    0.6193825637E-02    0.2166081877E+00    0.2761382347E+00
    0.1900000000E+04    0.3747158401E+00    0.3386738316E+00    0.5890860027E-02    0.2198693367E+00    0.2791352281E+00
    0.2100000000E+04    0.3792917193E+00    0.3414568697E+00    0.5625578167E-02    0.2225830027E+00    0.2816311588E+00
    0.2300000000E+04    0.3831536917E+00    0.3437912780E+00    0.5391194104E-02    0.2248763092E+00    0.2837448231E+00
    0.2500000000E+04    0.3864560511E+00    0.3457770465E+00    0.5182406806E-02    0.2268398900E+00    0.2855599467E+00
    0.2700000000E+04    0.3893117035E+00    0.3474864834E+00    0.4995043707E-02    0.2285400965E+00    0.2871372801E+00
    0.2900000000E+04    0.3918051572E+00    0.3489731826E+00    0.4825788553E-02    0.2300266136E+00    0.2885220021E+00
    0.3100000000E+04    0.3940009121E+00    0.3502777156E+00    0.4671978446E-02    0.2313373793E+00    0.2897484274E+00
    0.3300000000E+04    0.3959490434E+00    0.3514313626E+00    0.4531453233E-02    0.2325018599E+00    0.2908431006E+00
    0.3500000000E+04    0.3976890149E+00    0.3524586308E+00    0.4402443385E-02    0.2335432879E+00    0.2918268872E+00
    0.3700000000E+04    0.3992523452E+00    0.3533789941E+00    0.4283485934E-02    0.2344802266E+00    0.2927164221E+00
    0.3900000000E+04    0.4006645088E+00    0.3542081231E+00    0.4173360882E-02    0.2353276860E+00    0.2935251351E+00
    0.4100000000E+04    0.4019463165E+00    0.3549587708E+00    0.4071042646E-02    0.2360979336E+00    0.2942639916E+00
    0.4300000000E+04    0.4031149346E+00    0.3556414215E+00    0.3975662612E-02    0.2368010932E+00    0.2949420355E+00
    0.4500000000E+04    0.4041846486E+00    0.3562647741E+00    0.3886479995E-02    0.2374455929E+00    0.2955667950E+00
    0.4700000000E+04    0.4051674417E+00    0.3568361070E+00    0.3802858942E-02    0.2380385062E+00    0.2961445893E+00
    0.4900000000E+04    0.4060734408E+00    0.3573615560E+00    0.3724250390E-02    0.2385858129E+00    0.2966807630E+00
    0.1000000000E+04    0.3363252047E+00    0.3145270225E+00    0.7697193768E-02    0.1971954674E+00    0.2581303420E+00
    0.3000000000E+04    0.3929368307E+00    0.3496460812E+00    0.4747098189E-02    0.2307019554E+00    0.2891531890E+00
    0.5000000000E+04    0.4065003861E+00    0.3576087334E+00    0.3686674322E-02    0.2388439845E+00    0.2969346916E+00
    0.7000000000E+04    0.4125499971E+00    0.3610731235E+00    0.3109981271E-02    0.2425250254E+00    0.3006454273E+00
    0.9000000000E+04    0.4159633116E+00    0.3629808342E+00    0.2735560120E-02    0.2446299269E+00    0.3028766487E+00
    0.1100000000E+05    0.4181500054E+00    0.3641711184E+00    0.2467752189E-02    0.2459964541E+00    0.3043935494E+00
    0.1300000000E+05    0.4196676937E+00    0.3649736928E+00    0.2264128135E-02    0.2469575385E+00    0.3055066354E+00
    0.1500000000E+05    0.4207808995E+00    0.3655441191E+00    0.2102641522E-02    0.2476718400E+00    0.3063670469E+00
    0.1700000000E+05    0.4216311464E+00    0.3659651883E+00    0.1970561230E-02    0.2482246291E+00    0.3070577062E+00
    0.1900000000E+05    0.4223009553E+00    0.3662849118E+00    0.1859956932E-02    0.2486658501E+00    0.3076281573E+00
    0.2100000000E+05    0.4228416658E+00    0.3665329863E+00    0.1765598410E-02    0.2490267150E+00    0.3081099587E+00
    0.2300000000E+05    0.4232868786E+00    0.3667287282E+00    0.1683878670E-02    0.2493277428E+00    0.3085242416E+00
    0.2500000000E+05    0.4236594995E+00    0.3668852190E+00    0.1612219207E-02    0.2495829838E+00    0.3088857332E+00
    0.2700000000E+05    0.4239756758E+00    0.3670116166E+00    0.1548721507E-02    0.2498023869E+00    0.3092050406E+00
    0.2900000000E+05    0.4242471142E+00    0.3671145120E+00    0.1491952753E-02    0.2499931971E+00    0.3094900159E+00
    0.3100000000E+05    0.4244825068E+00    0.3671987613E+00    0.1440808649E-02    0.2501608174E+00    0.3097466088E+00
    0.3300000000E+05    0.4246884414E+00    0.3672680155E+00    0.1394422588E-02    0.2503093612E+00    0.3099794187E+00
    0.3500000000E+05    0.4248700004E+00    0.3673250680E+00    0.1352103727E-02    0.2504420157E+00    0.3101920633E+00
    0.3700000000E+05    0.4250311668E+00    0.3673720891E+00    0.1313293698E-02    0.2505612901E+00    0.3103874317E+00
    0.3900000000E+05    0.4251751061E+00    0.3674107877E+00    0.1277535666E-02    0.2506691869E+00    0.3105678626E+00
    0.4100000000E+05    0.4253043644E+00    0.3674425261E+00    0.1244451785E-02    0.2507673242E+00    0.3107352717E+00
    0.4300000000E+05    0.4254210134E+00    0.3674684019E+00    0.1213726479E-02    0.2508570244E+00    0.3108912453E+00
    0.4500000000E+05    0.4255267550E+00    0.3674893079E+00    0.1185093851E-02    0.2509393784E+00    0.3110371095E+00
    0.4700000000E+05    0.4256230004E+00    0.3675059769E+00    0.1158328074E-02    0.2510152951E+00    0.3111739827E+00
    0.4900000000E+05    0.4257109293E+00    0.3675190151E+00    0.1133235951E-02    0.2510855373E+00    0.3113028157E+00
    0.1000000000E+05    0.4171649103E+00    0.3636389618E+00    0.2591669882E-02    0.2453786066E+00    0.3036994600E+00
    0.3000000000E+05    0.4243688634E+00    0.3671587157E+00    0.1465736517E-02    0.2500796236E+00    0.3096215461E+00
    0.5000000000E+05    0.4257520919E+00    0.3675243339E+00    0.1121264602E-02    0.2511187362E+00    0.3113644762E+00
    0.7000000000E+05    0.4263138593E+00    0.3675272899E+00    0.9392551090E-03    0.2515994785E+00    0.3123233036E+00
    0.9000000000E+05    0.4266082170E+00    0.3674412861E+00    0.8226416986E-03    0.2518855323E+00    0.3129692853E+00
    0.1100000000E+06    0.4267841425E+00    0.3673298501E+00    0.7399112015E-03    0.2520794778E+00    0.3134510699E+00
    0.1300000000E+06    0.4268980145E+00    0.3672129777E+00    0.6773676324E-03    0.2522219391E+00    0.3138329680E+00
    0.1500000000E+06    0.4269756959E+00    0.3670978780E+00    0.6279807179E-03    0.2523323951E+00    0.3141481853E+00
    0.1700000000E+06    0.4270306379E+00    0.3669872237E+00    0.5877248604E-03    0.2524214271E+00    0.3144159486E+00
    0.1900000000E+06    0.4270704871E+00    0.3668818904E+00    0.5541084012E-03    0.2524953143E+00    0.3146483260E+00
    0.2100000000E+06    0.4270998891E+00    0.3667819994E+00    0.5254963316E-03    0.2525580379E+00    0.3148533602E+00
    0.2300000000E+06    0.4271218162E+00    0.3666873527E+00    0.5007657597E-03    0.2526122552E+00    0.3150366659E+00
    0.2500000000E+06    0.4271382503E+00    0.3665976259E+00    0.4791167852E-03    0.2526598142E+00    0.3152023100E+00
    0.2700000000E+06    0.4271505583E+00    0.3665124558E+00    0.4599622302E-03    0.2527020445E+00    0.3153533285E+00
    0.2900000000E+06    0.4271597101E+00    0.3664314815E+00    0.4428601139E-03    0.2527399295E+00    0.3154920451E+00
    0.3100000000E+06    0.4271664103E+00    0.3663543622E+00    0.4274705861E-03    0.2527742144E+00    0.3156202765E+00
    0.3300000000E+06    0.4271711813E+00    0.3662807837E+00    0.4135274982E-03    0.2528054755E+00    0.3157394686E+00
    0.3500000000E+06    0.4271744174E+00    0.3662104606E+00    0.4008190762E-03    0.2528341663E+00    0.3158507906E+00
    0.3700000000E+06    0.4271764209E+00    0.3661431352E+00    0.3891744437E-03    0.2528606491E+00    0.3159552006E+00
    0.3900000000E+06    0.4271774265E+00    0.3660785758E+00    0.3784540109E-03    0.2528852178E+00    0.3160534934E+00
    0.4100000000E+06    0.4271776188E+00    0.3660165736E+00    0.3685424856E-03    0.2529081133E+00    0.3161463356E+00
    0.4300000000E+06    0.4271771445E+00    0.3659569411E+00    0.3593436999E-03    0.2529295353E+00    0.3162342911E+00
    0.4500000000E+06    0.4271761211E+00    0.3658995093E+00    0.3507767223E-03    0.2529496510E+00    0.3163178415E+00
    0.4700000000E+06    0.4271746438E+00    0.3658441257E+00    0.3427728925E-03    0.2529686017E+00    0.3163974010E+00
    0.4900000000E+06    0.4271727903E+00    0.3657906524E+00    0.3352735319E-03    0.2529865077E+00    0.3164733285E+00
    0.1000000000E+06    0.4267063830E+00    0.3673870272E+00    0.7781235755E-03    0.2519907418E+00    0.3132256234E+00
    0.3000000000E+06    0.4271633305E+00    0.3663924603E+00    0.4349693769E-03    0.2527574826E+00    0.3155573737E+00
    0.5000000000E+06    0.4271717428E+00    0.3657645927E+00    0.3316969716E-03    0.2529951018E+00    0.3165100296E+00
    0.7000000000E+06    0.4271417318E+00    0.3653188162E+00    0.2774253764E-03    0.2531309233E+00    0.3171119504E+00
    0.9000000000E+06    0.4271066263E+00    0.3649735462E+00    0.2427542946E-03    0.2532249899E+00    0.3175517675E+00
    0.1100000000E+07    0.4270726150E+00    0.3646917343E+00    0.2182026009E-03    0.2532966263E+00    0.3178981112E+00
    0.1300000000E+07    0.4270410075E+00    0.3644536103E+00    0.1996657775E-03    0.2533543502E+00    0.3181836522E+00
    0.1500000000E+07    0.4270119247E+00    0.3642474010E+00    0.1850424999E-03    0.2534026332E+00    0.3184264920E+00
    0.1700000000E+07    0.4269851734E+00    0.3640655314E+00    0.1731318555E-03    0.2534441026E+00    0.3186377034E+00
    0.1900000000E+07    0.4269604938E+00    0.3639028405E+00    0.1631916407E-03    0.2534804292E+00    0.3188245513E+00
    0.2100000000E+07    0.4269376338E+00    0.3637556538E+00    0.1547354049E-03    0.2535127394E+00    0.3189920584E+00
    0.2300000000E+07    0.4269163698E+00    0.3636212621E+00    0.1474293884E-03    0.2535418278E+00    0.3191438410E+00
    0.2500000000E+07    0.4268965093E+00    0.3634976103E+00    0.1410360286E-03    0.2535682753E+00    0.3192825895E+00
    0.2700000000E+07    0.4268778886E+00    0.3633831024E+00    0.1353810604E-03    0.2535925195E+00    0.3194103588E+00
    0.2900000000E+07    0.4268603687E+00    0.3632764741E+00    0.1303333894E-03    0.2536148977E+00    0.3195287543E+00
    0.3100000000E+07    0.4268438311E+00    0.3631767068E+00    0.1257922662E-03    0.2536356756E+00    0.3196390534E+00
    0.3300000000E+07    0.4268281749E+00    0.3630829678E+00    0.1216788269E-03    0.2536550660E+00    0.3197422896E+00
    0.3500000000E+07    0.4268133130E+00    0.3629945674E+00    0.1179303453E-03    0.2536732423E+00    0.3198393106E+00
    0.3700000000E+07    0.4267991705E+00    0.3629109283E+00    0.1144962276E-03    0.2536903469E+00    0.3199308202E+00
    0.3900000000E+07    0.4267856821E+00    0.3628315619E+00    0.1113351567E-03    0.2537064991E+00    0.3200174094E+00
    0.4100000000E+07    0.4267727910E+00    0.3627560515E+00    0.1084130180E-03    0.2537217990E+00    0.3200995790E+00
    0.4300000000E+07    0.4267604472E+00    0.3626840384E+00    0.1057013632E-03    0.2537363319E+00    0.3201777570E+00
    0.4500000000E+07    0.4267486067E+00    0.3626152120E+00    0.1031762575E-03    0.2537501709E+00    0.3202523125E+00
    0.4700000000E+07    0.4267372306E+00    0.3625493013E+00    0.1008173996E-03    0.2537633791E+00    0.3203235653E+00
    0.4900000000E+07    0.4267262840E+00    0.3624860684E+00    0.9860744339E-04    0.2537760114E+00    0.3203917951E+00
    0.1000000000E+07    0.4270893552E+00    0.3648261987E+00    0.2295382002E-03    0.2532629424E+00    0.3177340992E+00
    0.3000000000E+07    0.4268519838E+00    0.3632257886E+00    0.1280048735E-03    0.2536254723E+00    0.3195848463E+00
    0.5000000000E+07    0.4267209621E+00    0.3624553897E+00    0.9755355794E-04    0.2537821269E+00    0.3204248542E+00
    0.7000000000E+07    0.4266310457E+00    0.3619423521E+00    0.8156755905E-04    0.2538832535E+00    0.3209738465E+00
    0.9000000000E+07    0.4265625903E+00    0.3615569131E+00    0.7136058531E-04    0.2539580566E+00    0.3213821840E+00
    0.1100000000E+08    0.4265073165E+00    0.3612479891E+00    0.6413520251E-04    0.2540174450E+00    0.3217073636E+00
    0.1300000000E+08    0.4264609630E+00    0.3609901316E+00    0.5868127246E-04    0.2540666984E+00    0.3219775576E+00
    0.1500000000E+08    0.4264210484E+00    0.3607688035E+00    0.5437956918E-04    0.2541087773E+00    0.3222086814E+00
    0.1700000000E+08    0.4263860009E+00    0.3605749126E+00    0.5087633098E-04    0.2541455089E+00    0.3224106091E+00
    0.1900000000E+08    0.4263547616E+00    0.3604023906E+00    0.4795298180E-04    0.2541781005E+00    0.3225898897E+00
    0.2100000000E+08    0.4263265835E+00    0.3602469847E+00    0.4546629520E-04    0.2542073918E+00    0.3227510904E+00
    0.2300000000E+08    0.4263009199E+00    0.3601055984E+00    0.4331801939E-04    0.2542339904E+00    0.3228975229E+00
    0.2500000000E+08    0.4262773586E+00    0.3599759067E+00    0.4143823150E-04    0.2542583502E+00    0.3230316653E+00
    0.2700000000E+08    0.4262555810E+00    0.3598561194E+00    0.3977564573E-04    0.2542808191E+00    0.3231554202E+00
