  Pressure (Pa) 22mC5-400 (mol/kg) 3mC6-400 (mol/kg) 33mC5-400 (mol/kg) 23mC5-400 (mol/kg) C7-400 (mol/kg)
    0.1000000000E+01    0.1593607772E-02    0.5259567625E-02    0.6463125252E-04    0.3730928738E-03    0.3413934582E-02
    0.3000000000E+01    0.4752722146E-02    0.1538466902E-01    0.1892269912E-03    0.1112705501E-02    0.9987258444E-02
    0.5000000000E+01    0.7874922353E-02    0.2501638818E-01    0.3079643355E-03    0.1843683531E-02    0.1624182547E-01
    0.7000000000E+01    0.1096085953E-01    0.3418992483E-01    0.4212436862E-03    0.2566179227E-02    0.2220034035E-01
    0.9000000000E+01    0.1401116956E-01    0.4293720821E-01    0.5294282881E-03    0.3280341285E-02    0.2788339991E-01
    0.1100000000E+02    0.1702647348E-01    0.5128726821E-01    0.6328484920E-03    0.3986314932E-02    0.3330973220E-01
    0.1300000000E+02    0.2000737794E-01    0.5926655718E-01    0.7318054434E-03    0.4684242028E-02    0.3849640383E-01
    0.1500000000E+02    0.2295447559E-01    0.6689922980E-01    0.8265742852E-03    0.5374261166E-02    0.4345900020E-01
    0.1700000000E+02    0.2586834553E-01    0.7420738717E-01    0.9174069480E-03    0.6056507761E-02    0.4821178293E-01
    0.1900000000E+02    0.2874955361E-01    0.8121129056E-01    0.1004534588E-02    0.6731114142E-02    0.5276782740E-01
    0.2100000000E+02    0.3159865292E-01    0.8792954895E-01    0.1088169725E-02    0.7398209641E-02    0.5713914373E-01
    0.2300000000E+02    0.3441618403E-01    0.9437928403E-01    0.1168508116E-02    0.8057920675E-02    0.6133678305E-01
    0.2500000000E+02    0.3720267543E-01    0.1005762759E+00    0.1245730415E-02    0.8710370830E-02    0.6537093141E-01
    0.2700000000E+02    0.3995864382E-01    0.1065350921E+00    0.1320003630E-02    0.9355680937E-02    0.6925099283E-01
    0.2900000000E+02    0.4268459446E-01    0.1122692015E+00    0.1391482420E-02    0.9993969150E-02    0.7298566295E-01
    0.3100000000E+02    0.4538102147E-01    0.1177910763E+00    0.1460310245E-02    0.1062535102E-01    0.7658299454E-01
    0.3300000000E+02    0.4804840813E-01    0.1231122825E+00    0.1526620385E-02    0.1124993956E-01    0.8005045583E-01
    0.3500000000E+02    0.5068722719E-01    0.1282435606E+00    0.1590536855E-02    0.1186784534E-01    0.8339498266E-01
    0.3700000000E+02    0.5329794116E-01    0.1331948979E+00    0.1652175219E-02    0.1247917650E-01    0.8662302506E-01
    0.3900000000E+02    0.5588100256E-01    0.1379755939E+00    0.1711643318E-02    0.1308403888E-01    0.8974058912E-01
    0.4100000000E+02    0.5843685421E-01    0.1425943176E+00    0.1769041928E-02    0.1368253602E-01    0.9275327451E-01
    0.4300000000E+02    0.6096592950E-01    0.1470591610E+00    0.1824465348E-02    0.1427476929E-01    0.9566630834E-01
    0.4500000000E+02    0.6346865258E-01    0.1513776856E+00    0.1878001926E-02    0.1486083787E-01    0.9848457561E-01
    0.4700000000E+02    0.6594543870E-01    0.1555569655E+00    0.1929734544E-02    0.1544083886E-01    0.1012126468E+00
    0.4900000000E+02    0.6839669433E-01    0.1596036262E+00    0.1979741045E-02    0.1601486734E-01    0.1038548028E+00
    0.1000000000E+02    0.1552315904E-01    0.4716018091E-01    0.5817144734E-03    0.3634342716E-02    0.3062755360E-01
    0.3000000000E+02    0.4403646796E-01    0.1150559251E+00    0.1426219146E-02    0.1031051626E-01    0.7480101623E-01
    0.5000000000E+02    0.6961287293E-01    0.1615791807E+00    0.2004120047E-02    0.1629967105E-01    0.1051449267E+00
    0.7000000000E+02    0.9268886775E-01    0.1954474345E+00    0.2416739756E-02    0.2170388402E-01    0.1272897684E+00
    0.9000000000E+02    0.1136181912E+00    0.2212045623E+00    0.2718486952E-02    0.2660588214E-01    0.1441728368E+00
    0.1100000000E+03    0.1326905552E+00    0.2414515611E+00    0.2941746464E-02    0.3107342109E-01    0.1574769113E+00
    0.1300000000E+03    0.1501455133E+00    0.2577847083E+00    0.3107299411E-02    0.3516252779E-01    0.1682356137E+00
    0.1500000000E+03    0.1661828771E+00    0.2712379821E+00    0.3229251208E-02    0.3891993589E-01    0.1771190309E+00
    0.1700000000E+03    0.1809706424E+00    0.2825106229E+00    0.3317593241E-02    0.4238493906E-01    0.1845806997E+00
    0.1900000000E+03    0.1946510925E+00    0.2920924544E+00    0.3379639267E-02    0.4559081793E-01    0.1909385949E+00
    0.2100000000E+03    0.2073455477E+00    0.3003368244E+00    0.3420882278E-02    0.4856595089E-01    0.1964222900E+00
    0.2300000000E+03    0.2191581005E+00    0.3075050424E+00    0.3445532539E-02    0.5133468727E-01    0.2012017039E+00
    0.2500000000E+03    0.2301785788E+00    0.3137945161E+00    0.3456870185E-02    0.5391804033E-01    0.2054053111E+00
    0.2700000000E+03    0.2404849170E+00    0.3193571598E+00    0.3457484737E-02    0.5633424180E-01    0.2091320621E+00
    0.2900000000E+03    0.2501450699E+00    0.3243117861E+00    0.3449442777E-02    0.5859918924E-01    0.2124594118E+00
    0.3100000000E+03    0.2592185667E+00    0.3287526561E+00    0.3434408388E-02    0.6072680969E-01    0.2154488612E+00
    0.3300000000E+03    0.2677577842E+00    0.3327555097E+00    0.3413731551E-02    0.6272935722E-01    0.2181498690E+00
    0.3500000000E+03    0.2758089947E+00    0.3363819015E+00    0.3388514246E-02    0.6461765803E-01    0.2206026644E+00
    0.3700000000E+03    0.2834132346E+00    0.3396823729E+00    0.3359660670E-02    0.6640131366E-01    0.2228403066E+00
    0.3900000000E+03    0.2906070283E+00    0.3426988100E+00    0.3327915923E-02    0.6808887025E-01    0.2248902163E+00
    0.4100000000E+03    0.2974229956E+00    0.3454662200E+00    0.3293896162E-02    0.6968796055E-01    0.2267753303E+00
    0.4300000000E+03    0.3038903622E+00    0.3480140876E+00    0.3258112354E-02    0.7120542338E-01    0.2285149827E+00
    0.4500000000E+03    0.3100353929E+00    0.3503674223E+00    0.3220989163E-02    0.7264740489E-01    0.2301255874E+00
    0.4700000000E+03    0.3158817590E+00    0.3525475770E+00    0.3182880086E-02    0.7401944456E-01    0.2316211694E+00
    0.4900000000E+03    0.3214508528E+00    0.3545728917E+00    0.3144079670E-02    0.7532654871E-01    0.2330137852E+00
    0.1000000000E+03    0.1233704816E+00    0.2319001608E+00    0.2838430775E-02    0.2889021428E-01    0.1511967238E+00
    0.3000000000E+03    0.2547517223E+00    0.3265913304E+00    0.3442708765E-02    0.5967936335E-01    0.2139930379E+00
    0.5000000000E+03    0.3241375517E+00    0.3555325202E+00    0.3124498619E-02    0.7595718434E-01    0.2336747940E+00
    0.7000000000E+03    0.3671738690E+00    0.3695007871E+00    0.2737782570E-02    0.8606400526E-01    0.2434033728E+00
    0.9000000000E+03    0.3965054856E+00    0.3776993826E+00    0.2402220128E-02    0.9295950473E-01    0.2492480710E+00
    0.1100000000E+04    0.4177842798E+00    0.3830751477E+00    0.2127866123E-02    0.9796705148E-01    0.2531694082E+00
    0.1300000000E+04    0.4339252173E+00    0.3868618971E+00    0.1905376981E-02    0.1017694178E+00    0.2559951443E+00
    0.1500000000E+04    0.4465867246E+00    0.3896668603E+00    0.1723784662E-02    0.1047551938E+00    0.2581359983E+00
    0.1700000000E+04    0.4567826494E+00    0.3918234406E+00    0.1573953787E-02    0.1071620203E+00    0.2598192878E+00
    0.1900000000E+04    0.4651679072E+00    0.3935298229E+00    0.1448856803E-02    0.1091434595E+00    0.2611812064E+00
    0.2100000000E+04    0.4721844610E+00    0.3949111512E+00    0.1343197563E-02    0.1108031774E+00    0.2623084269E+00
    0.2300000000E+04    0.4781413731E+00    0.3960503008E+00    0.1252987248E-02    0.1122136924E+00    0.2632587936E+00
    0.2500000000E+04    0.4832612586E+00    0.3970043098E+00    0.1175200138E-02    0.1134272567E+00    0.2640724239E+00
    0.2700000000E+04    0.4877085240E+00    0.3978137030E+00    0.1107517531E-02    0.1144824734E+00    0.2647780398E+00
    0.2900000000E+04    0.4916072156E+00    0.3985080536E+00    0.1048142462E-02    0.1154084787E+00    0.2653967613E+00
    0.3100000000E+04    0.4950526813E+00    0.3991094402E+00    0.9956664452E-03    0.1162276761E+00    0.2659444758E+00
    0.3300000000E+04    0.4981194108E+00    0.3996346736E+00    0.9489733059E-03    0.1169575738E+00    0.2664333721E+00
    0.3500000000E+04    0.5008664387E+00    0.4000967755E+00    0.9071692365E-03    0.1176120524E+00    0.2668729627E+00
    0.3700000000E+04    0.5033411528E+00    0.4005059856E+00    0.8695314377E-03    0.1182022579E+00    0.2672707844E+00
    0.3900000000E+04    0.5055820286E+00    0.4008704644E+00    0.8354700078E-03    0.1187372431E+00    0.2676328888E+00
    0.4100000000E+04    0.5076206287E+00    0.4011967937E+00    0.8044993649E-03    0.1192244367E+00    0.2679641931E+00
    0.4300000000E+04    0.5094830876E+00    0.4014903391E+00    0.7762165932E-03    0.1196699922E+00    0.2682687361E+00
    0.4500000000E+04    0.5111912292E+00    0.4017555173E+00    0.7502848715E-03    0.1200790497E+00    0.2685498672E+00
    0.4700000000E+04    0.5127634200E+00    0.4019959963E+00    0.7264206690E-03    0.1204559365E+00    0.2688103887E+00
    0.4900000000E+04    0.5142152265E+00    0.4022148465E+00    0.7043837614E-03    0.1208043217E+00    0.2690526636E+00
    0.1000000000E+04    0.4079289557E+00    0.3806414987E+00    0.2257850910E-02    0.9564715439E-01    0.2513831420E+00
    0.3000000000E+04    0.4933815300E+00    0.3988192134E+00    0.1021117758E-02    0.1158302365E+00    0.2656786598E+00
    0.5000000000E+04    0.5149002136E+00    0.4023169861E+00    0.6939853473E-03    0.1209688229E+00    0.2691675981E+00
    0.7000000000E+04    0.5246676699E+00    0.4036812140E+00    0.5452364848E-03    0.1233258664E+00    0.2708674860E+00
    0.9000000000E+04    0.5302362361E+00    0.4043558597E+00    0.4591609963E-03    0.1246836062E+00    0.2719183035E+00
    0.1100000000E+05    0.5338307898E+00    0.4047299725E+00    0.4023113590E-03    0.1255690504E+00    0.2726529097E+00
    0.1300000000E+05    0.5363410459E+00    0.4049499111E+00    0.3615302608E-03    0.1261937082E+00    0.2732064591E+00
    0.1500000000E+05    0.5381921893E+00    0.4050821631E+00    0.3305869916E-03    0.1266590167E+00    0.2736450943E+00
    0.1700000000E+05    0.5396129522E+00    0.4051608859E+00    0.3061399123E-03    0.1270197369E+00    0.2740053849E+00
    0.1900000000E+05    0.5407372883E+00    0.4052052222E+00    0.2862292339E-03    0.1273080505E+00    0.2743093763E+00
    0.2100000000E+05    0.5416488379E+00    0.4052266179E+00    0.2696255314E-03    0.1275441215E+00    0.2745712456E+00
    0.2300000000E+05    0.5424025123E+00    0.4052322685E+00    0.2555159693E-03    0.1277412337E+00    0.2748005800E+00
    0.2500000000E+05    0.5430358479E+00    0.4052268805E+00    0.2433400441E-03    0.1279084989E+00    0.2750041283E+00
    0.2700000000E+05    0.5435753707E+00    0.4052136331E+00    0.2326977035E-03    0.1280523783E+00    0.2751867995E+00
    0.2900000000E+05    0.5440403556E+00    0.4051947316E+00    0.2232950981E-03    0.1281775829E+00    0.2753522641E+00
    0.3100000000E+05    0.5444451440E+00    0.4051717393E+00    0.2149110824E-03    0.1282876299E+00    0.2755033301E+00
    0.3300000000E+05    0.5448006263E+00    0.4051457855E+00    0.2073757289E-03    0.1283851993E+00    0.2756421893E+00
    0.3500000000E+05    0.5451152201E+00    0.4051176980E+00    0.2005560939E-03    0.1284723694E+00    0.2757705816E+00
    0.3700000000E+05    0.5453955341E+00    0.4050880919E+00    0.1943465187E-03    0.1285507777E+00    0.2758899095E+00
    0.3900000000E+05    0.5456468287E+00    0.4050574293E+00    0.1886618578E-03    0.1286217317E+00    0.2760013182E+00
    0.4100000000E+05    0.5458733429E+00    0.4050260601E+00    0.1834326466E-03    0.1286862889E+00    0.2761057541E+00
    0.4300000000E+05    0.5460785302E+00    0.4049942512E+00    0.1786015870E-03    0.1287453135E+00    0.2762040074E+00
    0.4500000000E+05    0.5462652328E+00    0.4049622076E+00    0.1741209476E-03    0.1287995193E+00    0.2762967444E+00
    0.4700000000E+05    0.5464358107E+00    0.4049300870E+00    0.1699506099E-03    0.1288495008E+00    0.2763845314E+00
    0.4900000000E+05    0.5465922398E+00    0.4048980112E+00    0.1660565796E-03    0.1288957574E+00    0.2764678535E+00
    0.1000000000E+05    0.5322085005E+00    0.4045685126E+00    0.4281475357E-03    0.1251683211E+00    0.2723142939E+00
    0.3000000000E+05    0.5442495262E+00    0.4051836679E+00    0.2189873934E-03    0.1282343172E+00    0.2754294477E+00
    0.5000000000E+05    0.5466656797E+00    0.4048820203E+00    0.1642039431E-03    0.1289176237E+00    0.2765079734E+00
    0.7000000000E+05    0.5476861293E+00    0.4045783386E+00    0.1364201832E-03    0.1292345384E+00    0.2771529718E+00
    0.9000000000E+05    0.5482429846E+00    0.4043135064E+00    0.1189558139E-03    0.1294233676E+00    0.2776112373E+00
    0.1100000000E+06    0.5485905404E+00    0.4040839332E+00    0.1067014058E-03    0.1295515099E+00    0.2779660437E+00
    0.1300000000E+06    0.5488263036E+00    0.4038827518E+00    0.9750292360E-04    0.1296456978E+00    0.2782552765E+00
    0.1500000000E+06    0.5489955780E+00    0.4037042314E+00    0.9027543782E-04    0.1297187624E+00    0.2784992907E+00
    0.1700000000E+06    0.5491222258E+00    0.4035440094E+00    0.8440571350E-04    0.1297776790E+00    0.2787102619E+00
    0.1900000000E+06    0.5492199858E+00    0.4033987936E+00    0.7951775152E-04    0.1298265897E+00    0.2788960435E+00
    0.2100000000E+06    0.5492973137E+00    0.4032660721E+00    0.7536658660E-04    0.1298681218E+00    0.2790619925E+00
    0.2300000000E+06    0.5493596906E+00    0.4031438983E+00    0.7178492554E-04    0.1299040298E+00    0.2792119246E+00
    0.2500000000E+06    0.5494108209E+00    0.4030307385E+00    0.6865413450E-04    0.1299355344E+00    0.2793486530E+00
    0.2700000000E+06    0.5494532945E+00    0.4029253660E+00    0.6588745225E-04    0.1299635138E+00    0.2794743107E+00
    0.2900000000E+06    0.5494889749E+00    0.4028267857E+00    0.6341977472E-04    0.1299886181E+00    0.2795905532E+00
    0.3100000000E+06    0.5495192358E+00    0.4027341797E+00    0.6120117356E-04    0.1300113398E+00    0.2796986910E+00
    0.3300000000E+06    0.5495451107E+00    0.4026468687E+00    0.5919263640E-04    0.1300320599E+00    0.2797997793E+00
    0.3500000000E+06    0.5495673916E+00    0.4025642820E+00    0.5736318199E-04    0.1300510784E+00    0.2798946797E+00
    0.3700000000E+06    0.5495866950E+00    0.4024859360E+00    0.5568785495E-04    0.1300686349E+00    0.2799841054E+00
    0.3900000000E+06    0.5496035075E+00    0.4024114175E+00    0.5414629986E-04    0.1300849238E+00    0.2800686530E+00
    0.4100000000E+06    0.5496182181E+00    0.4023403705E+00    0.5272172698E-04    0.1301001045E+00    0.2801488267E+00
    0.4300000000E+06    0.5496311413E+00    0.4022724866E+00    0.5140014841E-04    0.1301143091E+00    0.2802250565E+00
    0.4500000000E+06    0.5496425335E+00    0.4022074962E+00    0.5016980504E-04    0.1301276484E+00    0.2802977120E+00
    0.4700000000E+06    0.5496526063E+00    0.4021451631E+00    0.4902073044E-04    0.1301402159E+00    0.2803671131E+00
    0.4900000000E+06    0.5496615352E+00    0.4020852785E+00    0.4794441459E-04    0.1301520912E+00    0.2804335387E+00
    0.1000000000E+06    0.5484349942E+00    0.4041947557E+00    0.1123486419E-03    0.1294928690E+00    0.2777986165E+00
    0.3000000000E+06    0.5495047116E+00    0.4027797812E+00    0.6228199467E-04    0.1300002507E+00    0.2796455641E+00
    0.5000000000E+06    0.5496656176E+00    0.4020561957E+00    0.4743121430E-04    0.1301577910E+00    0.2804657133E+00
    0.7000000000E+06    0.5497128173E+00    0.4015674674E+00    0.3965189271E-04    0.1302478866E+00    0.2809992023E+00
    0.9000000000E+06    0.5497270564E+00    0.4011979291E+00    0.3468908294E-04    0.1303102982E+00    0.2813952849E+00
    0.1100000000E+07    0.5497285111E+00    0.4009006643E+00    0.3117746101E-04    0.1303578328E+00    0.2817104376E+00
    0.1300000000E+07    0.5497242557E+00    0.4006519527E+00    0.2852740498E-04    0.1303961378E+00    0.2819721896E+00
    0.1500000000E+07    0.5497172757E+00    0.4004381236E+00    0.2643749864E-04    0.1304281788E+00    0.2821960456E+00
    0.1700000000E+07    0.5497089861E+00    0.4002505751E+00    0.2473565013E-04    0.1304556986E+00    0.2823916060E+00
    0.1900000000E+07    0.5497001101E+00    0.4000835416E+00    0.2331557491E-04    0.1304798055E+00    0.2825652299E+00
    0.2100000000E+07    0.5496910367E+00    0.3999329693E+00    0.2210764864E-04    0.1305012470E+00    0.2827213477E+00
    0.2300000000E+07    0.5496819808E+00    0.3997958991E+00    0.2106412022E-04    0.1305205503E+00    0.2828631696E+00
    0.2500000000E+07    0.5496730625E+00    0.3996701048E+00    0.2015101222E-04    0.1305381010E+00    0.2829930966E+00
    0.2700000000E+07    0.5496643479E+00    0.3995538693E+00    0.1934340663E-04    0.1305541893E+00    0.2831129713E+00
    0.2900000000E+07    0.5496558716E+00    0.3994458401E+00    0.1862256230E-04    0.1305690392E+00    0.2832242388E+00
    0.3100000000E+07    0.5496476494E+00    0.3993449331E+00    0.1797407869E-04    0.1305828271E+00    0.2833280533E+00
    0.3300000000E+07    0.5496396856E+00    0.3992502661E+00    0.1738668507E-04    0.1305956941E+00    0.2834253512E+00
    0.3500000000E+07    0.5496319780E+00    0.3991611110E+00    0.1685141812E-04    0.1306077552E+00    0.2835169031E+00
    0.3700000000E+07    0.5496245202E+00    0.3990768604E+00    0.1636104893E-04    0.1306191051E+00    0.2836033502E+00
    0.3900000000E+07    0.5496173036E+00    0.3989970022E+00    0.1590967468E-04    0.1306298229E+00    0.2836852321E+00
    0.4100000000E+07    0.5496103181E+00    0.3989211003E+00    0.1549242183E-04    0.1306399750E+00    0.2837630072E+00
    0.4300000000E+07    0.5496035536E+00    0.3988487808E+00    0.1510522669E-04    0.1306496181E+00    0.2838370680E+00
    0.4500000000E+07    0.5495969995E+00    0.3987797203E+00    0.1474467043E-04    0.1306588007E+00    0.2839077533E+00
    0.4700000000E+07    0.5495906454E+00    0.3987136374E+00    0.1440785344E-04    0.1306675646E+00    0.2839753578E+00
    0.4900000000E+07    0.5495844815E+00    0.3986502855E+00    0.1409229830E-04    0.1306759463E+00    0.2840401388E+00
    0.1000000000E+07    0.5497287927E+00    0.4010420715E+00    0.3279853594E-04    0.1303354814E+00    0.2815608617E+00
    0.3000000000E+07    0.5496517283E+00    0.3993945556E+00    0.1829004206E-04    0.1305760564E+00    0.2832770147E+00
    0.5000000000E+07    0.5495814678E+00    0.3986195649E+00    0.1394181617E-04    0.1306800040E+00    0.2840715424E+00
    0.7000000000E+07    0.5495291237E+00    0.3981072168E+00    0.1165917808E-04    0.1307470994E+00    0.2845944173E+00
    0.9000000000E+07    0.5494878427E+00    0.3977237795E+00    0.1020164527E-04    0.1307967257E+00    0.2849848372E+00
    0.1100000000E+08    0.5494538426E+00    0.3974172141E+00    0.9169805145E-05    0.1308361230E+00    0.2852965466E+00
    0.1300000000E+08    0.5494249622E+00    0.3971617666E+00    0.8390887462E-05    0.1308687953E+00    0.2855560310E+00
    0.1500000000E+08    0.5493998694E+00    0.3969427896E+00    0.7776487018E-05    0.1308967071E+00    0.2857783121E+00
    0.1700000000E+08    0.5493776891E+00    0.3967511513E+00    0.7276097706E-05    0.1309210710E+00    0.2859727372E+00
    0.1900000000E+08    0.5493578167E+00    0.3965807717E+00    0.6858513036E-05    0.1309426881E+00    0.2861455203E+00
    0.2100000000E+08    0.5493398180E+00    0.3964273983E+00    0.6503283778E-05    0.1309621156E+00    0.2863010029E+00
    0.2300000000E+08    0.5493233702E+00    0.3962879397E+00    0.6196381576E-05    0.1309797566E+00    0.2864423383E+00
    0.2500000000E+08    0.5493082274E+00    0.3961600778E+00    0.5927822559E-05    0.1309959124E+00    0.2865718889E+00
    0.2700000000E+08    0.5492941978E+00    0.3960420296E+00    0.5690283715E-05    0.1310108137E+00    0.2866914708E+00
