  Pressure (Pa) 22mC5-400 (mol/kg) 3mC6-400 (mol/kg) 33mC5-400 (mol/kg) 23mC5-400 (mol/kg) C7-400 (mol/kg)
    0.1000000000E+01    0.1592690125E-02    0.5292745431E-03    0.6494275099E-03    0.3728781403E-03    0.3435362371E-02
    0.3000000000E+01    0.4744600155E-02    0.1567210562E-02    0.1919133052E-02    0.1110804909E-02    0.1017290918E-01
    0.5000000000E+01    0.7852732909E-02    0.2578558463E-02    0.3151204981E-02    0.1838491048E-02    0.1673866539E-01
    0.7000000000E+01    0.1091808056E-01    0.3564344770E-02    0.4347058363E-02    0.2556168598E-02    0.2313925343E-01
    0.9000000000E+01    0.1394160497E-01    0.4525543610E-02    0.5508039419E-02    0.3264062516E-02    0.2938095795E-01
    0.1100000000E+02    0.1692423885E-01    0.5463080018E-02    0.6635429703E-02    0.3962390942E-02    0.3546974714E-01
    0.1300000000E+02    0.1986688687E-01    0.6377832991E-02    0.7730449967E-02    0.4651365453E-02    0.4141129242E-01
    0.1500000000E+02    0.2277042665E-01    0.7270638328E-02    0.8794263758E-02    0.5331191308E-02    0.4721098666E-01
    0.1700000000E+02    0.2563570981E-01    0.8142291246E-02    0.9827980754E-02    0.6002067681E-02    0.5287396114E-01
    0.1900000000E+02    0.2846356290E-01    0.8993548822E-02    0.1083265987E-01    0.6664187885E-02    0.5840510123E-01
    0.2100000000E+02    0.3125478832E-01    0.9825132251E-02    0.1180931214E-01    0.7317739586E-02    0.6380906094E-01
    0.2300000000E+02    0.3401016519E-01    0.1063772896E-01    0.1275890341E-01    0.7962905005E-02    0.6909027654E-01
    0.2500000000E+02    0.3673045019E-01    0.1143199454E-01    0.1368235687E-01    0.8599861116E-02    0.7425297908E-01
    0.2700000000E+02    0.3941637837E-01    0.1220855460E-01    0.1458055537E-01    0.9228779832E-02    0.7930120625E-01
    0.2900000000E+02    0.4206866388E-01    0.1296800646E-01    0.1545434361E-01    0.9849828185E-02    0.8423881322E-01
    0.3100000000E+02    0.4468800077E-01    0.1371092070E-01    0.1630453020E-01    0.1046316850E-01    0.8906948292E-01
    0.3300000000E+02    0.4727506362E-01    0.1443784269E-01    0.1713188957E-01    0.1106895855E-01    0.9379673554E-01
    0.3500000000E+02    0.4983050827E-01    0.1514929393E-01    0.1793716376E-01    0.1166735173E-01    0.9842393746E-01
    0.3700000000E+02    0.5235497244E-01    0.1584577338E-01    0.1872106408E-01    0.1225849719E-01    0.1029543095E+00
    0.3900000000E+02    0.5484907637E-01    0.1652775862E-01    0.1948427274E-01    0.1284254000E-01    0.1073909350E+00
    0.4100000000E+02    0.5731342338E-01    0.1719570704E-01    0.2022744428E-01    0.1341962127E-01    0.1117367665E+00
    0.4300000000E+02    0.5974860050E-01    0.1785005685E-01    0.2095120694E-01    0.1398987830E-01    0.1159946334E+00
    0.4500000000E+02    0.6215517895E-01    0.1849122811E-01    0.2165616405E-01    0.1455344469E-01    0.1201672476E+00
    0.4700000000E+02    0.6453371473E-01    0.1911962365E-01    0.2234289516E-01    0.1511045048E-01    0.1242572101E+00
    0.4900000000E+02    0.6688474908E-01    0.1973562994E-01    0.2301195726E-01    0.1566102227E-01    0.1282670163E+00
    0.1000000000E+02    0.1543797604E-01    0.4997213636E-02    0.6075855729E-02    0.3614409041E-02    0.3244410576E-01
    0.3000000000E+02    0.4338240830E-01    0.1334149612E-01    0.1588233793E-01    0.1015745188E-01    0.8666729151E-01
    0.5000000000E+02    0.6805011845E-01    0.2003910361E-01    0.2334003058E-01    0.1593393406E-01    0.1302426130E+00
    0.7000000000E+02    0.9003497652E-01    0.2554088045E-01    0.2909373695E-01    0.2108275506E-01    0.1660806532E+00
    0.9000000000E+02    0.1097922398E+00    0.3014617161E-01    0.3357873760E-01    0.2571039805E-01    0.1961147372E+00
    0.1100000000E+03    0.1276768385E+00    0.3406161300E-01    0.3709923792E-01    0.2989988275E-01    0.2216799734E+00
    0.1300000000E+03    0.1439696735E+00    0.3743450426E-01    0.3987390526E-01    0.3371691517E-01    0.2437284744E+00
    0.1500000000E+03    0.1588960744E+00    0.4037272453E-01    0.4206362350E-01    0.3721420410E-01    0.2629578277E+00
    0.1700000000E+03    0.1726390058E+00    0.4295712487E-01    0.4378910283E-01    0.4043454963E-01    0.2798910557E+00
    0.1900000000E+03    0.1853486815E+00    0.4524951754E-01    0.4514243516E-01    0.4341309160E-01    0.2949281786E+00
    0.2100000000E+03    0.1971496736E+00    0.4729798626E-01    0.4619489669E-01    0.4617897227E-01    0.3083804942E+00
    0.2300000000E+03    0.2081462453E+00    0.4914051048E-01    0.4700234741E-01    0.4875658349E-01    0.3204939815E+00
    0.2500000000E+03    0.2184264022E+00    0.5080749729E-01    0.4760904843E-01    0.5116651430E-01    0.3314656528E+00
    0.2700000000E+03    0.2280650079E+00    0.5232358696E-01    0.4805041164E-01    0.5342627959E-01    0.3414552187E+00
    0.2900000000E+03    0.2371262058E+00    0.5370896432E-01    0.4835501360E-01    0.5555088662E-01    0.3505935618E+00
    0.3100000000E+03    0.2456653213E+00    0.5498032716E-01    0.4854609228E-01    0.5755327990E-01    0.3589889958E+00
    0.3300000000E+03    0.2537303698E+00    0.5615161189E-01    0.4864267447E-01    0.5944469386E-01    0.3667319572E+00
    0.3500000000E+03    0.2613632622E+00    0.5723454479E-01    0.4866043506E-01    0.6123493492E-01    0.3738985696E+00
    0.3700000000E+03    0.2686007772E+00    0.5823906596E-01    0.4861235916E-01    0.6293260889E-01    0.3805533860E+00
    0.3900000000E+03    0.2754753511E+00    0.5917365891E-01    0.4850925730E-01    0.6454530573E-01    0.3867515211E+00
    0.4100000000E+03    0.2820157243E+00    0.6004560965E-01    0.4836017003E-01    0.6607975070E-01    0.3925403280E+00
    0.4300000000E+03    0.2882474734E+00    0.6086121211E-01    0.4817268819E-01    0.6754192894E-01    0.3979607275E+00
    0.4500000000E+03    0.2941934526E+00    0.6162593258E-01    0.4795320848E-01    0.6893718868E-01    0.4030482730E+00
    0.4700000000E+03    0.2998741622E+00    0.6234454237E-01    0.4770713870E-01    0.7027032739E-01    0.4078340093E+00
    0.4900000000E+03    0.3053080568E+00    0.6302122563E-01    0.4743906384E-01    0.7154566394E-01    0.4123451711E+00
    0.1000000000E+03    0.1189495779E+00    0.3217980712E-01    0.3544426709E-01    0.2785545554E-01    0.2093892872E+00
    0.3000000000E+03    0.2414578670E+00    0.5435796899E-01    0.4846346665E-01    0.5656662136E-01    0.3548781176E+00
    0.5000000000E+03    0.3079377211E+00    0.6334501387E-01    0.4729801608E-01    0.7216289040E-01    0.4145053986E+00
    0.7000000000E+03    0.3508822559E+00    0.6831808609E-01    0.4400662065E-01    0.8224727968E-01    0.4478460736E+00
    0.9000000000E+03    0.3811738452E+00    0.7151261917E-01    0.4065907647E-01    0.8936692258E-01    0.4694738104E+00
    0.1100000000E+04    0.4037326866E+00    0.7375389874E-01    0.3767348656E-01    0.9467380862E-01    0.4847901080E+00
    0.1300000000E+04    0.4211803170E+00    0.7542099311E-01    0.3509556687E-01    0.9878192986E-01    0.4962852479E+00
    0.1500000000E+04    0.4350633549E+00    0.7671367858E-01    0.3288223384E-01    0.1020536384E+00    0.5052763819E+00
    0.1700000000E+04    0.4463598769E+00    0.7774776154E-01    0.3097539227E-01    0.1047181579E+00    0.5125297007E+00
    0.1900000000E+04    0.4557206758E+00    0.7859524873E-01    0.2932157838E-01    0.1069280580E+00    0.5185232274E+00
    0.2100000000E+04    0.4635961125E+00    0.7930339156E-01    0.2787615378E-01    0.1087889524E+00    0.5235716831E+00
    0.2300000000E+04    0.4703078262E+00    0.7990455099E-01    0.2660304516E-01    0.1103762920E+00    0.5278913078E+00
    0.2500000000E+04    0.4760915920E+00    0.8042167408E-01    0.2547338083E-01    0.1117454024E+00    0.5316359230E+00
    0.2700000000E+04    0.4811240935E+00    0.8087150868E-01    0.2446405084E-01    0.1129377559E+00    0.5349181449E+00
    0.2900000000E+04    0.4855402653E+00    0.8126657917E-01    0.2355647273E-01    0.1139850347E+00    0.5378224474E+00
    0.3100000000E+04    0.4894448734E+00    0.8161644834E-01    0.2273560545E-01    0.1149118450E+00    0.5404135235E+00
    0.3300000000E+04    0.4929204521E+00    0.8192855018E-01    0.2198918308E-01    0.1157375774E+00    0.5427418142E+00
    0.3500000000E+04    0.4960328681E+00    0.8220875534E-01    0.2130712513E-01    0.1164777111E+00    0.5448472694E+00
    0.3700000000E+04    0.4988352984E+00    0.8246176452E-01    0.2068108338E-01    0.1171447471E+00    0.5467619696E+00
    0.3900000000E+04    0.5013711262E+00    0.8269138818E-01    0.2010409268E-01    0.1177488871E+00    0.5485119942E+00
    0.4100000000E+04    0.5036760809E+00    0.8290074929E-01    0.1957030031E-01    0.1182985354E+00    0.5501187774E+00
    0.4300000000E+04    0.5057798432E+00    0.8309243279E-01    0.1907475502E-01    0.1188006756E+00    0.5516001102E+00
    0.4500000000E+04    0.5077072649E+00    0.8326859748E-01    0.1861324141E-01    0.1192611571E+00    0.5529708915E+00
    0.4700000000E+04    0.5094793055E+00    0.8343106101E-01    0.1818214892E-01    0.1196849144E+00    0.5542437002E+00
    0.4900000000E+04    0.5111137608E+00    0.8358136515E-01    0.1777836745E-01    0.1200761386E+00    0.5554292348E+00
    0.1000000000E+04    0.3932218580E+00    0.7272273671E-01    0.3911450418E-01    0.9220059061E-01    0.4777261117E+00
    0.3000000000E+04    0.4875509099E+00    0.8144665705E-01    0.2313602423E-01    0.1144621817E+00    0.5391537030E+00
    0.5000000000E+04    0.5118842331E+00    0.8365237655E-01    0.1758586237E-01    0.1202606908E+00    0.5559921894E+00
    0.7000000000E+04    0.5228078126E+00    0.8467160435E-01    0.1467352138E-01    0.1228889767E+00    0.5643290327E+00
    0.9000000000E+04    0.5289638069E+00    0.8525695452E-01    0.1282487240E-01    0.1243845988E+00    0.5694364313E+00
    0.1100000000E+05    0.5328993977E+00    0.8563427208E-01    0.1152198229E-01    0.1253501208E+00    0.5729405217E+00
    0.1300000000E+05    0.5356262755E+00    0.8589561957E-01    0.1054137047E-01    0.1260256582E+00    0.5755208680E+00
    0.1500000000E+05    0.5376241856E+00    0.8608572314E-01    0.9769361263E-02    0.1265254478E+00    0.5775154288E+00
    0.1700000000E+05    0.5391493289E+00    0.8622897330E-01    0.9141380408E-02    0.1269106965E+00    0.5791126736E+00
    0.1900000000E+05    0.5403507584E+00    0.8633981323E-01    0.8617718838E-02    0.1272171302E+00    0.5804266487E+00
    0.2100000000E+05    0.5413209962E+00    0.8642734208E-01    0.8172455332E-02    0.1274669979E+00    0.5815307327E+00
    0.2300000000E+05    0.5421204678E+00    0.8649757613E-01    0.7787861817E-02    0.1276748781E+00    0.5824744539E+00
    0.2500000000E+05    0.5427902863E+00    0.8655465075E-01    0.7451351786E-02    0.1278507228E+00    0.5832925523E+00
    0.2700000000E+05    0.5433593846E+00    0.8660150046E-01    0.7153710863E-02    0.1280015582E+00    0.5840101773E+00
    0.2900000000E+05    0.5438487071E+00    0.8664026392E-01    0.6888018396E-02    0.1281324878E+00    0.5846460220E+00
    0.3100000000E+05    0.5442737847E+00    0.8667253540E-01    0.6648962432E-02    0.1282473082E+00    0.5852142956E+00
    0.3300000000E+05    0.5446463744E+00    0.8669952670E-01    0.6432389091E-02    0.1283489028E+00    0.5857260093E+00
    0.3500000000E+05    0.5449755383E+00    0.8672217458E-01    0.6234997130E-02    0.1284395016E+00    0.5861898398E+00
    0.3700000000E+05    0.5452683725E+00    0.8674121398E-01    0.6054125493E-02    0.1285208566E+00    0.5866127257E+00
    0.3900000000E+05    0.5455305120E+00    0.8675722910E-01    0.5887602144E-02    0.1285943633E+00    0.5870002881E+00
    0.4100000000E+05    0.5457664876E+00    0.8677068975E-01    0.5733634345E-02    0.1286611477E+00    0.5873571336E+00
    0.4300000000E+05    0.5459799833E+00    0.8678197772E-01    0.5590727587E-02    0.1287221284E+00    0.5876870770E+00
    0.4500000000E+05    0.5461740248E+00    0.8679140617E-01    0.5457624729E-02    0.1287780622E+00    0.5879933067E+00
    0.4700000000E+05    0.5463511205E+00    0.8679923418E-01    0.5333259660E-02    0.1288295785E+00    0.5882785107E+00
    0.4900000000E+05    0.5465133667E+00    0.8680567775E-01    0.5216721549E-02    0.1288772052E+00    0.5885449723E+00
    0.1000000000E+05    0.5311273827E+00    0.8546422633E-01    0.1212291573E-01    0.1249142317E+00    0.5713346796E+00
    0.3000000000E+05    0.5440684680E+00    0.8665712792E-01    0.6765443479E-02    0.1281917136E+00    0.5849378538E+00
    0.5000000000E+05    0.5465894841E+00    0.8680843821E-01    0.5161138437E-02    0.1288997021E+00    0.5886717964E+00
    0.7000000000E+05    0.5476434270E+00    0.8682267316E-01    0.4317279293E-02    0.1292245091E+00    0.5905779021E+00
    0.9000000000E+05    0.5482154280E+00    0.8679948463E-01    0.3777664494E-02    0.1294169108E+00    0.5917812565E+00
    0.1100000000E+06    0.5485712045E+00    0.8676380323E-01    0.3395260601E-02    0.1295469943E+00    0.5926297575E+00
    0.1300000000E+06    0.5488119665E+00    0.8672407340E-01    0.3106379431E-02    0.1296423638E+00    0.5932702224E+00
    0.1500000000E+06    0.5489845264E+00    0.8668362423E-01    0.2878391859E-02    0.1297162060E+00    0.5937765288E+00
    0.1700000000E+06    0.5491134597E+00    0.8664386570E-01    0.2692637191E-02    0.1297756643E+00    0.5941903809E+00
    0.1900000000E+06    0.5492128799E+00    0.8660539754E-01    0.2537575260E-02    0.1298249690E+00    0.5945373205E+00
    0.2100000000E+06    0.5492914555E+00    0.8656845082E-01    0.2405638311E-02    0.1298667978E+00    0.5948339750E+00
    0.2300000000E+06    0.5493547964E+00    0.8653308156E-01    0.2291631521E-02    0.1299029353E+00    0.5950916944E+00
    0.2500000000E+06    0.5494066885E+00    0.8649926157E-01    0.2191855789E-02    0.1299346217E+00    0.5953185266E+00
    0.2700000000E+06    0.5494497760E+00    0.8646692328E-01    0.2103596624E-02    0.1299627478E+00    0.5955203582E+00
    0.2900000000E+06    0.5494859592E+00    0.8643598249E-01    0.2024811346E-02    0.1299879725E+00    0.5957016084E+00
    0.3100000000E+06    0.5495166376E+00    0.8640635008E-01    0.1953929663E-02    0.1300107945E+00    0.5958656685E+00
    0.3300000000E+06    0.5495428635E+00    0.8637793807E-01    0.1889722085E-02    0.1300315991E+00    0.5960151909E+00
    0.3500000000E+06    0.5495654427E+00    0.8635066256E-01    0.1831210497E-02    0.1300506895E+00    0.5961522839E+00
    0.3700000000E+06    0.5495850021E+00    0.8632444510E-01    0.1777605811E-02    0.1300683080E+00    0.5962786479E+00
    0.3900000000E+06    0.5496020362E+00    0.8629921313E-01    0.1728263517E-02    0.1300846507E+00    0.5963956715E+00
    0.4100000000E+06    0.5496169401E+00    0.8627489996E-01    0.1682651372E-02    0.1300998784E+00    0.5965045021E+00
    0.4300000000E+06    0.5496300330E+00    0.8625144449E-01    0.1640325479E-02    0.1301141244E+00    0.5966060966E+00
    0.4500000000E+06    0.5496415752E+00    0.8622879083E-01    0.1600912315E-02    0.1301275005E+00    0.5967012611E+00
    0.4700000000E+06    0.5496517813E+00    0.8620688792E-01    0.1564095034E-02    0.1301401007E+00    0.5967906798E+00
    0.4900000000E+06    0.5496608294E+00    0.8618568903E-01    0.1529602881E-02    0.1301520054E+00    0.5968749379E+00
    0.1000000000E+06    0.5484121014E+00    0.8678249289E-01    0.3571848067E-02    0.1294875132E+00    0.5922381876E+00
    0.3000000000E+06    0.5495019139E+00    0.8642100831E-01    0.1988466177E-02    0.1299996575E+00    0.5957856068E+00
    0.5000000000E+06    0.5496649667E+00    0.8617534008E-01    0.1513154649E-02    0.1301577187E+00    0.5969152921E+00
    0.7000000000E+06    0.5497128608E+00    0.8599667064E-01    0.1263705709E-02    0.1302479888E+00    0.5975437659E+00
    0.9000000000E+06    0.5497274257E+00    0.8585643975E-01    0.1104507555E-02    0.1303104861E+00    0.5979658657E+00
    0.1100000000E+07    0.5497290665E+00    0.8574098737E-01    0.9918670989E-03    0.1303580721E+00    0.5982782821E+00
    0.1300000000E+07    0.5497249313E+00    0.8564282677E-01    0.9068817770E-03    0.1303964120E+00    0.5985236855E+00
    0.1500000000E+07    0.5497180358E+00    0.8555742205E-01    0.8398798151E-03    0.1304284788E+00    0.5987243475E+00
    0.1700000000E+07    0.5497098092E+00    0.8548181849E-01    0.7853364927E-03    0.1304560188E+00    0.5988932378E+00
    0.1900000000E+07    0.5497009827E+00    0.8541398386E-01    0.7398388550E-03    0.1304801424E+00    0.5990385188E+00
    0.2100000000E+07    0.5496919493E+00    0.8535246031E-01    0.7011508989E-03    0.1305015979E+00    0.5991656339E+00
    0.2300000000E+07    0.5496829268E+00    0.8529616628E-01    0.6677390391E-03    0.1305209135E+00    0.5992783805E+00
    0.2500000000E+07    0.5496740371E+00    0.8524427710E-01    0.6385120763E-03    0.1305384750E+00    0.5993795048E+00
    0.2700000000E+07    0.5496653474E+00    0.8519614947E-01    0.6126698091E-03    0.1305545731E+00    0.5994710526E+00
    0.2900000000E+07    0.5496568931E+00    0.8515127182E-01    0.5896104494E-03    0.1305694318E+00    0.5995545855E+00
    0.3100000000E+07    0.5496486905E+00    0.8510923061E-01    0.5688716384E-03    0.1305832278E+00    0.5996313207E+00
    0.3300000000E+07    0.5496407446E+00    0.8506968672E-01    0.5500915489E-03    0.1305961024E+00    0.5997022241E+00
    0.3500000000E+07    0.5496330532E+00    0.8503235859E-01    0.5329824660E-03    0.1306081706E+00    0.5997680741E+00
    0.3700000000E+07    0.5496256104E+00    0.8499700988E-01    0.5173123789E-03    0.1306195272E+00    0.5998295066E+00
    0.3900000000E+07    0.5496184076E+00    0.8496344022E-01    0.5028918624E-03    0.1306302512E+00    0.5998870471E+00
    0.4100000000E+07    0.5496114351E+00    0.8493147831E-01    0.4895645445E-03    0.1306404093E+00    0.5999411351E+00
    0.4300000000E+07    0.5496046827E+00    0.8490097650E-01    0.4772000550E-03    0.1306500580E+00    0.5999921409E+00
    0.4500000000E+07    0.5495981400E+00    0.8487180664E-01    0.4656887283E-03    0.1306592459E+00    0.6000403798E+00
    0.4700000000E+07    0.5495917967E+00    0.8484385679E-01    0.4549375659E-03    0.1306680150E+00    0.6000861221E+00
    0.4900000000E+07    0.5495856430E+00    0.8481702859E-01    0.4448671213E-03    0.1306764017E+00    0.6001296012E+00
    0.1000000000E+07    0.5497292663E+00    0.8579617742E-01    0.1043863093E-02    0.1303356977E+00    0.5981324270E+00
    0.3000000000E+07    0.5496527598E+00    0.8512991937E-01    0.5789755885E-03    0.1305764531E+00    0.5995937374E+00
    0.5000000000E+07    0.5495826343E+00    0.8480400755E-01    0.4400654369E-03    0.1306804618E+00    0.6001505564E+00
    0.7000000000E+07    0.5495303700E+00    0.8458584539E-01    0.3672919746E-03    0.1307475980E+00    0.6004885852E+00
    0.9000000000E+07    0.5494891476E+00    0.8442151666E-01    0.3208947801E-03    0.1307972563E+00    0.6007289927E+00
    0.1100000000E+08    0.5494551945E+00    0.8428960788E-01    0.2880886192E-03    0.1308366802E+00    0.6009145606E+00
    0.1300000000E+08    0.5494263537E+00    0.8417939634E-01    0.2633490710E-03    0.1308693756E+00    0.6010651792E+00
    0.1500000000E+08    0.5494012953E+00    0.8408473571E-01    0.2438519111E-03    0.1308973078E+00    0.6011916593E+00
    0.1700000000E+08    0.5493791454E+00    0.8400177209E-01    0.2279849303E-03    0.1309216901E+00    0.6013005079E+00
    0.1900000000E+08    0.5493593006E+00    0.8392792847E-01    0.2147526803E-03    0.1309433241E+00    0.6013959360E+00
    0.2100000000E+08    0.5493413269E+00    0.8386139614E-01    0.2035032653E-03    0.1309627672E+00    0.6014808201E+00
    0.2300000000E+08    0.5493249023E+00    0.8380085652E-01    0.1937897331E-03    0.1309804228E+00    0.6015572097E+00
    0.2500000000E+08    0.5493097809E+00    0.8374531860E-01    0.1852941568E-03    0.1309965921E+00    0.6016266149E+00
    0.2700000000E+08    0.5492957713E+00    0.8369401865E-01    0.1777834538E-03    0.1310115063E+00    0.6016901798E+00
