  Pressure (Pa) 22mC5-400 (mol/kg) 3mC6-400 (mol/kg) 33mC5-400 (mol/kg) 23mC5-400 (mol/kg) C7-400 (mol/kg)
    0.1000000000E+01    0.1594158969E-02    0.5233024217E-02    0.1287668898E-03    0.9330544797E-04    0.6793578997E-02
    0.3000000000E+01    0.4757630463E-02    0.1515974209E-01    0.3742907694E-03    0.2784633744E-03    0.1968391733E-01
    0.5000000000E+01    0.7888413220E-02    0.2442704996E-01    0.6051156075E-03    0.4617097233E-03    0.3172217182E-01
    0.7000000000E+01    0.1098702525E-01    0.3309852678E-01    0.8226372992E-03    0.6430747784E-03    0.4299036668E-01
    0.9000000000E+01    0.1405397360E-01    0.4122983268E-01    0.1028074309E-02    0.8225881832E-03    0.5356031800E-01
    0.1100000000E+02    0.1708975464E-01    0.4886990455E-01    0.1222494969E-02    0.1000278957E-02    0.6349517430E-01
    0.1300000000E+02    0.2009485436E-01    0.5606194135E-01    0.1406839917E-02    0.1176175512E-02    0.7285068610E-01
    0.1500000000E+02    0.2306974862E-01    0.6284422110E-01    0.1581940641E-02    0.1350305668E-02    0.8167625880E-01
    0.1700000000E+02    0.2601490343E-01    0.6925078216E-01    0.1748534908E-02    0.1522696668E-02    0.9001583060E-01
    0.1900000000E+02    0.2893077516E-01    0.7531199434E-01    0.1907279656E-02    0.1693375196E-02    0.9790860865E-01
    0.2100000000E+02    0.3181781085E-01    0.8105504019E-01    0.2058761823E-02    0.1862367386E-02    0.1053896893E+00
    0.2300000000E+02    0.3467644842E-01    0.8650432238E-01    0.2203507497E-02    0.2029698839E-02    0.1124905833E+00
    0.2500000000E+02    0.3750711686E-01    0.9168181022E-01    0.2341989664E-02    0.2195394638E-02    0.1192396624E+00
    0.2700000000E+02    0.4031023654E-01    0.9660733556E-01    0.2474634813E-02    0.2359479357E-02    0.1256625410E+00
    0.2900000000E+02    0.4308621934E-01    0.1012988466E+00    0.2601828580E-02    0.2521977078E-02    0.1317824031E+00
    0.3100000000E+02    0.4583546893E-01    0.1057726263E+00    0.2723920595E-02    0.2682911400E-02    0.1376202842E+00
    0.3300000000E+02    0.4855838093E-01    0.1100434811E+00    0.2841228653E-02    0.2842305453E-02    0.1431953143E+00
    0.3500000000E+02    0.5125534312E-01    0.1141249048E+00    0.2954042323E-02    0.3000181909E-02    0.1485249297E+00
    0.3700000000E+02    0.5392673566E-01    0.1180292205E+00    0.3062626077E-02    0.3156562992E-02    0.1536250554E+00
    0.3900000000E+02    0.5657293122E-01    0.1217677051E+00    0.3167222013E-02    0.3311470493E-02    0.1585102665E+00
    0.4100000000E+02    0.5919429523E-01    0.1253506979E+00    0.3268052230E-02    0.3464925775E-02    0.1631939276E+00
    0.4300000000E+02    0.6179118599E-01    0.1287876963E+00    0.3365320908E-02    0.3616949786E-02    0.1676883164E+00
    0.4500000000E+02    0.6436395491E-01    0.1320874396E+00    0.3459216134E-02    0.3767563072E-02    0.1720047317E+00
    0.4700000000E+02    0.6691294661E-01    0.1352579830E+00    0.3549911508E-02    0.3916785781E-02    0.1761535895E+00
    0.4900000000E+02    0.6943849912E-01    0.1383067636E+00    0.3637567560E-02    0.4064637677E-02    0.1801445071E+00
    0.1000000000E+02    0.1557572942E-01    0.4510844876E-01    0.1126600134E-02    0.9116596091E-03    0.5860348852E-01
    0.3000000000E+02    0.4446416088E-01    0.1035619949E+00    0.2663491743E-02    0.2602638207E-02    0.1347353536E+00
    0.5000000000E+02    0.7069258955E-01    0.1397876623E+00    0.3680302743E-02    0.4138055643E-02    0.1820835442E+00
    0.7000000000E+02    0.9462146393E-01    0.1644350357E+00    0.4406352825E-02    0.5538985582E-02    0.2144119346E+00
    0.9000000000E+02    0.1165483900E+00    0.1822872849E+00    0.4946492589E-02    0.6822828100E-02    0.2379097777E+00
    0.1100000000E+03    0.1367212560E+00    0.1958117354E+00    0.5357142522E-02    0.8004076858E-02    0.2557734690E+00
    0.1300000000E+03    0.1553482080E+00    0.2064101480E+00    0.5672387199E-02    0.9094902186E-02    0.2698211145E+00
    0.1500000000E+03    0.1726053205E+00    0.2149379210E+00    0.5914626581E-02    0.1010559950E-01    0.2811634880E+00
    0.1700000000E+03    0.1886425608E+00    0.2219466610E+00    0.6099520973E-02    0.1104493790E-01    0.2905177225E+00
    0.1900000000E+03    0.2035884704E+00    0.2278080541E+00    0.6238531476E-02    0.1192043389E-01    0.2983676127E+00
    0.2100000000E+03    0.2175538763E+00    0.2327816950E+00    0.6340337428E-02    0.1273856828E-01    0.3050514539E+00
    0.2300000000E+03    0.2306348564E+00    0.2370543805E+00    0.6411683342E-02    0.1350495955E-01    0.3108129633E+00
    0.2500000000E+03    0.2429151280E+00    0.2407639560E+00    0.6457914820E-02    0.1422450349E-01    0.3158322044E+00
    0.2700000000E+03    0.2544679874E+00    0.2440143642E+00    0.6483334314E-02    0.1490148661E-01    0.3202451173E+00
    0.2900000000E+03    0.2653578943E+00    0.2468854639E+00    0.6491446975E-02    0.1553967872E-01    0.3241562685E+00
    0.3100000000E+03    0.2756417755E+00    0.2494396231E+00    0.6485136308E-02    0.1614240919E-01    0.3276474197E+00
    0.3300000000E+03    0.2853701035E+00    0.2517262578E+00    0.6466793231E-02    0.1671262998E-01    0.3307834311E+00
    0.3500000000E+03    0.2945877948E+00    0.2537850287E+00    0.6438413125E-02    0.1725296819E-01    0.3336164202E+00
    0.3700000000E+03    0.3033349618E+00    0.2556481339E+00    0.6401670248E-02    0.1776576997E-01    0.3361887492E+00
    0.3900000000E+03    0.3116475448E+00    0.2573419854E+00    0.6357975726E-02    0.1825313753E-01    0.3385352088E+00
    0.4100000000E+03    0.3195578466E+00    0.2588884526E+00    0.6308523373E-02    0.1871696038E-01    0.3406846403E+00
    0.4300000000E+03    0.3270949871E+00    0.2603057979E+00    0.6254326330E-02    0.1915894186E-01    0.3426611572E+00
    0.4500000000E+03    0.3342852899E+00    0.2616093912E+00    0.6196246651E-02    0.1958062183E-01    0.3444850777E+00
    0.4700000000E+03    0.3411526147E+00    0.2628122601E+00    0.6135019398E-02    0.1998339602E-01    0.3461736439E+00
    0.4900000000E+03    0.3477186422E+00    0.2639255197E+00    0.6071272426E-02    0.2036853275E-01    0.3477415844E+00
    0.1000000000E+03    0.1268402394E+00    0.1894859450E+00    0.5165515528E-02    0.7425467415E-02    0.2474103505E+00
    0.3000000000E+03    0.2705722936E+00    0.2481988117E+00    0.6489934847E-02    0.1584528398E-01    0.3259499498E+00
    0.5000000000E+03    0.3508949102E+00    0.2644515813E+00    0.6038625016E-02    0.2055485217E-01    0.3484843462E+00
    0.7000000000E+03    0.4025739066E+00    0.2720004780E+00    0.5348267188E-02    0.2358764031E-01    0.3593098008E+00
    0.9000000000E+03    0.4387189377E+00    0.2763265478E+00    0.4701810038E-02    0.2571066875E-01    0.3657212390E+00
    0.1100000000E+04    0.4654464023E+00    0.2791118490E+00    0.4150477335E-02    0.2728190321E-01    0.3699858378E+00
    0.1300000000E+04    0.4860176612E+00    0.2810436403E+00    0.3691422523E-02    0.2849227379E-01    0.3730410943E+00
    0.1500000000E+04    0.5023387543E+00    0.2824545833E+00    0.3310298814E-02    0.2945339920E-01    0.3753460904E+00
    0.1700000000E+04    0.5156009216E+00    0.2835250671E+00    0.2992360037E-02    0.3023505979E-01    0.3771526058E+00
    0.1900000000E+04    0.5265879289E+00    0.2843612577E+00    0.2725101825E-02    0.3088318049E-01    0.3786104837E+00
    0.2100000000E+04    0.5358369069E+00    0.2850296367E+00    0.2498526865E-02    0.3142924383E-01    0.3798145960E+00
    0.2300000000E+04    0.5437283995E+00    0.2855739135E+00    0.2304795060E-02    0.3189556094E-01    0.3808280016E+00
    0.2500000000E+04    0.5505395750E+00    0.2860239775E+00    0.2137781372E-02    0.3229838682E-01    0.3816942905E+00
    0.2700000000E+04    0.5564770939E+00    0.2864009402E+00    0.1992685982E-02    0.3264984496E-01    0.3824445853E+00
    0.2900000000E+04    0.5616981778E+00    0.2867201245E+00    0.1865724084E-02    0.3295916121E-01    0.3831017181E+00
    0.3100000000E+04    0.5663245464E+00    0.2869929119E+00    0.1753888363E-02    0.3323348026E-01    0.3836828303E+00
    0.3300000000E+04    0.5704518921E+00    0.2872279264E+00    0.1654769693E-02    0.3347842066E-01    0.3842010500E+00
    0.3500000000E+04    0.5741564751E+00    0.2874318173E+00    0.1566422208E-02    0.3369846129E-01    0.3846666073E+00
    0.3700000000E+04    0.5774998102E+00    0.2876097899E+00    0.1487261518E-02    0.3389721606E-01    0.3850875967E+00
    0.3900000000E+04    0.5805320615E+00    0.2877659748E+00    0.1415987527E-02    0.3407763288E-01    0.3854705096E+00
    0.4100000000E+04    0.5832945401E+00    0.2879036889E+00    0.1351525512E-02    0.3424214014E-01    0.3858206153E+00
    0.4300000000E+04    0.5858215719E+00    0.2880256255E+00    0.1292980821E-02    0.3439275616E-01    0.3861422372E+00
    0.4500000000E+04    0.5881419111E+00    0.2881339922E+00    0.1239603758E-02    0.3453117218E-01    0.3864389577E+00
    0.4700000000E+04    0.5902798249E+00    0.2882306150E+00    0.1190762165E-02    0.3465881590E-01    0.3867137713E+00
    0.4900000000E+04    0.5922559345E+00    0.2883170163E+00    0.1145919854E-02    0.3477690089E-01    0.3869692017E+00
    0.1000000000E+04    0.4530130096E+00    0.2778565844E+00    0.4413918025E-02    0.2655080978E-01    0.3680468155E+00
    0.3000000000E+04    0.5640791992E+00    0.2868617249E+00    0.1808078275E-02    0.3310031364E-01    0.3834008774E+00
    0.5000000000E+04    0.5931889248E+00    0.2883567917E+00    0.1124852829E-02    0.3483268922E-01    0.3870903306E+00
    0.7000000000E+04    0.6065358027E+00    0.2888397340E+00    0.8315348215E-03    0.3563402623E-01    0.3888781158E+00
    0.9000000000E+04    0.6141810719E+00    0.2890172428E+00    0.6708465304E-03    0.3609705624E-01    0.3899793983E+00
    0.1100000000E+05    0.6191311052E+00    0.2890715144E+00    0.5696040988E-03    0.3639944839E-01    0.3907472442E+00
    0.1300000000E+05    0.6225960301E+00    0.2890680832E+00    0.4998154096E-03    0.3661293562E-01    0.3913245958E+00
    0.1500000000E+05    0.6251563048E+00    0.2890353135E+00    0.4486180630E-03    0.3677202881E-01    0.3917812610E+00
    0.1700000000E+05    0.6271249414E+00    0.2889870170E+00    0.4093135960E-03    0.3689539313E-01    0.3921557720E+00
    0.1900000000E+05    0.6286855627E+00    0.2889304809E+00    0.3780810423E-03    0.3699401043E-01    0.3924713251E+00
    0.2100000000E+05    0.6299529704E+00    0.2888697726E+00    0.3525845240E-03    0.3707476672E-01    0.3927428198E+00
    0.2300000000E+05    0.6310026133E+00    0.2888072527E+00    0.3313161266E-03    0.3714220078E-01    0.3929803206E+00
    0.2500000000E+05    0.6318861120E+00    0.2887443266E+00    0.3132587100E-03    0.3719942699E-01    0.3931909056E+00
    0.2700000000E+05    0.6326399746E+00    0.2886818418E+00    0.2977009097E-03    0.3724865435E-01    0.3933797190E+00
    0.2900000000E+05    0.6332907479E+00    0.2886203093E+00    0.2841299179E-03    0.3729149379E-01    0.3935506036E+00
    0.3100000000E+05    0.6338581970E+00    0.2885600315E+00    0.2721664336E-03    0.3732914813E-01    0.3937064971E+00
    0.3300000000E+05    0.6343573401E+00    0.2885011794E+00    0.2615236385E-03    0.3736253398E-01    0.3938496910E+00
    0.3500000000E+05    0.6347997925E+00    0.2884438398E+00    0.2519804480E-03    0.3739236228E-01    0.3939820030E+00
    0.3700000000E+05    0.6351946784E+00    0.2883880454E+00    0.2433635593E-03    0.3741919309E-01    0.3941048972E+00
    0.3900000000E+05    0.6355492647E+00    0.2883337941E+00    0.2355350962E-03    0.3744347373E-01    0.3942195688E+00
    0.4100000000E+05    0.6358694104E+00    0.2882810613E+00    0.2283839113E-03    0.3746556591E-01    0.3943270046E+00
    0.4300000000E+05    0.6361598919E+00    0.2882298086E+00    0.2218193423E-03    0.3748576531E-01    0.3944280283E+00
    0.4500000000E+05    0.6364246417E+00    0.2881799891E+00    0.2157666482E-03    0.3750431607E-01    0.3945233338E+00
    0.4700000000E+05    0.6366669271E+00    0.2881315512E+00    0.2101636198E-03    0.3752142161E-01    0.3946135108E+00
    0.4900000000E+05    0.6368894849E+00    0.2880844411E+00    0.2049580263E-03    0.3753725280E-01    0.3946990642E+00
    0.1000000000E+05    0.6168954991E+00    0.2890543595E+00    0.6150773001E-03    0.3626255746E-01    0.3903935300E+00
    0.3000000000E+05    0.6335838564E+00    0.2885900004E+00    0.2779669644E-03    0.3731090620E-01    0.3936302682E+00
    0.5000000000E+05    0.6369941021E+00    0.2880613670E+00    0.2024901842E-03    0.3754473659E-01    0.3947402455E+00
    0.7000000000E+05    0.6384592477E+00    0.2876571069E+00    0.1661314032E-03    0.3765321552E-01    0.3954011676E+00
    0.9000000000E+05    0.6392727354E+00    0.2873348278E+00    0.1438571902E-03    0.3771786850E-01    0.3958694730E+00
    0.1100000000E+06    0.6397895064E+00    0.2870677957E+00    0.1284663240E-03    0.3776175375E-01    0.3962313586E+00
    0.1300000000E+06    0.6401464347E+00    0.2868401039E+00    0.1170307937E-03    0.3779401743E-01    0.3965259346E+00
    0.1500000000E+06    0.6404074752E+00    0.2866417460E+00    0.1081104975E-03    0.3781904999E-01    0.3967741706E+00
    0.1700000000E+06    0.6406065057E+00    0.2864660673E+00    0.1009050596E-03    0.3783923849E-01    0.3969885892E+00
    0.1900000000E+06    0.6407631426E+00    0.2863084334E+00    0.9492987522E-04    0.3785600054E-01    0.3971772562E+00
    0.2100000000E+06    0.6408895283E+00    0.2861654925E+00    0.8987228517E-04    0.3787023549E-01    0.3973456675E+00
    0.2300000000E+06    0.6409935793E+00    0.2860347443E+00    0.8552041869E-04    0.3788254394E-01    0.3974977335E+00
    0.2500000000E+06    0.6410806766E+00    0.2859142753E+00    0.8172497889E-04    0.3789334383E-01    0.3976363347E+00
    0.2700000000E+06    0.6411546048E+00    0.2858025886E+00    0.7837735220E-04    0.3790293591E-01    0.3977636536E+00
    0.2900000000E+06    0.6412181027E+00    0.2856984918E+00    0.7539639759E-04    0.3791154279E-01    0.3978813829E+00
    0.3100000000E+06    0.6412732012E+00    0.2856010194E+00    0.7272012326E-04    0.3791933317E-01    0.3979908616E+00
    0.3300000000E+06    0.6413214375E+00    0.2855093792E+00    0.7030024916E-04    0.3792643754E-01    0.3980931670E+00
    0.3500000000E+06    0.6413639966E+00    0.2854229128E+00    0.6809854357E-04    0.3793295865E-01    0.3981891790E+00
    0.3700000000E+06    0.6414018065E+00    0.2853410674E+00    0.6608428811E-04    0.3793897863E-01    0.3982796249E+00
    0.3900000000E+06    0.6414356041E+00    0.2852633740E+00    0.6423248245E-04    0.3794456407E-01    0.3983651131E+00
    0.4100000000E+06    0.6414659823E+00    0.2851894319E+00    0.6252254652E-04    0.3794976957E-01    0.3984461576E+00
    0.4300000000E+06    0.6414934230E+00    0.2851188954E+00    0.6093736521E-04    0.3795464045E-01    0.3985231966E+00
    0.4500000000E+06    0.6415183221E+00    0.2850514646E+00    0.5946257369E-04    0.3795921462E-01    0.3985966064E+00
    0.4700000000E+06    0.6415410077E+00    0.2849868775E+00    0.5808601482E-04    0.3796352414E-01    0.3986667129E+00
    0.4900000000E+06    0.6415617544E+00    0.2849249040E+00    0.5679732186E-04    0.3796759631E-01    0.3987337999E+00
    0.1000000000E+06    0.6395570941E+00    0.2871955809E+00    0.1355358765E-03    0.3774166959E-01    0.3960606644E+00
    0.3000000000E+06    0.6412465962E+00    0.2856489806E+00    0.7402346460E-04    0.3791553113E-01    0.3979370809E+00
    0.5000000000E+06    0.6415714743E+00    0.2848948329E+00    0.5618309359E-04    0.3796955083E-01    0.3987662901E+00
    0.7000000000E+06    0.6417048046E+00    0.2843917350E+00    0.4689011052E-04    0.3800044469E-01    0.3993045705E+00
    0.9000000000E+06    0.6417755018E+00    0.2840136517E+00    0.4097791993E-04    0.3802184320E-01    0.3997036977E+00
    0.1100000000E+07    0.6418183000E+00    0.2837106537E+00    0.3680158368E-04    0.3803813851E-01    0.4000209781E+00
    0.1300000000E+07    0.6418463900E+00    0.2834578014E+00    0.3365358804E-04    0.3805126786E-01    0.4002843064E+00
    0.1500000000E+07    0.6418658472E+00    0.2832408293E+00    0.3117316688E-04    0.3806224858E-01    0.4005093772E+00
    0.1700000000E+07    0.6418798445E+00    0.2830508086E+00    0.2915470759E-04    0.3807167860E-01    0.4007059007E+00
    0.1900000000E+07    0.6418901935E+00    0.2828817775E+00    0.2747139096E-04    0.3807993817E-01    0.4008803044E+00
    0.2100000000E+07    0.6418979995E+00    0.2827295573E+00    0.2604022676E-04    0.3808728369E-01    0.4010370637E+00
    0.2300000000E+07    0.6419039729E+00    0.2825911048E+00    0.2480434463E-04    0.3809389602E-01    0.4011794201E+00
    0.2500000000E+07    0.6419085895E+00    0.2824641351E+00    0.2372330637E-04    0.3809990743E-01    0.4013097969E+00
    0.2700000000E+07    0.6419121790E+00    0.2823468887E+00    0.2276747331E-04    0.3810541747E-01    0.4014300531E+00
    0.2900000000E+07    0.6419149763E+00    0.2822379821E+00    0.2191456514E-04    0.3811050297E-01    0.4015416461E+00
    0.3100000000E+07    0.6419171531E+00    0.2821363074E+00    0.2114746944E-04    0.3811522440E-01    0.4016457397E+00
    0.3300000000E+07    0.6419188370E+00    0.2820409638E+00    0.2045279828E-04    0.3811963020E-01    0.4017432779E+00
    0.3500000000E+07    0.6419201252E+00    0.2819512092E+00    0.1981990833E-04    0.3812375979E-01    0.4018350369E+00
    0.3700000000E+07    0.6419210922E+00    0.2818664244E+00    0.1924021844E-04    0.3812764564E-01    0.4019216630E+00
    0.3900000000E+07    0.6419217964E+00    0.2817860882E+00    0.1870672363E-04    0.3813131485E-01    0.4020036996E+00
    0.4100000000E+07    0.6419222838E+00    0.2817097568E+00    0.1821364194E-04    0.3813479023E-01    0.4020816083E+00
    0.4300000000E+07    0.6419225914E+00    0.2816370501E+00    0.1775615332E-04    0.3813809118E-01    0.4021557843E+00
    0.4500000000E+07    0.6419227487E+00    0.2815676395E+00    0.1733020357E-04    0.3814123434E-01    0.4022265688E+00
    0.4700000000E+07    0.6419227801E+00    0.2815012391E+00    0.1693235488E-04    0.3814423406E-01    0.4022942581E+00
    0.4900000000E+07    0.6419227053E+00    0.2814375987E+00    0.1655967057E-04    0.3814710285E-01    0.4023591113E+00
    0.1000000000E+07    0.6417993129E+00    0.2838546739E+00    0.3872880740E-04    0.3803047652E-01    0.3998704241E+00
    0.3000000000E+07    0.6419161334E+00    0.2821863012E+00    0.2152120152E-04    0.3811290593E-01    0.4015945669E+00
    0.5000000000E+07    0.6419226333E+00    0.2814067437E+00    0.1638196182E-04    0.3814849162E-01    0.4023905467E+00
    0.7000000000E+07    0.6419184054E+00    0.2808926554E+00    0.1368773873E-04    0.3817145149E-01    0.4029136482E+00
    0.9000000000E+07    0.6419121611E+00    0.2805084903E+00    0.1196887536E-04    0.3818842901E-01    0.4033038683E+00
    0.1100000000E+08    0.6419057005E+00    0.2802016679E+00    0.1075279819E-04    0.3820190460E-01    0.4036151945E+00
    0.1300000000E+08    0.6418994999E+00    0.2799462143E+00    0.9835262029E-05    0.3821307839E-01    0.4038742096E+00
    0.1500000000E+08    0.6418936816E+00    0.2797273767E+00    0.9111820642E-05    0.3822262306E-01    0.4040959805E+00
    0.1700000000E+08    0.6418882573E+00    0.2795359664E+00    0.8522832777E-05    0.3823095374E-01    0.4042898780E+00
    0.1900000000E+08    0.6418832033E+00    0.2793658708E+00    0.8031462481E-05    0.3823834468E-01    0.4044621286E+00
    0.2100000000E+08    0.6418784858E+00    0.2792128170E+00    0.7613579953E-05    0.3824498658E-01    0.4046170810E+00
    0.2300000000E+08    0.6418740705E+00    0.2790737008E+00    0.7252636933E-05    0.3825101741E-01    0.4047578926E+00
    0.2500000000E+08    0.6418699254E+00    0.2789461955E+00    0.6936859313E-05    0.3825654022E-01    0.4048869282E+00
    0.2700000000E+08    0.6418660223E+00    0.2788285125E+00    0.6657613056E-05    0.3826163398E-01    0.4050060050E+00
