  Pressure (Pa) 22mC5-400 (mol/kg) 3mC6-400 (mol/kg) 33mC5-400 (mol/kg) 23mC5-400 (mol/kg) C7-400 (mol/kg)
    0.1000000000E+01    0.1592644261E-02    0.5255556464E-03    0.2582682034E-03    0.6525180764E-03    0.8528357280E-02
    0.3000000000E+01    0.4744173770E-02    0.1535042029E-02    0.7546920382E-03    0.1943734985E-02    0.2491281966E-01
    0.5000000000E+01    0.7851512101E-02    0.2492601244E-02    0.1225948627E-02    0.3216862156E-02    0.4045855515E-01
    0.7000000000E+01    0.1091561907E-01    0.3402143757E-02    0.1673844831E-02    0.4472292390E-02    0.5522862398E-01
    0.9000000000E+01    0.1393742665E-01    0.4267196875E-02    0.2100012174E-02    0.5710407090E-02    0.6927991255E-01
    0.1100000000E+02    0.1691783996E-01    0.5090950560E-02    0.2505927929E-02    0.6931576671E-02    0.8266387110E-01
    0.1300000000E+02    0.1985773821E-01    0.5876296808E-02    0.2892933223E-02    0.8136160955E-02    0.9542714818E-01
    0.1500000000E+02    0.2275797566E-01    0.6625863654E-02    0.3262248639E-02    0.9324509542E-02    0.1076121382E+00
    0.1700000000E+02    0.2561938245E-01    0.7342044609E-02    0.3614987722E-02    0.1049696217E-01    0.1192574556E+00
    0.1900000000E+02    0.2844276549E-01    0.8027024258E-02    0.3952168691E-02    0.1165384907E-01    0.1303983474E+00
    0.2100000000E+02    0.3122890920E-01    0.8682800566E-02    0.4274724644E-02    0.1279549127E-01    0.1410670524E+00
    0.2300000000E+02    0.3397857638E-01    0.9311204393E-02    0.4583512474E-02    0.1392220095E-01    0.1512931155E+00
    0.2500000000E+02    0.3669250884E-01    0.9913916606E-02    0.4879320672E-02    0.1503428171E-01    0.1611036635E+00
    0.2700000000E+02    0.3937142822E-01    0.1049248313E-01    0.5162876197E-02    0.1613202887E-01    0.1705236477E+00
    0.2900000000E+02    0.4201603660E-01    0.1104832825E-01    0.5434850513E-02    0.1721572978E-01    0.1795760577E+00
    0.3100000000E+02    0.4462701716E-01    0.1158276628E-01    0.5695864935E-02    0.1828566404E-01    0.1882821108E+00
    0.3300000000E+02    0.4720503487E-01    0.1209701207E-01    0.5946495357E-02    0.1934210378E-01    0.1966614193E+00
    0.3500000000E+02    0.4975073702E-01    0.1259219017E-01    0.6187276448E-02    0.2038531394E-01    0.2047321398E+00
    0.3700000000E+02    0.5226475385E-01    0.1306934308E-01    0.6418705395E-02    0.2141555244E-01    0.2125111057E+00
    0.3900000000E+02    0.5474769908E-01    0.1352943864E-01    0.6641245230E-02    0.2243307046E-01    0.2200139460E+00
    0.4100000000E+02    0.5720017049E-01    0.1397337655E-01    0.6855327809E-02    0.2343811266E-01    0.2272551906E+00
    0.4300000000E+02    0.5962275037E-01    0.1440199429E-01    0.7061356486E-02    0.2443091735E-01    0.2342483659E+00
    0.4500000000E+02    0.6201600606E-01    0.1481607240E-01    0.7259708499E-02    0.2541171673E-01    0.2410060798E+00
    0.4700000000E+02    0.6438049044E-01    0.1521633926E-01    0.7450737134E-02    0.2638073707E-01    0.2475400981E+00
    0.4900000000E+02    0.6671674235E-01    0.1560347532E-01    0.7634773657E-02    0.2733819892E-01    0.2538614144E+00
    0.1000000000E+02    0.1543275204E-01    0.4684048836E-02    0.2305414683E-02    0.6323087287E-02    0.7605228680E-01
    0.3000000000E+02    0.4332568837E-01    0.1131814500E-01    0.5566690705E-02    0.1775240056E-01    0.1839711173E+00
    0.5000000000E+02    0.6787444579E-01    0.1579231982E-01    0.7724267811E-02    0.2781266280E-01    0.2569455489E+00
    0.7000000000E+02    0.8966752681E-01    0.1901442221E-01    0.9213388737E-02    0.3674473129E-01    0.3096361528E+00
    0.9000000000E+02    0.1091613606E+00    0.2144584743E-01    0.1026374073E-01    0.4473541666E-01    0.3495005369E+00
    0.1100000000E+03    0.1267154244E+00    0.2334597322E-01    0.1101017523E-01    0.5193185398E-01    0.3807348089E+00
    0.1300000000E+03    0.1426167505E+00    0.2487184105E-01    0.1153808915E-01    0.5845153068E-01    0.4058817864E+00
    0.1500000000E+03    0.1570973703E+00    0.2612411051E-01    0.1190463845E-01    0.6438942487E-01    0.4265728016E+00
    0.1700000000E+03    0.1703469557E+00    0.2717028768E-01    0.1214969674E-01    0.6982317840E-01    0.4439028602E+00
    0.1900000000E+03    0.1825221289E+00    0.2805734193E-01    0.1230197759E-01    0.7481690658E-01    0.4586345218E+00
    0.2100000000E+03    0.1937534191E+00    0.2881896721E-01    0.1238267619E-01    0.7942404510E-01    0.4713153019E+00
    0.2300000000E+03    0.2041505308E+00    0.2947996508E-01    0.1240774810E-01    0.8368950617E-01    0.4823485751E+00
    0.2500000000E+03    0.2138063826E+00    0.3005899827E-01    0.1238939575E-01    0.8765133132E-01    0.4920381418E+00
    0.2700000000E+03    0.2228002382E+00    0.3057038036E-01    0.1233707202E-01    0.9134197281E-01    0.5006172113E+00
    0.2900000000E+03    0.2312001589E+00    0.3102527368E-01    0.1225817751E-01    0.9478929740E-01    0.5082678102E+00
    0.3100000000E+03    0.2390649430E+00    0.3143251174E-01    0.1215855672E-01    0.9801738020E-01    0.5151341156E+00
    0.3300000000E+03    0.2464456742E+00    0.3179917683E-01    0.1204285856E-01    0.1010471382E+00    0.5213318230E+00
    0.3500000000E+03    0.2533869661E+00    0.3213101370E-01    0.1191480277E-01    0.1038968398E+00    0.5269548608E+00
    0.3700000000E+03    0.2599279728E+00    0.3243273129E-01    0.1177737991E-01    0.1065825185E+00    0.5320802886E+00
    0.3900000000E+03    0.2661032129E+00    0.3270822618E-01    0.1163300342E-01    0.1091183100E+00    0.5367719282E+00
    0.4100000000E+03    0.2719432485E+00    0.3296075066E-01    0.1148362655E-01    0.1115167304E+00    0.5410830949E+00
    0.4300000000E+03    0.2774752462E+00    0.3319304065E-01    0.1133083324E-01    0.1137889054E+00    0.5450586778E+00
    0.4500000000E+03    0.2827234445E+00    0.3340741432E-01    0.1117590937E-01    0.1159447621E+00    0.5487367453E+00
    0.4700000000E+03    0.2877095452E+00    0.3360584890E-01    0.1101989902E-01    0.1179931889E+00    0.5521497950E+00
    0.4900000000E+03    0.2924530432E+00    0.3379004120E-01    0.1086364933E-01    0.1199421707E+00    0.5553257393E+00
    0.1000000000E+03    0.1181614586E+00    0.2245080364E-01    0.1066877007E-01    0.4842497357E-01    0.3660099707E+00
    0.3000000000E+03    0.2351960854E+00    0.3123437143E-01    0.1221064282E-01    0.9642936920E-01    0.5117911903E+00
    0.5000000000E+03    0.2947393744E+00    0.3387726209E-01    0.1078565458E-01    0.1208816463E+00    0.5568324619E+00
    0.7000000000E+03    0.3311952823E+00    0.3514215131E-01    0.9321356214E-02    0.1358700577E+00    0.5789416531E+00
    0.9000000000E+03    0.3558784848E+00    0.3587869220E-01    0.8121217702E-02    0.1460297819E+00    0.5921418038E+00
    0.1100000000E+04    0.3737031328E+00    0.3635759364E-01    0.7169513455E-02    0.1533747605E+00    0.6009419769E+00
    0.1300000000E+04    0.3871726177E+00    0.3669190138E-01    0.6412147075E-02    0.1589313528E+00    0.6072416805E+00
    0.1500000000E+04    0.3977025796E+00    0.3693714477E-01    0.5801639721E-02    0.1632801819E+00    0.6119819685E+00
    0.1700000000E+04    0.4061553705E+00    0.3712376020E-01    0.5302165603E-02    0.1667750775E+00    0.6156829922E+00
    0.1900000000E+04    0.4130866394E+00    0.3726980900E-01    0.4887576142E-02    0.1696441151E+00    0.6186559901E+00
    0.2100000000E+04    0.4188705729E+00    0.3738667580E-01    0.4538811438E-02    0.1720409445E+00    0.6210987701E+00
    0.2300000000E+04    0.4237683319E+00    0.3748188572E-01    0.4241845845E-02    0.1740728454E+00    0.6231431593E+00
    0.2500000000E+04    0.4279676774E+00    0.3756060754E-01    0.3986220492E-02    0.1758169757E+00    0.6248804506E+00
    0.2700000000E+04    0.4316070207E+00    0.3762650585E-01    0.3764024361E-02    0.1773302351E+00    0.6263759009E+00
    0.2900000000E+04    0.4347906045E+00    0.3768224893E-01    0.3569188881E-02    0.1786554933E+00    0.6276774159E+00
    0.3100000000E+04    0.4375984109E+00    0.3772982418E-01    0.3396996045E-02    0.1798256551E+00    0.6288209705E+00
    0.3300000000E+04    0.4400928142E+00    0.3777074116E-01    0.3243731543E-02    0.1808663913E+00    0.6298341144E+00
    0.3500000000E+04    0.4423231618E+00    0.3780616613E-01    0.3106436959E-02    0.1817980189E+00    0.6307383082E+00
    0.3700000000E+04    0.4443289977E+00    0.3783701379E-01    0.2982730402E-02    0.1826368249E+00    0.6315505224E+00
    0.3900000000E+04    0.4461423757E+00    0.3786401109E-01    0.2870674953E-02    0.1833960163E+00    0.6322843564E+00
    0.4100000000E+04    0.4477895479E+00    0.3788774270E-01    0.2768680965E-02    0.1840864137E+00    0.6329508381E+00
    0.4300000000E+04    0.4492922173E+00    0.3790868383E-01    0.2675432647E-02    0.1847169661E+00    0.6335590067E+00
    0.4500000000E+04    0.4506684799E+00    0.3792722450E-01    0.2589832257E-02    0.1852951380E+00    0.6341163424E+00
    0.4700000000E+04    0.4519335419E+00    0.3794368759E-01    0.2510957240E-02    0.1858272042E+00    0.6346290900E+00
    0.4900000000E+04    0.4531002734E+00    0.3795834253E-01    0.2438026982E-02    0.1863184776E+00    0.6351025047E+00
    0.1000000000E+04    0.3654565923E+00    0.3614130697E-01    0.7617672779E-02    0.1499755961E+00    0.5969403239E+00
    0.3000000000E+04    0.4362372305E+00    0.3770695382E-01    0.3480514501E-02    0.1792582126E+00    0.6282670508E+00
    0.5000000000E+04    0.4536502562E+00    0.3796506416E-01    0.2403579482E-02    0.1865502586E+00    0.6353258813E+00
    0.7000000000E+04    0.4614543379E+00    0.3804428642E-01    0.1907676834E-02    0.1898570350E+00    0.6385219751E+00
    0.9000000000E+04    0.4658667087E+00    0.3806981276E-01    0.1617055732E-02    0.1917485653E+00    0.6403697917E+00
    0.1100000000E+05    0.4686976455E+00    0.3807397709E-01    0.1423089993E-02    0.1929762857E+00    0.6415848977E+00
    0.1300000000E+05    0.4706651700E+00    0.3806836650E-01    0.1282773174E-02    0.1938394478E+00    0.6424505324E+00
    0.1500000000E+05    0.4721103212E+00    0.3805795894E-01    0.1175582875E-02    0.1944807531E+00    0.6431018820E+00
    0.1700000000E+05    0.4732156820E+00    0.3804515213E-01    0.1090429492E-02    0.1949769021E+00    0.6436118831E+00
    0.1900000000E+05    0.4740877608E+00    0.3803119263E-01    0.1020763716E-02    0.1953728137E+00    0.6440234683E+00
    0.2100000000E+05    0.4747928426E+00    0.3801676264E-01    0.9624509041E-03    0.1956965520E+00    0.6443636143E+00
    0.2300000000E+05    0.4753743223E+00    0.3800224787E-01    0.9127418183E-03    0.1959665621E+00    0.6446501570E+00
    0.2500000000E+05    0.4758617913E+00    0.3798786985E-01    0.8697309681E-03    0.1961954704E+00    0.6448953795E+00
    0.2700000000E+05    0.4762761155E+00    0.3797375551E-01    0.8320520855E-03    0.1963922152E+00    0.6451080290E+00
    0.2900000000E+05    0.4766324277E+00    0.3795997565E-01    0.7986974693E-03    0.1965633038E+00    0.6452945114E+00
    0.3100000000E+05    0.4769419674E+00    0.3794656702E-01    0.7689059253E-03    0.1967135883E+00    0.6454596304E+00
    0.3300000000E+05    0.4772132558E+00    0.3793354543E-01    0.7420905944E-03    0.1968467613E+00    0.6456070627E+00
    0.3500000000E+05    0.4774528696E+00    0.3792091378E-01    0.7177909509E-03    0.1969656840E+00    0.6457396722E+00
    0.3700000000E+05    0.4776659648E+00    0.3790866699E-01    0.6956399789E-03    0.1970726079E+00    0.6458597251E+00
    0.3900000000E+05    0.4778566405E+00    0.3789679518E-01    0.6753411752E-03    0.1971693302E+00    0.6459690392E+00
    0.4100000000E+05    0.4780281955E+00    0.3788528568E-01    0.6566520892E-03    0.1972573024E+00    0.6460690904E+00
    0.4300000000E+05    0.4781833147E+00    0.3787412430E-01    0.6393723167E-03    0.1973377108E+00    0.6461610906E+00
    0.4500000000E+05    0.4783242051E+00    0.3786329622E-01    0.6233345930E-03    0.1974115338E+00    0.6462460442E+00
    0.4700000000E+05    0.4784526973E+00    0.3785278648E-01    0.6083980826E-03    0.1974795866E+00    0.6463247916E+00
    0.4900000000E+05    0.4785703225E+00    0.3784258035E-01    0.5944432554E-03    0.1975425532E+00    0.6463980415E+00
    0.1000000000E+05    0.4674218377E+00    0.3807360473E-01    0.1511463799E-02    0.1924212466E+00    0.6410335661E+00
    0.3000000000E+05    0.4767924584E+00    0.3795322356E-01    0.7833964244E-03    0.1966407931E+00    0.6453794894E+00
    0.5000000000E+05    0.4786254713E+00    0.3783758665E-01    0.5878014517E-03    0.1975723136E+00    0.6464327968E+00
    0.7000000000E+05    0.4793855450E+00    0.3775052108E-01    0.4880176728E-03    0.1980033053E+00    0.6469470571E+00
    0.9000000000E+05    0.4797930372E+00    0.3768151021E-01    0.4251633621E-03    0.1982598268E+00    0.6472646393E+00
    0.1100000000E+06    0.4800428049E+00    0.3762450162E-01    0.3810243401E-03    0.1984337995E+00    0.6474859602E+00
    0.1300000000E+06    0.4802090573E+00    0.3757598297E-01    0.3478844503E-03    0.1985616227E+00    0.6476520040E+00
    0.1500000000E+06    0.4803260621E+00    0.3753377002E-01    0.3218464332E-03    0.1986607505E+00    0.6477829131E+00
    0.1700000000E+06    0.4804117637E+00    0.3749641975E-01    0.3007036479E-03    0.1987406654E+00    0.6478898600E+00
    0.1900000000E+06    0.4804764351E+00    0.3746293144E-01    0.2831016165E-03    0.1988069955E+00    0.6479795957E+00
    0.2100000000E+06    0.4805263633E+00    0.3743258347E-01    0.2681572489E-03    0.1988633097E+00    0.6480564682E+00
    0.2300000000E+06    0.4805656007E+00    0.3740483870E-01    0.2552671724E-03    0.1989119908E+00    0.6481234208E+00
    0.2500000000E+06    0.4805968707E+00    0.3737928670E-01    0.2440033815E-03    0.1989546960E+00    0.6481825259E+00
    0.2700000000E+06    0.4806220665E+00    0.3735560689E-01    0.2340528012E-03    0.1989926177E+00    0.6482352914E+00
    0.2900000000E+06    0.4806425424E+00    0.3733354410E-01    0.2251804814E-03    0.1990266384E+00    0.6482828441E+00
    0.3100000000E+06    0.4806592909E+00    0.3731289194E-01    0.2172062315E-03    0.1990574266E+00    0.6483260455E+00
    0.3300000000E+06    0.4806730544E+00    0.3729348116E-01    0.2099892572E-03    0.1990854994E+00    0.6483655676E+00
    0.3500000000E+06    0.4806843981E+00    0.3727517120E-01    0.2034177529E-03    0.1991112638E+00    0.6484019432E+00
    0.3700000000E+06    0.4806937595E+00    0.3725784408E-01    0.1974016652E-03    0.1991350450E+00    0.6484356013E+00
    0.3900000000E+06    0.4807014817E+00    0.3724139983E-01    0.1918675463E-03    0.1991571069E+00    0.6484668917E+00
    0.4100000000E+06    0.4807078372E+00    0.3722575297E-01    0.1867548208E-03    0.1991776658E+00    0.6484961031E+00
    0.4300000000E+06    0.4807130448E+00    0.3721082986E-01    0.1820130274E-03    0.1991969008E+00    0.6485234762E+00
    0.4500000000E+06    0.4807172818E+00    0.3719656661E-01    0.1775997505E-03    0.1992149623E+00    0.6485492134E+00
    0.4700000000E+06    0.4807206936E+00    0.3718290742E-01    0.1734790456E-03    0.1992319771E+00    0.6485734869E+00
    0.4900000000E+06    0.4807233997E+00    0.3716980329E-01    0.1696202246E-03    0.1992480533E+00    0.6485964435E+00
    0.1000000000E+06    0.4799315909E+00    0.3765176624E-01    0.4013674294E-03    0.1983541957E+00    0.6473840497E+00
    0.3000000000E+06    0.4806513314E+00    0.3732305303E-01    0.2210906799E-03    0.1990424013E+00    0.6483049429E+00
    0.5000000000E+06    0.4807245200E+00    0.3716344564E-01    0.1677806306E-03    0.1992557689E+00    0.6486074683E+00
    0.7000000000E+06    0.4807269855E+00    0.3705715937E-01    0.1399249419E-03    0.1993776772E+00    0.6487820476E+00
    0.9000000000E+06    0.4807124422E+00    0.3697738209E-01    0.1221882765E-03    0.1994620640E+00    0.6489029446E+00
    0.1100000000E+07    0.4806930840E+00    0.3691350975E-01    0.1096572145E-03    0.1995262967E+00    0.6489947361E+00
    0.1300000000E+07    0.4806726903E+00    0.3686025100E-01    0.1002126637E-03    0.1995780314E+00    0.6490684094E+00
    0.1500000000E+07    0.4806526063E+00    0.3681458147E-01    0.9277257118E-04    0.1996212873E+00    0.6491297772E+00
    0.1700000000E+07    0.4806333241E+00    0.3677460929E-01    0.8671976018E-04    0.1996584255E+00    0.6491822696E+00
    0.1900000000E+07    0.4806150018E+00    0.3673907198E-01    0.8167339683E-04    0.1996909475E+00    0.6492280725E+00
    0.2100000000E+07    0.4805976589E+00    0.3670708496E-01    0.7738420414E-04    0.1997198652E+00    0.6492686609E+00
    0.2300000000E+07    0.4805812570E+00    0.3667800435E-01    0.7368134111E-04    0.1997458924E+00    0.6493050755E+00
    0.2500000000E+07    0.4805657354E+00    0.3665134687E-01    0.7044332522E-04    0.1997695509E+00    0.6493380767E+00
    0.2700000000E+07    0.4805510269E+00    0.3662674051E-01    0.6758111884E-04    0.1997912336E+00    0.6493682365E+00
    0.2900000000E+07    0.4805370652E+00    0.3660389282E-01    0.6502779318E-04    0.1998112432E+00    0.6493959956E+00
    0.3100000000E+07    0.4805237878E+00    0.3658256969E-01    0.6273194768E-04    0.1998298184E+00    0.6494217005E+00
    0.3300000000E+07    0.4805111378E+00    0.3656258085E-01    0.6065337279E-04    0.1998471502E+00    0.6494456285E+00
    0.3500000000E+07    0.4804990633E+00    0.3654376954E-01    0.5876010565E-04    0.1998633940E+00    0.6494680048E+00
    0.3700000000E+07    0.4804875178E+00    0.3652600507E-01    0.5702637938E-04    0.1998786778E+00    0.6494890146E+00
    0.3900000000E+07    0.4804764594E+00    0.3650917735E-01    0.5543116244E-04    0.1998931083E+00    0.6495088122E+00
    0.4100000000E+07    0.4804658507E+00    0.3649319280E-01    0.5395709746E-04    0.1999067756E+00    0.6495275275E+00
    0.4300000000E+07    0.4804556580E+00    0.3647797116E-01    0.5258971662E-04    0.1999197560E+00    0.6495452705E+00
    0.4500000000E+07    0.4804458511E+00    0.3646344313E-01    0.5131685238E-04    0.1999321151E+00    0.6495621356E+00
    0.4700000000E+07    0.4804364027E+00    0.3644954842E-01    0.5012818851E-04    0.1999439095E+00    0.6495782041E+00
    0.4900000000E+07    0.4804272882E+00    0.3643623427E-01    0.4901491373E-04    0.1999551885E+00    0.6495935465E+00
    0.1000000000E+07    0.4807030389E+00    0.3694386246E-01    0.1154398042E-03    0.1994960979E+00    0.6489516173E+00
    0.3000000000E+07    0.4805303446E+00    0.3659305347E-01    0.6385042098E-04    0.1998206972E+00    0.6494090861E+00
    0.5000000000E+07    0.4804228492E+00    0.3642978017E-01    0.4848413742E-04    0.1999606483E+00    0.6496009651E+00
    0.7000000000E+07    0.4803471867E+00    0.3632234937E-01    0.4044331233E-04    0.2000508932E+00    0.6497228092E+00
    0.9000000000E+07    0.4802889070E+00    0.3624219883E-01    0.3532039786E-04    0.2001176002E+00    0.6498119589E+00
    0.1100000000E+08    0.4802415254E+00    0.3617826616E-01    0.3169989076E-04    0.2001705339E+00    0.6498821738E+00
    0.1300000000E+08    0.4802016082E+00    0.3612509321E-01    0.2897063050E-04    0.2002144170E+00    0.6499400452E+00
    0.1500000000E+08    0.4801671226E+00    0.3607958282E-01    0.2682034714E-04    0.2002518959E+00    0.6499892380E+00
    0.1700000000E+08    0.4801367661E+00    0.3603980754E-01    0.2507085631E-04    0.2002846035E+00    0.6500319990E+00
    0.1900000000E+08    0.4801096547E+00    0.3600448608E-01    0.2361217661E-04    0.2003136181E+00    0.6500698044E+00
    0.2100000000E+08    0.4800851609E+00    0.3597272338E-01    0.2237230415E-04    0.2003396896E+00    0.6501036758E+00
    0.2300000000E+08    0.4800628230E+00    0.3594386953E-01    0.2130188364E-04    0.2003633602E+00    0.6501343490E+00
    0.2500000000E+08    0.4800422919E+00    0.3591743770E-01    0.2036581500E-04    0.2003850352E+00    0.6501623716E+00
    0.2700000000E+08    0.4800232967E+00    0.3589305377E-01    0.1953837000E-04    0.2004050249E+00    0.6501881622E+00
