  Pressure (Pa) 22mC5-400 (mol/kg) 3mC6-400 (mol/kg) 33mC5-400 (mol/kg) 23mC5-400 (mol/kg) C7-400 (mol/kg)
    0.1000000000E+01    0.1593847655E-02    0.1039846743E-02    0.3202083076E-03    0.9328723569E-04    0.1518733085E-01
    0.3000000000E+01    0.4754867365E-02    0.2975919415E-02    0.9216425710E-03    0.2783017290E-03    0.4347438588E-01
    0.5000000000E+01    0.7880843555E-02    0.4741566484E-02    0.1476838664E-02    0.4612668845E-03    0.6928373678E-01
    0.7000000000E+01    0.1097239190E-01    0.6358340280E-02    0.1991638879E-02    0.6422186984E-03    0.9292821370E-01
    0.9000000000E+01    0.1403011357E-01    0.7844305920E-02    0.2470914227E-02    0.8211923177E-03    0.1146700706E+00
    0.1100000000E+02    0.1705459559E-01    0.9214719143E-02    0.2918757225E-02    0.9982220645E-03    0.1347308112E+00
    0.1300000000E+02    0.2004641132E-01    0.1048255197E-01    0.3338630805E-02    0.1173341461E-02    0.1532988101E+00
    0.1500000000E+02    0.2300612083E-01    0.1165890458E-01    0.3733484518E-02    0.1346583251E-02    0.1705352847E+00
    0.1700000000E+02    0.2593427125E-01    0.1275333121E-01    0.4105846084E-02    0.1517979425E-02    0.1865790204E+00
    0.1900000000E+02    0.2883139718E-01    0.1377410020E-01    0.4457894153E-02    0.1687561238E-02    0.2015501423E+00
    0.2100000000E+02    0.3169802102E-01    0.1472840330E-01    0.4791516608E-02    0.1855359234E-02    0.2155531504E+00
    0.2300000000E+02    0.3453465333E-01    0.1562252535E-01    0.5108357635E-02    0.2021403263E-02    0.2286793810E+00
    0.2500000000E+02    0.3734179316E-01    0.1646198290E-01    0.5409855994E-02    0.2185722503E-02    0.2410090174E+00
    0.2700000000E+02    0.4011992837E-01    0.1725163813E-01    0.5697276342E-02    0.2348345479E-02    0.2526127421E+00
    0.2900000000E+02    0.4286953593E-01    0.1799579305E-01    0.5971735032E-02    0.2509300077E-02    0.2635531044E+00
    0.3100000000E+02    0.4559108225E-01    0.1869826797E-01    0.6234221481E-02    0.2668613567E-02    0.2738856583E+00
    0.3300000000E+02    0.4828502344E-01    0.1936246706E-01    0.6485615963E-02    0.2826312617E-02    0.2836599137E+00
    0.3500000000E+02    0.5095180560E-01    0.1999143349E-01    0.6726704512E-02    0.2982423310E-02    0.2929201378E+00
    0.3700000000E+02    0.5359186512E-01    0.2058789612E-01    0.6958191453E-02    0.3136971161E-02    0.3017060310E+00
    0.3900000000E+02    0.5620562890E-01    0.2115430899E-01    0.7180709995E-02    0.3289981128E-02    0.3100533017E+00
    0.4100000000E+02    0.5879351462E-01    0.2169288513E-01    0.7394831226E-02    0.3441477635E-02    0.3179941558E+00
    0.4300000000E+02    0.6135593102E-01    0.2220562539E-01    0.7601071772E-02    0.3591484578E-02    0.3255577163E+00
    0.4500000000E+02    0.6389327809E-01    0.2269434332E-01    0.7799900359E-02    0.3740025346E-02    0.3327703839E+00
    0.4700000000E+02    0.6640594734E-01    0.2316068656E-01    0.7991743446E-02    0.3887122828E-02    0.3396561479E+00
    0.4900000000E+02    0.6889432198E-01    0.2360615540E-01    0.8176990081E-02    0.4032799432E-02    0.3462368556E+00
    0.1000000000E+02    0.1554647338E-01    0.8543097613E-02    0.2698535080E-02    0.9099480615E-03    0.1248981074E+00
    0.3000000000E+02    0.4423378800E-01    0.1835201869E-01    0.6104417399E-02    0.2589160280E-02    0.2687921314E+00
    0.5000000000E+02    0.7012951638E-01    0.2382149448E-01    0.8267252122E-02    0.4105111778E-02    0.3494191131E+00
    0.7000000000E+02    0.9364536147E-01    0.2730845105E-01    0.9798444087E-02    0.5481874211E-02    0.4010710204E+00
    0.9000000000E+02    0.1151145400E+00    0.2972444742E-01    0.1093940799E-01    0.6738930824E-02    0.4370322798E+00
    0.1100000000E+03    0.1348096443E+00    0.3149641556E-01    0.1181067490E-01    0.7892220588E-02    0.4635347922E+00
    0.1300000000E+03    0.1529558555E+00    0.3285097026E-01    0.1248265955E-01    0.8954910627E-02    0.4838917945E+00
    0.1500000000E+03    0.1697408561E+00    0.3391957452E-01    0.1300116186E-01    0.9937975688E-02    0.5000284646E+00
    0.1700000000E+03    0.1853223617E+00    0.3478374163E-01    0.1339824984E-01    0.1085063845E-01    0.5131404441E+00
    0.1900000000E+03    0.1998339109E+00    0.3549670268E-01    0.1369755078E-01    0.1170070801E-01    0.5240098012E+00
    0.2100000000E+03    0.2133893649E+00    0.3609469436E-01    0.1391710751E-01    0.1249484293E-01    0.5331697939E+00
    0.2300000000E+03    0.2260864378E+00    0.3660323979E-01    0.1407105727E-01    0.1323875767E-01    0.5409966348E+00
    0.2500000000E+03    0.2380094941E+00    0.3704083527E-01    0.1417068898E-01    0.1393738607E-01    0.5477634078E+00
    0.2700000000E+03    0.2492317822E+00    0.3742121247E-01    0.1422514727E-01    0.1459501203E-01    0.5536731843E+00
    0.2900000000E+03    0.2598172342E+00    0.3775477956E-01    0.1424192265E-01    0.1521537465E-01    0.5588801392E+00
    0.3100000000E+03    0.2698219246E+00    0.3804956908E-01    0.1422720518E-01    0.1580175357E-01    0.5635034535E+00
    0.3300000000E+03    0.2792952636E+00    0.3831187887E-01    0.1418614694E-01    0.1635703873E-01    0.5676367239E+00
    0.3500000000E+03    0.2882809769E+00    0.3854671617E-01    0.1412306144E-01    0.1688378765E-01    0.5713544895E+00
    0.3700000000E+03    0.2968179174E+00    0.3875811196E-01    0.1404157791E-01    0.1738427290E-01    0.5747168550E+00
    0.3900000000E+03    0.3049407400E+00    0.3894934762E-01    0.1394476245E-01    0.1786052155E-01    0.5777728291E+00
    0.4100000000E+03    0.3126804674E+00    0.3912312136E-01    0.1383521449E-01    0.1831434827E-01    0.5805627764E+00
    0.4300000000E+03    0.3200649645E+00    0.3928167212E-01    0.1371514430E-01    0.1874738305E-01    0.5831202464E+00
    0.4500000000E+03    0.3271193409E+00    0.3942687319E-01    0.1358643598E-01    0.1916109473E-01    0.5854733559E+00
    0.4700000000E+03    0.3338662922E+00    0.3956030389E-01    0.1345069885E-01    0.1955681099E-01    0.5876458478E+00
    0.4900000000E+03    0.3403263904E+00    0.3968330497E-01    0.1330930988E-01    0.1993573530E-01    0.5896579116E+00
    0.1000000000E+03    0.1251687961E+00    0.3067374779E-01    0.1140358487E-01    0.7327666232E-02    0.4512147116E+00
    0.3000000000E+03    0.2648889427E+00    0.3790659322E-01    0.1423815678E-01    0.1551262304E-01    0.5612583897E+00
    0.5000000000E+03    0.3434547802E+00    0.3974125901E-01    0.1323687149E-01    0.2011924626E-01    0.5906092815E+00
    0.7000000000E+03    0.3947122672E+00    0.4055920753E-01    0.1170053271E-01    0.2312725282E-01    0.6043372037E+00
    0.9000000000E+03    0.4310379320E+00    0.4101315527E-01    0.1025413486E-01    0.2526077247E-01    0.6123297797E+00
    0.1100000000E+04    0.4581910476E+00    0.4129688779E-01    0.9015073706E-02    0.2685686597E-01    0.6175747062E+00
    0.1300000000E+04    0.4792681429E+00    0.4148798057E-01    0.7979997721E-02    0.2809680939E-01    0.6212882230E+00
    0.1500000000E+04    0.4961006360E+00    0.4162341507E-01    0.7118732226E-02    0.2908784794E-01    0.6240596578E+00
    0.1700000000E+04    0.5098474272E+00    0.4172299324E-01    0.6399316175E-02    0.2989786465E-01    0.6262096624E+00
    0.1900000000E+04    0.5212799153E+00    0.4179824011E-01    0.5794248922E-02    0.3057205738E-01    0.6279278388E+00
    0.2100000000E+04    0.5309322686E+00    0.4185629913E-01    0.5281327323E-02    0.3114173301E-01    0.6293335689E+00
    0.2300000000E+04    0.5391863730E+00    0.4190182152E-01    0.4843011471E-02    0.3162927964E-01    0.6305058132E+00
    0.2500000000E+04    0.5463225522E+00    0.4193795823E-01    0.4465519983E-02    0.3205113586E-01    0.6314989084E+00
    0.2700000000E+04    0.5525512214E+00    0.4196691464E-01    0.4138004067E-02    0.3241964415E-01    0.6323514872E+00
    0.2900000000E+04    0.5580333748E+00    0.4199027697E-01    0.3851877877E-02    0.3274425067E-01    0.6330917787E+00
    0.3100000000E+04    0.5628942619E+00    0.4200921293E-01    0.3600299317E-02    0.3303230631E-01    0.6337408957E+00
    0.3300000000E+04    0.5672327598E+00    0.4202459938E-01    0.3377774418E-02    0.3328961578E-01    0.6343149484E+00
    0.3500000000E+04    0.5711279466E+00    0.4203710632E-01    0.3179857434E-02    0.3352082272E-01    0.6348264459E+00
    0.3700000000E+04    0.5746438036E+00    0.4204725350E-01    0.3002923245E-02    0.3372968529E-01    0.6352852515E+00
    0.3900000000E+04    0.5778326408E+00    0.4205544955E-01    0.2843993929E-02    0.3391927692E-01    0.6356992481E+00
    0.4100000000E+04    0.5807376319E+00    0.4206201963E-01    0.2700605813E-02    0.3409213495E-01    0.6360748131E+00
    0.4300000000E+04    0.5833947176E+00    0.4206722520E-01    0.2570706877E-02    0.3425037222E-01    0.6364171618E+00
    0.4500000000E+04    0.5858340533E+00    0.4207127857E-01    0.2452577009E-02    0.3439576193E-01    0.6367306017E+00
    0.4700000000E+04    0.5880811234E+00    0.4207435364E-01    0.2344765571E-02    0.3452980304E-01    0.6370187218E+00
    0.4900000000E+04    0.5901576083E+00    0.4207659395E-01    0.2246042178E-02    0.3465377111E-01    0.6372845371E+00
    0.1000000000E+04    0.4455274543E+00    0.4117003896E-01    0.9607724666E-02    0.2611232307E-01    0.6151979883E+00
    0.3000000000E+04    0.5605347667E+00    0.4200023778E-01    0.3722141194E-02    0.3289245347E-01    0.6334266290E+00
    0.5000000000E+04    0.5911377869E+00    0.4207743918E-01    0.2199754439E-02    0.3471232529E-01    0.6374098934E+00
    0.7000000000E+04    0.6051382780E+00    0.4207103572E-01    0.1563277924E-02    0.3555198074E-01    0.6391993589E+00
    0.9000000000E+04    0.6131305610E+00    0.4204534070E-01    0.1223691670E-02    0.3603536192E-01    0.6402315044E+00
    0.1100000000E+05    0.6182897142E+00    0.4201483030E-01    0.1014857970E-02    0.3635002138E-01    0.6409103130E+00
    0.1300000000E+05    0.6218921269E+00    0.4198387232E-01    0.8740029660E-03    0.3657157541E-01    0.6413946108E+00
    0.1500000000E+05    0.6245486839E+00    0.4195393981E-01    0.7726583567E-03    0.3673631859E-01    0.6417598695E+00
    0.1700000000E+05    0.6265880419E+00    0.4192551146E-01    0.6961919264E-03    0.3686383344E-01    0.6420466847E+00
    0.1900000000E+05    0.6282025826E+00    0.4189868919E-01    0.6363631399E-03    0.3696561548E-01    0.6422789014E+00
    0.2100000000E+05    0.6295123462E+00    0.4187342723E-01    0.5881958217E-03    0.3704885799E-01    0.6424714809E+00
    0.2300000000E+05    0.6305960848E+00    0.4184962451E-01    0.5485150936E-03    0.3711829355E-01    0.6426343046E+00
    0.2500000000E+05    0.6315075945E+00    0.4182716372E-01    0.5152031602E-03    0.3717716416E-01    0.6427741739E+00
    0.2700000000E+05    0.6322848681E+00    0.4180592808E-01    0.4867944959E-03    0.3722776593E-01    0.6428959303E+00
    0.2900000000E+05    0.6329554974E+00    0.4178580817E-01    0.4622431986E-03    0.3727177110E-01    0.6430031192E+00
    0.3100000000E+05    0.6335400021E+00    0.4176670437E-01    0.4407829987E-03    0.3731042682E-01    0.6430983994E+00
    0.3300000000E+05    0.6340539584E+00    0.4174852715E-01    0.4218396725E-03    0.3734468241E-01    0.6431838065E+00
    0.3500000000E+05    0.6345094018E+00    0.4173119668E-01    0.4049743744E-03    0.3737527347E-01    0.6432609268E+00
    0.3700000000E+05    0.6349157789E+00    0.4171464186E-01    0.3898458898E-03    0.3740277899E-01    0.6433310160E+00
    0.3900000000E+05    0.6352806076E+00    0.4169879944E-01    0.3761848410E-03    0.3742766104E-01    0.6433950822E+00
    0.4100000000E+05    0.6356099454E+00    0.4168361305E-01    0.3637756591E-03    0.3745029296E-01    0.6434539443E+00
    0.4300000000E+05    0.6359087270E+00    0.4166903240E-01    0.3524437265E-03    0.3747097973E-01    0.6435082751E+00
    0.4500000000E+05    0.6361810133E+00    0.4165501247E-01    0.3420460413E-03    0.3748997304E-01    0.6435586329E+00
    0.4700000000E+05    0.6364301764E+00    0.4164151288E-01    0.3324643280E-03    0.3750748244E-01    0.6436054852E+00
    0.4900000000E+05    0.6366590396E+00    0.4162849732E-01    0.3235998772E-03    0.3752368389E-01    0.6436492266E+00
    0.1000000000E+05    0.6159613897E+00    0.4203030703E-01    0.1108067077E-02    0.3620769112E-01    0.6406022357E+00
    0.3000000000E+05    0.6332574451E+00    0.4177613509E-01    0.4511663228E-03    0.3729170248E-01    0.6430521084E+00
    0.5000000000E+05    0.6367666179E+00    0.4162216067E-01    0.3194101450E-03    0.3753134156E-01    0.6436700376E+00
    0.7000000000E+05    0.6382733756E+00    0.4151436223E-01    0.2586276382E-03    0.3764226412E-01    0.6439831142E+00
    0.9000000000E+05    0.6391106731E+00    0.4143155717E-01    0.2222514051E-03    0.3770831542E-01    0.6441827217E+00
    0.1100000000E+06    0.6396432936E+00    0.4136436044E-01    0.1974819933E-03    0.3775313157E-01    0.6443257111E+00
    0.1300000000E+06    0.6400117524E+00    0.4130782930E-01    0.1792620302E-03    0.3778607253E-01    0.6444355939E+00
    0.1500000000E+06    0.6402816811E+00    0.4125904601E-01    0.1651531519E-03    0.3781162722E-01    0.6445240762E+00
    0.1700000000E+06    0.6404878460E+00    0.4121614547E-01    0.1538199507E-03    0.3783223484E-01    0.6445977328E+00
    0.1900000000E+06    0.6406503826E+00    0.4117786340E-01    0.1444629742E-03    0.3784934351E-01    0.6446605844E+00
    0.2100000000E+06    0.6407817593E+00    0.4114330344E-01    0.1365710409E-03    0.3786387172E-01    0.6447152502E+00
    0.2300000000E+06    0.6408901091E+00    0.4111180701E-01    0.1298002743E-03    0.3787643277E-01    0.6447635228E+00
    0.2500000000E+06    0.6409809630E+00    0.4108287606E-01    0.1239098221E-03    0.3788745342E-01    0.6448066774E+00
    0.2700000000E+06    0.6410582135E+00    0.4105612482E-01    0.1187253561E-03    0.3789724075E-01    0.6448456512E+00
    0.2900000000E+06    0.6411246792E+00    0.4103124842E-01    0.1141172093E-03    0.3790602205E-01    0.6448811511E+00
    0.3100000000E+06    0.6411824514E+00    0.4100800177E-01    0.1099866891E-03    0.3791396958E-01    0.6449137225E+00
    0.3300000000E+06    0.6412331141E+00    0.4098618485E-01    0.1062571847E-03    0.3792121658E-01    0.6449437943E+00
    0.3500000000E+06    0.6412778893E+00    0.4096563232E-01    0.1028682058E-03    0.3792786795E-01    0.6449717097E+00
    0.3700000000E+06    0.6413177345E+00    0.4094620596E-01    0.9977127470E-04    0.3793400758E-01    0.6449977469E+00
    0.3900000000E+06    0.6413534107E+00    0.4092778902E-01    0.9692702828E-04    0.3793970345E-01    0.6450221348E+00
    0.4100000000E+06    0.6413855303E+00    0.4091028199E-01    0.9430313020E-04    0.3794501133E-01    0.6450450634E+00
    0.4300000000E+06    0.6414145916E+00    0.4089359940E-01    0.9187273872E-04    0.3794997749E-01    0.6450666922E+00
    0.4500000000E+06    0.6414410043E+00    0.4087766726E-01    0.8961336374E-04    0.3795464066E-01    0.6450871566E+00
    0.4700000000E+06    0.6414651082E+00    0.4086242111E-01    0.8750600121E-04    0.3795903357E-01    0.6451065721E+00
    0.4900000000E+06    0.6414871877E+00    0.4084780446E-01    0.8553446892E-04    0.3796318411E-01    0.6451250380E+00
    0.1000000000E+06    0.6394036542E+00    0.4139638157E-01    0.2088233779E-03    0.3773262292E-01    0.6442594171E+00
    0.3000000000E+06    0.6411545431E+00    0.4101943480E-01    0.1119974707E-03    0.3791009094E-01    0.6448977737E+00
    0.5000000000E+06    0.6414975446E+00    0.4084071640E-01    0.8459522440E-04    0.3796517609E-01    0.6451339423E+00
    0.7000000000E+06    0.6416406771E+00    0.4072251282E-01    0.7041906440E-04    0.3799664640E-01    0.6452781332E+00
    0.9000000000E+06    0.6417178088E+00    0.4063409741E-01    0.6143257371E-04    0.3801842340E-01    0.6453815747E+00
    0.1100000000E+07    0.6417652718E+00    0.4056346102E-01    0.5509936492E-04    0.3803499314E-01    0.6454620878E+00
    0.1300000000E+07    0.6417969563E+00    0.4050464944E-01    0.5033364909E-04    0.3804833396E-01    0.6455279279E+00
    0.1500000000E+07    0.6418193003E+00    0.4045427348E-01    0.4658348598E-04    0.3805948453E-01    0.6455835840E+00
    0.1700000000E+07    0.6418356865E+00    0.4041021929E-01    0.4353500890E-04    0.3806905511E-01    0.6456317640E+00
    0.1900000000E+07    0.6418480579E+00    0.4037107936E-01    0.4099496124E-04    0.3807743367E-01    0.6456742259E+00
    0.2100000000E+07    0.6418576068E+00    0.4033586919E-01    0.3883705054E-04    0.3808488173E-01    0.6457121743E+00
    0.2300000000E+07    0.6418651040E+00    0.4030387320E-01    0.3697483166E-04    0.3809158372E-01    0.6457464707E+00
    0.2500000000E+07    0.6418710687E+00    0.4027455490E-01    0.3534689648E-04    0.3809767444E-01    0.6457777519E+00
    0.2700000000E+07    0.6418758627E+00    0.4024750174E-01    0.3390827438E-04    0.3810325535E-01    0.6458065022E+00
    0.2900000000E+07    0.6418797455E+00    0.4022238965E-01    0.3262518436E-04    0.3810840470E-01    0.6458330981E+00
    0.3100000000E+07    0.6418829074E+00    0.4019895944E-01    0.3147169789E-04    0.3811318408E-01    0.6458578380E+00
    0.3300000000E+07    0.6418854913E+00    0.4017700055E-01    0.3042754160E-04    0.3811764281E-01    0.6458809627E+00
    0.3500000000E+07    0.6418876059E+00    0.4015633961E-01    0.2947660686E-04    0.3812182101E-01    0.6459026689E+00
    0.3700000000E+07    0.6418893358E+00    0.4013683217E-01    0.2860591249E-04    0.3812575173E-01    0.6459231196E+00
    0.3900000000E+07    0.6418907471E+00    0.4011835662E-01    0.2780486635E-04    0.3812946253E-01    0.6459424514E+00
    0.4100000000E+07    0.6418918927E+00    0.4010080958E-01    0.2706472925E-04    0.3813297661E-01    0.6459607797E+00
    0.4300000000E+07    0.6418928150E+00    0.4008410246E-01    0.2637821872E-04    0.3813631370E-01    0.6459782029E+00
    0.4500000000E+07    0.6418935483E+00    0.4006815878E-01    0.2573921152E-04    0.3813949071E-01    0.6459948058E+00
    0.4700000000E+07    0.6418941208E+00    0.4005291203E-01    0.2514251717E-04    0.3814252226E-01    0.6460106618E+00
    0.4900000000E+07    0.6418945559E+00    0.4003830401E-01    0.2458370320E-04    0.3814542102E-01    0.6460258347E+00
    0.1000000000E+07    0.6417441184E+00    0.4059701282E-01    0.5802039029E-04    0.3802720370E-01    0.6454240556E+00
    0.3000000000E+07    0.6418814067E+00    0.4021047846E-01    0.3203362015E-04    0.3811083731E-01    0.6458456838E+00
    0.5000000000E+07    0.6418947281E+00    0.4003122329E-01    0.2431728928E-04    0.3814682414E-01    0.6460331829E+00
    0.7000000000E+07    0.6418942916E+00    0.3991341261E-01    0.2028220590E-04    0.3817000677E-01    0.6461548969E+00
    0.9000000000E+07    0.6418905677E+00    0.3982557211E-01    0.1771214576E-04    0.3818713225E-01    0.6462450845E+00
    0.1100000000E+08    0.6418859481E+00    0.3975553310E-01    0.1589610109E-04    0.3820071581E-01    0.6463167222E+00
    0.1300000000E+08    0.6418811736E+00    0.3969729771E-01    0.1452724099E-04    0.3821197315E-01    0.6463761337E+00
    0.1500000000E+08    0.6418765052E+00    0.3964746484E-01    0.1344883861E-04    0.3822158514E-01    0.6464268782E+00
    0.1700000000E+08    0.6418720357E+00    0.3960391893E-01    0.1257148188E-04    0.3822997165E-01    0.6464711580E+00
    0.1900000000E+08    0.6418677921E+00    0.3956525419E-01    0.1183999043E-04    0.3823740995E-01    0.6465104307E+00
    0.2100000000E+08    0.6418637748E+00    0.3953048889E-01    0.1121824197E-04    0.3824409273E-01    0.6465457110E+00
    0.2300000000E+08    0.6418599729E+00    0.3949891036E-01    0.1068147835E-04    0.3825015935E-01    0.6465777336E+00
    0.2500000000E+08    0.6418563717E+00    0.3946998486E-01    0.1021209340E-04    0.3825571384E-01    0.6466070477E+00
    0.2700000000E+08    0.6418529554E+00    0.3944330234E-01    0.9797182540E-05    0.3826083595E-01    0.6466340745E+00
