  Pressure (Pa) 22mC5-400 (mol/kg) 3mC6-400 (mol/kg) 33mC5-400 (mol/kg) 23mC5-400 (mol/kg) C7-400 (mol/kg)
    0.1000000000E+01    0.1592110442E-02    0.1060799933E-02    0.3251751076E-03    0.8386708483E-03    0.1721316246E-02
    0.3000000000E+01    0.4739445310E-02    0.3154229250E-02    0.9636120060E-03    0.2496599104E-02    0.5118445269E-02
    0.5000000000E+01    0.7838583428E-02    0.5210932535E-02    0.1586554314E-02    0.4129160844E-02    0.8456249264E-02
    0.7000000000E+01    0.1089067314E-01    0.7231880441E-02    0.2194455026E-02    0.5736960295E-02    0.1173629381E-01
    0.9000000000E+01    0.1389682622E-01    0.9218009601E-02    0.2787750873E-02    0.7320582449E-02    0.1496008966E-01
    0.1100000000E+02    0.1685811932E-01    0.1117022411E-01    0.3366863030E-02    0.8880593817E-02    0.1812909512E-01
    0.1300000000E+02    0.1977559533E-01    0.1308939694E-01    0.3932197777E-02    0.1041754315E-01    0.2124471833E-01
    0.1500000000E+02    0.2265026470E-01    0.1497637124E-01    0.4484147132E-02    0.1193196213E-01    0.2430831937E-01
    0.1700000000E+02    0.2548310669E-01    0.1683196162E-01    0.5023089452E-02    0.1342436602E-01    0.2732121234E-01
    0.1900000000E+02    0.2827507054E-01    0.1865695536E-01    0.5549390004E-02    0.1489525431E-01    0.3028466722E-01
    0.2100000000E+02    0.3102707663E-01    0.2045211350E-01    0.6063401508E-02    0.1634511130E-01    0.3319991180E-01
    0.2300000000E+02    0.3374001758E-01    0.2221817200E-01    0.6565464651E-02    0.1777440667E-01    0.3606813333E-01
    0.2500000000E+02    0.3641475924E-01    0.2395584269E-01    0.7055908582E-02    0.1918359602E-01    0.3889048025E-01
    0.2700000000E+02    0.3905214172E-01    0.2566581431E-01    0.7535051380E-02    0.2057312143E-01    0.4166806372E-01
    0.2900000000E+02    0.4165298034E-01    0.2734875339E-01    0.8003200496E-02    0.2194341192E-01    0.4440195915E-01
    0.3100000000E+02    0.4421806653E-01    0.2900530518E-01    0.8460653183E-02    0.2329488392E-01    0.4709320761E-01
    0.3300000000E+02    0.4674816868E-01    0.3063609448E-01    0.8907696897E-02    0.2462794178E-01    0.4974281721E-01
    0.3500000000E+02    0.4924403299E-01    0.3224172644E-01    0.9344609685E-02    0.2594297816E-01    0.5235176438E-01
    0.3700000000E+02    0.5170638427E-01    0.3382278732E-01    0.9771660553E-02    0.2724037445E-01    0.5492099510E-01
    0.3900000000E+02    0.5413592669E-01    0.3537984524E-01    0.1018910982E-01    0.2852050119E-01    0.5745142612E-01
    0.4100000000E+02    0.5653334451E-01    0.3691345088E-01    0.1059720944E-01    0.2978371845E-01    0.5994394601E-01
    0.4300000000E+02    0.5889930278E-01    0.3842413810E-01    0.1099620335E-01    0.3103037619E-01    0.6239941632E-01
    0.4500000000E+02    0.6123444802E-01    0.3991242464E-01    0.1138632775E-01    0.3226081462E-01    0.6481867255E-01
    0.4700000000E+02    0.6353940883E-01    0.4137881269E-01    0.1176781140E-01    0.3347536452E-01    0.6720252512E-01
    0.4900000000E+02    0.6581479655E-01    0.4282378948E-01    0.1214087591E-01    0.3467434759E-01    0.6955176034E-01
    0.1000000000E+02    0.1538301431E-01    0.1019830091E-01    0.3079054179E-02    0.8103504776E-02    0.1655135203E-01
    0.3000000000E+02    0.4293994394E-01    0.2818028817E-01    0.8233245702E-02    0.2262147468E-01    0.4575285049E-01
    0.5000000000E+02    0.6694158695E-01    0.4353839695E-01    0.1232431835E-01    0.3526809969E-01    0.7071363579E-01
    0.7000000000E+02    0.8806137207E-01    0.5681447769E-01    0.1560003546E-01    0.4639774717E-01    0.9230808225E-01
    0.9000000000E+02    0.1068104709E+00    0.6841032539E-01    0.1824124081E-01    0.5627941382E-01    0.1111847374E+00
    0.1100000000E+03    0.1235839622E+00    0.7863022715E-01    0.2038241318E-01    0.6512101256E-01    0.1278348930E+00
    0.1300000000E+03    0.1386921195E+00    0.8770888336E-01    0.2212518637E-01    0.7308583362E-01    0.1426375910E+00
    0.1500000000E+03    0.1523821155E+00    0.9583025086E-01    0.2354747146E-01    0.8030396356E-01    0.1558900024E+00
    0.1700000000E+03    0.1648533900E+00    0.1031405748E+00    0.2470975035E-01    0.8688037141E-01    0.1678284411E+00
    0.1900000000E+03    0.1762687362E+00    0.1097575985E+00    0.2565950403E-01    0.9290074161E-01    0.1786432157E+00
    0.2100000000E+03    0.1867624306E+00    0.1157771977E+00    0.2643438346E-01    0.9843575197E-01    0.1884893322E+00
    0.2300000000E+03    0.1964462869E+00    0.1212782429E+00    0.2706451596E-01    0.1035442589E+00    0.1974943372E+00
    0.2500000000E+03    0.2054142252E+00    0.1263262187E+00    0.2757420668E-01    0.1082757020E+00    0.2057641582E+00
    0.2700000000E+03    0.2137457653E+00    0.1309759551E+00    0.2798321002E-01    0.1126719420E+00    0.2133875111E+00
    0.2900000000E+03    0.2215087274E+00    0.1352737157E+00    0.2830769078E-01    0.1167686823E+00    0.2204392712E+00
    0.3100000000E+03    0.2287613439E+00    0.1392588129E+00    0.2856095857E-01    0.1205965800E+00    0.2269830801E+00
    0.3300000000E+03    0.2355539258E+00    0.1429648698E+00    0.2875403451E-01    0.1241821228E+00    0.2330733841E+00
    0.3500000000E+03    0.2419301903E+00    0.1464208175E+00    0.2889609240E-01    0.1275483279E+00    0.2387570431E+00
    0.3700000000E+03    0.2479283277E+00    0.1496516882E+00    0.2899480507E-01    0.1307153035E+00    0.2440746131E+00
    0.3900000000E+03    0.2535818654E+00    0.1526792533E+00    0.2905661841E-01    0.1337007031E+00    0.2490613764E+00
    0.4100000000E+03    0.2589203729E+00    0.1555225397E+00    0.2908696969E-01    0.1365200970E+00    0.2537481752E+00
    0.4300000000E+03    0.2639700413E+00    0.1581982504E+00    0.2909046270E-01    0.1391872770E+00    0.2581620923E+00
    0.4500000000E+03    0.2687541622E+00    0.1607211107E+00    0.2907100913E-01    0.1417145087E+00    0.2623270095E+00
    0.4700000000E+03    0.2732935264E+00    0.1631041533E+00    0.2903194325E-01    0.1441127410E+00    0.2662640696E+00
    0.4900000000E+03    0.2776067582E+00    0.1653589562E+00    0.2897611564E-01    0.1463917825E+00    0.2699920598E+00
    0.1000000000E+03    0.1154230794E+00    0.7367622522E-01    0.1936733292E-01    0.6081912361E-01    0.1197622185E+00
    0.3000000000E+03    0.2251955157E+00    0.1373031253E+00    0.2844248953E-01    0.1187144922E+00    0.2237710718E+00
    0.5000000000E+03    0.2796838721E+00    0.1664415375E+00    0.2894269394E-01    0.1474893967E+00    0.2717829607E+00
    0.7000000000E+03    0.3126419763E+00    0.1833570677E+00    0.2783120414E-01    0.1649158781E+00    0.2998669910E+00
    0.9000000000E+03    0.3347794779E+00    0.1944891343E+00    0.2644369808E-01    0.1766352461E+00    0.3184844544E+00
    0.1100000000E+04    0.3506711599E+00    0.2024093486E+00    0.2510268175E-01    0.1850583128E+00    0.3318244317E+00
    0.1300000000E+04    0.3626238207E+00    0.2083527240E+00    0.2388443996E-01    0.1914012313E+00    0.3419040122E+00
    0.1500000000E+04    0.3719322604E+00    0.2129887451E+00    0.2279675466E-01    0.1963469137E+00    0.3498194455E+00
    0.1700000000E+04    0.3793805757E+00    0.2167129757E+00    0.2182827305E-01    0.2003090861E+00    0.3562200852E+00
    0.1900000000E+04    0.3854715194E+00    0.2197747239E+00    0.2096358268E-01    0.2035531343E+00    0.3615162109E+00
    0.2100000000E+04    0.3905422427E+00    0.2223392219E+00    0.2018788204E-01    0.2062571018E+00    0.3659804079E+00
    0.2300000000E+04    0.3948272057E+00    0.2245204834E+00    0.1948825547E-01    0.2085448537E+00    0.3698012206E+00
    0.2500000000E+04    0.3984944368E+00    0.2263998232E+00    0.1885381824E-01    0.2105051952E+00    0.3731134411E+00
    0.2700000000E+04    0.4016674524E+00    0.2280368575E+00    0.1827550921E-01    0.2122034330E+00    0.3760161262E+00
    0.2900000000E+04    0.4044390437E+00    0.2294763291E+00    0.1774580364E-01    0.2136886486E+00    0.3785837930E+00
    0.3100000000E+04    0.4068802452E+00    0.2307524993E+00    0.1725843872E-01    0.2149984306E+00    0.3808736342E+00
    0.3300000000E+04    0.4090463407E+00    0.2318920649E+00    0.1680817846E-01    0.2161620448E+00    0.3829303171E+00
    0.3500000000E+04    0.4109809866E+00    0.2329161489E+00    0.1639062088E-01    0.2172026112E+00    0.3847892638E+00
    0.3700000000E+04    0.4127191076E+00    0.2338416918E+00    0.1600204303E-01    0.2181386330E+00    0.3864789457E+00
    0.3900000000E+04    0.4142889689E+00    0.2346824436E+00    0.1563927703E-01    0.2189850914E+00    0.3880225241E+00
    0.4100000000E+04    0.4157136867E+00    0.2354496859E+00    0.1529961126E-01    0.2197542437E+00    0.3894390444E+00
    0.4300000000E+04    0.4170123467E+00    0.2361527655E+00    0.1498071126E-01    0.2204562136E+00    0.3907443198E+00
    0.4500000000E+04    0.4182008425E+00    0.2367994942E+00    0.1468055620E-01    0.2210994356E+00    0.3919515957E+00
    0.4700000000E+04    0.4192925149E+00    0.2373964537E+00    0.1439738765E-01    0.2216909921E+00    0.3930720557E+00
    0.4900000000E+04    0.4202986430E+00    0.2379492299E+00    0.1412966792E-01    0.2222368735E+00    0.3941152115E+00
    0.1000000000E+04    0.3433291301E+00    0.1987549215E+00    0.2575997260E-01    0.1811655576E+00    0.3256577754E+00
    0.3000000000E+04    0.4056971743E+00    0.2301330079E+00    0.1749717746E-01    0.2143634740E+00    0.3797604008E+00
    0.5000000000E+04    0.4207726848E+00    0.2382105682E+00    0.1400117271E-01    0.2224943101E+00    0.3946103919E+00
    0.7000000000E+04    0.4274816452E+00    0.2419786491E+00    0.1198721308E-01    0.2261592415E+00    0.4019304441E+00
    0.9000000000E+04    0.4312581512E+00    0.2441663385E+00    0.1063835787E-01    0.2282485779E+00    0.4064031437E+00
    0.1100000000E+05    0.4336731282E+00    0.2455944144E+00    0.9654369977E-02    0.2296016403E+00    0.4094681511E+00
    0.1300000000E+05    0.4353469837E+00    0.2465977587E+00    0.8895885512E-02    0.2305513545E+00    0.4117247951E+00
    0.1500000000E+05    0.4365735029E+00    0.2473392219E+00    0.8288243609E-02    0.2312560540E+00    0.4134701107E+00
    0.1700000000E+05    0.4375096064E+00    0.2479077253E+00    0.7787362472E-02    0.2318006733E+00    0.4148692632E+00
    0.1900000000E+05    0.4382466605E+00    0.2483560111E+00    0.7365313900E-02    0.2322348767E+00    0.4160219543E+00
    0.2100000000E+05    0.4388414363E+00    0.2487173728E+00    0.7003430027E-02    0.2325896548E+00    0.4169922031E+00
    0.2300000000E+05    0.4393310488E+00    0.2490138740E+00    0.6688695577E-02    0.2328853544E+00    0.4178231483E+00
    0.2500000000E+05    0.4397407756E+00    0.2492607196E+00    0.6411721834E-02    0.2331358919E+00    0.4185450065E+00
    0.2700000000E+05    0.4400884211E+00    0.2494687298E+00    0.6165543009E-02    0.2333511110E+00    0.4191796276E+00
    0.2900000000E+05    0.4403868842E+00    0.2496458147E+00    0.5944867451E-02    0.2335381733E+00    0.4197432375E+00
    0.3100000000E+05    0.4406457363E+00    0.2497978902E+00    0.5745593589E-02    0.2337024156E+00    0.4202481613E+00
    0.3300000000E+05    0.4408722272E+00    0.2499294686E+00    0.5564486630E-02    0.2338478971E+00    0.4207039445E+00
    0.3500000000E+05    0.4410719475E+00    0.2500440512E+00    0.5398956507E-02    0.2339777614E+00    0.4211181059E+00
    0.3700000000E+05    0.4412492767E+00    0.2501443955E+00    0.5246901611E-02    0.2340944815E+00    0.4214966561E+00
    0.3900000000E+05    0.4414076937E+00    0.2502327023E+00    0.5106596454E-02    0.2342000299E+00    0.4218444636E+00
    0.4100000000E+05    0.4415499964E+00    0.2503107490E+00    0.4976609363E-02    0.2342959999E+00    0.4221655180E+00
    0.4300000000E+05    0.4416784598E+00    0.2503799863E+00    0.4855741175E-02    0.2343836925E+00    0.4224631229E+00
    0.4500000000E+05    0.4417949531E+00    0.2504416095E+00    0.4742978866E-02    0.2344641808E+00    0.4227400398E+00
    0.4700000000E+05    0.4419010254E+00    0.2504966124E+00    0.4637460000E-02    0.2345383583E+00    0.4229985971E+00
    0.4900000000E+05    0.4419979717E+00    0.2505458272E+00    0.4538445138E-02    0.2346069747E+00    0.4232407729E+00
    0.1000000000E+05    0.4325856552E+00    0.2449484490E+00    0.1011162132E-01    0.2289902485E+00    0.4080637522E+00
    0.3000000000E+05    0.4405207632E+00    0.2497246690E+00    0.5842774806E-02    0.2336228683E+00    0.4200023837E+00
    0.5000000000E+05    0.4420433702E+00    0.2505684879E+00    0.4491173841E-02    0.2346393995E+00    0.4233562565E+00
    0.7000000000E+05    0.4426643701E+00    0.2508418485E+00    0.3770051377E-02    0.2351085236E+00    0.4251125427E+00
    0.9000000000E+05    0.4429917226E+00    0.2509361655E+00    0.3305791448E-02    0.2353872950E+00    0.4262476153E+00
    0.1100000000E+06    0.4431888024E+00    0.2509563999E+00    0.2975460676E-02    0.2355761464E+00    0.4270651225E+00
    0.1300000000E+06    0.4433174665E+00    0.2509413766E+00    0.2725240810E-02    0.2357147873E+00    0.4276941621E+00
    0.1500000000E+06    0.4434061199E+00    0.2509082655E+00    0.2527376649E-02    0.2358222371E+00    0.4282002153E+00
    0.1700000000E+06    0.4434695560E+00    0.2508655722E+00    0.2365922605E-02    0.2359088192E+00    0.4286205471E+00
    0.1900000000E+06    0.4435161973E+00    0.2508178481E+00    0.2230984608E-02    0.2359806560E+00    0.4289781647E+00
    0.2100000000E+06    0.4435511705E+00    0.2507676626E+00    0.2116057691E-02    0.2360416273E+00    0.4292881641E+00
    0.2300000000E+06    0.4435777615E+00    0.2507165204E+00    0.2016667433E-02    0.2360943219E+00    0.4295609295E+00
    0.2500000000E+06    0.4435981663E+00    0.2506653237E+00    0.1929622385E-02    0.2361405393E+00    0.4298038790E+00
    0.2700000000E+06    0.4436139025E+00    0.2506146190E+00    0.1852577317E-02    0.2361815740E+00    0.4300224782E+00
    0.2900000000E+06    0.4436260497E+00    0.2505647361E+00    0.1783765328E-02    0.2362183833E+00    0.4302208591E+00
    0.3100000000E+06    0.4436353940E+00    0.2505158695E+00    0.1721826740E-02    0.2362516922E+00    0.4304022142E+00
    0.3300000000E+06    0.4436425197E+00    0.2504681279E+00    0.1665696019E-02    0.2362820614E+00    0.4305690568E+00
    0.3500000000E+06    0.4436478694E+00    0.2504215645E+00    0.1614524817E-02    0.2363099320E+00    0.4307233977E+00
    0.3700000000E+06    0.4436517828E+00    0.2503761967E+00    0.1567628257E-02    0.2363356567E+00    0.4308668685E+00
    0.3900000000E+06    0.4436545250E+00    0.2503320188E+00    0.1524446595E-02    0.2363595210E+00    0.4310008099E+00
    0.4100000000E+06    0.4436563049E+00    0.2502890101E+00    0.1484517325E-02    0.2363817592E+00    0.4311263357E+00
    0.4300000000E+06    0.4436572889E+00    0.2502471407E+00    0.1447454515E-02    0.2364025656E+00    0.4312443808E+00
    0.4500000000E+06    0.4436576113E+00    0.2502063749E+00    0.1412933264E-02    0.2364221027E+00    0.4313557365E+00
    0.4700000000E+06    0.4436573808E+00    0.2501666740E+00    0.1380677848E-02    0.2364405079E+00    0.4314610782E+00
    0.4900000000E+06    0.4436566867E+00    0.2501279978E+00    0.1350452561E-02    0.2364578981E+00    0.4315609868E+00
    0.1000000000E+06    0.4431014999E+00    0.2509523489E+00    0.3128132242E-02    0.2354897566E+00    0.4266858195E+00
    0.3000000000E+06    0.4436310318E+00    0.2505401674E+00    0.1752009309E-02    0.2362354370E+00    0.4303134942E+00
    0.5000000000E+06    0.4436561892E+00    0.2501090313E+00    0.1336036706E-02    0.2364662445E+00    0.4316090634E+00
    0.7000000000E+06    0.4436343238E+00    0.2497741829E+00    0.1117220382E-02    0.2365981425E+00    0.4323782699E+00
    0.9000000000E+06    0.4436042822E+00    0.2495037699E+00    0.9773792320E-03    0.2366894855E+00    0.4329189006E+00
    0.1100000000E+07    0.4435738359E+00    0.2492774587E+00    0.8783382821E-03    0.2367590460E+00    0.4333331244E+00
    0.1300000000E+07    0.4435449336E+00    0.2490829491E+00    0.8035572651E-03    0.2368150970E+00    0.4336676261E+00
    0.1500000000E+07    0.4435180082E+00    0.2489123957E+00    0.7445641576E-03    0.2368619809E+00    0.4339474784E+00
    0.1700000000E+07    0.4434930395E+00    0.2487605217E+00    0.6965156461E-03    0.2369022490E+00    0.4341876403E+00
    0.1900000000E+07    0.4434698721E+00    0.2486236171E+00    0.6564177676E-03    0.2369375236E+00    0.4343977260E+00
    0.2100000000E+07    0.4434483210E+00    0.2484989769E+00    0.6223079494E-03    0.2369688984E+00    0.4345842672E+00
    0.2300000000E+07    0.4434282084E+00    0.2483845691E+00    0.5928395090E-03    0.2369971450E+00    0.4347518967E+00
    0.2500000000E+07    0.4434093738E+00    0.2482788289E+00    0.5670538404E-03    0.2370228275E+00    0.4349040155E+00
    0.2700000000E+07    0.4433916771E+00    0.2481805256E+00    0.5442477186E-03    0.2370463706E+00    0.4350431917E+00
    0.2900000000E+07    0.4433749969E+00    0.2480886739E+00    0.5238921119E-03    0.2370681019E+00    0.4351714101E+00
    0.3100000000E+07    0.4433592284E+00    0.2480024727E+00    0.5055804391E-03    0.2370882793E+00    0.4352902361E+00
    0.3300000000E+07    0.4433442809E+00    0.2479212618E+00    0.4889944350E-03    0.2371071097E+00    0.4354009248E+00
    0.3500000000E+07    0.4433300761E+00    0.2478444906E+00    0.4738809604E-03    0.2371247610E+00    0.4355044980E+00
    0.3700000000E+07    0.4433165456E+00    0.2477716953E+00    0.4600358373E-03    0.2371413718E+00    0.4356017979E+00
    0.3900000000E+07    0.4433036299E+00    0.2477024813E+00    0.4472923284E-03    0.2371570578E+00    0.4356935269E+00
    0.4100000000E+07    0.4432912767E+00    0.2476365101E+00    0.4355127622E-03    0.2371719162E+00    0.4357802770E+00
    0.4300000000E+07    0.4432794399E+00    0.2475734893E+00    0.4245823372E-03    0.2371860298E+00    0.4358625510E+00
    0.4500000000E+07    0.4432680788E+00    0.2475131643E+00    0.4144044662E-03    0.2371994697E+00    0.4359407800E+00
    0.4700000000E+07    0.4432571572E+00    0.2474553124E+00    0.4048972274E-03    0.2372122971E+00    0.4360153364E+00
    0.4900000000E+07    0.4432466428E+00    0.2473997373E+00    0.3959906252E-03    0.2372245653E+00    0.4360865435E+00
    0.1000000000E+07    0.4435889296E+00    0.2493860060E+00    0.9240668924E-03    0.2367263383E+00    0.4331381712E+00
    0.3000000000E+07    0.4433670047E+00    0.2480449111E+00    0.5145024317E-03    0.2370783709E+00    0.4352319125E+00
    0.5000000000E+07    0.4432415291E+00    0.2473727486E+00    0.3917434139E-03    0.2372305045E+00    0.4361209810E+00
    0.7000000000E+07    0.4431549805E+00    0.2469191740E+00    0.3273347929E-03    0.2373287196E+00    0.4366871092E+00
    0.9000000000E+07    0.4430889383E+00    0.2465759784E+00    0.2862287475E-03    0.2374013730E+00    0.4371018196E+00
    0.1100000000E+08    0.4430355428E+00    0.2462996556E+00    0.2571411985E-03    0.2374590569E+00    0.4374286627E+00
    0.1300000000E+08    0.4429907263E+00    0.2460682681E+00    0.2351920844E-03    0.2375068985E+00    0.4376981618E+00
    0.1500000000E+08    0.4429521120E+00    0.2458691820E+00    0.2178848918E-03    0.2375477724E+00    0.4379273155E+00
    0.1700000000E+08    0.4429181908E+00    0.2456944481E+00    0.2037936854E-03    0.2375834531E+00    0.4381265551E+00
    0.1900000000E+08    0.4428879450E+00    0.2455387367E+00    0.1920376105E-03    0.2376151130E+00    0.4383027388E+00
    0.2100000000E+08    0.4428606555E+00    0.2453982988E+00    0.1820395751E-03    0.2376435675E+00    0.4384606146E+00
    0.2300000000E+08    0.4428357956E+00    0.2452703965E+00    0.1734037681E-03    0.2376694068E+00    0.4386036045E+00
    0.2500000000E+08    0.4428129678E+00    0.2451529687E+00    0.1658485466E-03    0.2376930716E+00    0.4387342556E+00
    0.2700000000E+08    0.4427918648E+00    0.2450444251E+00    0.1591673667E-03    0.2377148999E+00    0.4388545146E+00
