  Pressure (Pa) 22mC5-400 (mol/kg) 3mC6-400 (mol/kg) 33mC5-400 (mol/kg) 23mC5-400 (mol/kg) C7-400 (mol/kg)
    0.1000000000E+01    0.1593602767E-02    0.2607303076E-02    0.6418445811E-04    0.3730917025E-03    0.1184712493E-01
    0.3000000000E+01    0.4752677672E-02    0.7503065150E-02    0.1854877081E-03    0.1112695092E-02    0.3409953817E-01
    0.5000000000E+01    0.7874800360E-02    0.1201525445E-01    0.2982827063E-03    0.1843654979E-02    0.5461711244E-01
    0.7000000000E+01    0.1096062341E-01    0.1618717046E-01    0.4035172159E-03    0.2566123963E-02    0.7359536749E-01
    0.9000000000E+01    0.1401078406E-01    0.2005583465E-01    0.5019985373E-03    0.3280251062E-02    0.9120149702E-01
    0.1100000000E+02    0.1702590470E-01    0.2365308822E-01    0.5944185555E-03    0.3986181815E-02    0.1075793196E+00
    0.1300000000E+02    0.2000659324E-01    0.2700646741E-01    0.6813736409E-03    0.4684058382E-02    0.1228532263E+00
    0.1500000000E+02    0.2295344359E-01    0.3013990710E-01    0.7633805930E-03    0.5374019644E-02    0.1371313542E+00
    0.1700000000E+02    0.2586703601E-01    0.3307431082E-01    0.8408895106E-03    0.6056201295E-02    0.1505081574E+00
    0.1900000000E+02    0.2874793753E-01    0.3582801579E-01    0.9142942556E-03    0.6730735933E-02    0.1630665057E+00
    0.2100000000E+02    0.3159670232E-01    0.3841717500E-01    0.9839410178E-03    0.7397753149E-02    0.1748794075E+00
    0.2300000000E+02    0.3441387203E-01    0.4085607288E-01    0.1050135368E-02    0.8057379611E-02    0.1860114344E+00
    0.2500000000E+02    0.3719997619E-01    0.4315738789E-01    0.1113148101E-02    0.8709739145E-02    0.1965199063E+00
    0.2700000000E+02    0.3995553248E-01    0.4533241198E-01    0.1173220103E-02    0.9354952814E-02    0.2064558816E+00
    0.2900000000E+02    0.4268104712E-01    0.4739123501E-01    0.1230566427E-02    0.9993138997E-02    0.2158649894E+00
    0.3100000000E+02    0.4537701516E-01    0.4934290057E-01    0.1285379720E-02    0.1062441346E-01    0.2247881329E+00
    0.3300000000E+02    0.4804392077E-01    0.5119553811E-01    0.1337833126E-02    0.1124888944E-01    0.2332620857E+00
    0.3500000000E+02    0.5068223756E-01    0.5295647556E-01    0.1388082742E-02    0.1186667767E-01    0.2413200004E+00
    0.3700000000E+02    0.5329242888E-01    0.5463233574E-01    0.1436269721E-02    0.1247788653E-01    0.2489918434E+00
    0.3900000000E+02    0.5587494805E-01    0.5622911912E-01    0.1482522064E-02    0.1308262202E-01    0.2563047691E+00
    0.4100000000E+02    0.5843023867E-01    0.5775227526E-01    0.1526956166E-02    0.1368098787E-01    0.2632834423E+00
    0.4300000000E+02    0.6095873486E-01    0.5920676456E-01    0.1569678147E-02    0.1427308562E-01    0.2699503166E+00
    0.4500000000E+02    0.6346086152E-01    0.6059711197E-01    0.1610785002E-02    0.1485901463E-01    0.2763258775E+00
    0.4700000000E+02    0.6593703457E-01    0.6192745369E-01    0.1650365600E-02    0.1543887217E-01    0.2824288532E+00
    0.4900000000E+02    0.6838766119E-01    0.6320157807E-01    0.1688501558E-02    0.1601275344E-01    0.2882763989E+00
    0.1000000000E+02    0.1552268605E-01    0.2188657483E-01    0.5489269013E-03    0.3634232019E-02    0.9953575742E-01
    0.3000000000E+02    0.4403269395E-01    0.4837993437E-01    0.1258278454E-02    0.1030963306E-01    0.2203849179E+00
    0.5000000000E+02    0.6960351950E-01    0.6381865638E-01    0.1707051508E-02    0.1629748220E-01    0.2911093569E+00
    0.7000000000E+02    0.9267241778E-01    0.7391715618E-01    0.2017641163E-02    0.2170003448E-01    0.3375675303E+00
    0.9000000000E+02    0.1135936656E+00    0.8103145029E-01    0.2242009866E-02    0.2660014273E-01    0.3704360877E+00
    0.1100000000E+03    0.1326573579E+00    0.8630998798E-01    0.2407134854E-02    0.3106565219E-01    0.3949268548E+00
    0.1300000000E+03    0.1501033213E+00    0.9037930816E-01    0.2529066132E-02    0.3515265372E-01    0.4138872232E+00
    0.1500000000E+03    0.1661315627E+00    0.9361019905E-01    0.2618295361E-02    0.3890792666E-01    0.4290047066E+00
    0.1700000000E+03    0.1809102173E+00    0.9623607054E-01    0.2682145715E-02    0.4237079727E-01    0.4413431170E+00
    0.1900000000E+03    0.1945816669E+00    0.9841116067E-01    0.2725970194E-02    0.4557456927E-01    0.4516064388E+00
    0.2100000000E+03    0.2072673010E+00    0.1002414650E+00    0.2753812814E-02    0.4854763720E-01    0.4602791645E+00
    0.2300000000E+03    0.2190712593E+00    0.1018022202E+00    0.2768802925E-02    0.5131436149E-01    0.4677056904E+00
    0.2500000000E+03    0.2300834010E+00    0.1031483000E+00    0.2773405715E-02    0.5389576274E-01    0.4741375660E+00
    0.2700000000E+03    0.2403816804E+00    0.1043206627E+00    0.2769589693E-02    0.5631007729E-01    0.4797628237E+00
    0.2900000000E+03    0.2500340632E+00    0.1053504956E+00    0.2758943354E-02    0.5857320533E-01    0.4847248485E+00
    0.3100000000E+03    0.2591000835E+00    0.1062619626E+00    0.2742759190E-02    0.6069907500E-01    0.4891348951E+00
    0.3300000000E+03    0.2676321182E+00    0.1070740734E+00    0.2722095805E-02    0.6269994040E-01    0.4930806166E+00
    0.3500000000E+03    0.2756764363E+00    0.1078019871E+00    0.2697824847E-02    0.6458662699E-01    0.4966320122E+00
    0.3700000000E+03    0.2832740685E+00    0.1084579389E+00    0.2670667092E-02    0.6636873498E-01    0.4998456619E+00
    0.3900000000E+03    0.2904615320E+00    0.1090519117E+00    0.2641220596E-02    0.6805480883E-01    0.5027677978E+00
    0.4100000000E+03    0.2972714382E+00    0.1095921308E+00    0.2609982921E-02    0.6965247931E-01    0.5054365680E+00
    0.4300000000E+03    0.3037330035E+00    0.1100854341E+00    0.2577368870E-02    0.7116858309E-01    0.5078837310E+00
    0.4500000000E+03    0.3098724831E+00    0.1105375519E+00    0.2543724744E-02    0.7260926410E-01    0.5101359412E+00
    0.4700000000E+03    0.3157135386E+00    0.1109533225E+00    0.2509339914E-02    0.7398005950E-01    0.5122157352E+00
    0.4900000000E+03    0.3212775525E+00    0.1113368585E+00    0.2474456249E-02    0.7528597334E-01    0.5141422983E+00
    0.1000000000E+03    0.1233416755E+00    0.8385298407E-01    0.2330803175E-02    0.2888347308E-01    0.3835142583E+00
    0.3000000000E+03    0.2546369406E+00    0.1058197334E+00    0.2751472467E-02    0.5965249545E-01    0.4869929173E+00
    0.5000000000E+03    0.3239617948E+00    0.1115176583E+00    0.2456891884E-02    0.7591603334E-01    0.5150533480E+00
    0.7000000000E+03    0.3669588548E+00    0.1140764605E+00    0.2113378601E-02    0.8601365181E-01    0.5282047082E+00
    0.9000000000E+03    0.3962650669E+00    0.1155041710E+00    0.1818799141E-02    0.9290319107E-01    0.5358637167E+00
    0.1100000000E+04    0.4175272349E+00    0.1164012726E+00    0.1580234021E-02    0.9790683309E-01    0.5408903390E+00
    0.1300000000E+04    0.4336572556E+00    0.1170089498E+00    0.1388582612E-02    0.1017066321E+00    0.5444503642E+00
    0.1500000000E+04    0.4463116658E+00    0.1174424059E+00    0.1233649163E-02    0.1046907361E+00    0.5471087075E+00
    0.1700000000E+04    0.4565031132E+00    0.1177634140E+00    0.1107045575E-02    0.1070965047E+00    0.5491726066E+00
    0.1900000000E+04    0.4648857280E+00    0.1180079687E+00    0.1002363820E-02    0.1090773164E+00    0.5508236231E+00
    0.2100000000E+04    0.4719009448E+00    0.1181984040E+00    0.9148009969E-03    0.1107367134E+00    0.5521760047E+00
    0.2300000000E+04    0.4778574620E+00    0.1183492769E+00    0.8407577603E-03    0.1121471287E+00    0.5533052700E+00
    0.2500000000E+04    0.4829776385E+00    0.1184704599E+00    0.7775169439E-03    0.1133607546E+00    0.5542633597E+00
    0.2700000000E+04    0.4874256975E+00    0.1185688703E+00    0.7230061997E-03    0.1144161511E+00    0.5550871858E+00
    0.2900000000E+04    0.4913255522E+00    0.1186494893E+00    0.6756271074E-03    0.1153424232E+00    0.5558037095E+00
    0.3100000000E+04    0.4947724522E+00    0.1187159884E+00    0.6341327579E-03    0.1161619513E+00    0.5564330889E+00
    0.3300000000E+04    0.4978408138E+00    0.1187711285E+00    0.5975397247E-03    0.1168922264E+00    0.5569907022E+00
    0.3500000000E+04    0.5005896169E+00    0.1188170218E+00    0.5650642574E-03    0.1175471164E+00    0.5574884878E+00
    0.3700000000E+04    0.5030662074E+00    0.1188553096E+00    0.5360755797E-03    0.1181377572E+00    0.5579358580E+00
    0.3900000000E+04    0.5053090288E+00    0.1188872843E+00    0.5100613468E-03    0.1186731942E+00    0.5583403350E+00
    0.4100000000E+04    0.5073496194E+00    0.1189139757E+00    0.4866018253E-03    0.1191608504E+00    0.5587080042E+00
    0.4300000000E+04    0.5092140948E+00    0.1189362137E+00    0.4653503904E-03    0.1196068748E+00    0.5590438425E+00
    0.4500000000E+04    0.5109242644E+00    0.1189546732E+00    0.4460186485E-03    0.1200164042E+00    0.5593519605E+00
    0.4700000000E+04    0.5124984833E+00    0.1189699083E+00    0.4283649773E-03    0.1203937631E+00    0.5596357839E+00
    0.4900000000E+04    0.5139523095E+00    0.1189823771E+00    0.4121856196E-03    0.1207426185E+00    0.5598981909E+00
    0.1000000000E+04    0.4076793537E+00    0.1159995989E+00    0.1692983909E-02    0.9558868459E-01    0.5386124272E+00
    0.3000000000E+04    0.4931005549E+00    0.1186843135E+00    0.6542111334E-03    0.1157643395E+00    0.5561282374E+00
    0.5000000000E+04    0.5146383011E+00    0.1189876960E+00    0.4045937376E-03    0.1209073536E+00    0.5600221395E+00
    0.7000000000E+04    0.5244244408E+00    0.1190147565E+00    0.2994240631E-03    0.1232687531E+00    0.5618098267E+00
    0.9000000000E+04    0.5300085529E+00    0.1189724735E+00    0.2421098320E-03    0.1246301219E+00    0.5628641820E+00
    0.1100000000E+05    0.5336159507E+00    0.1189090749E+00    0.2060281188E-03    0.1255185665E+00    0.5635729491E+00
    0.1300000000E+05    0.5361369642E+00    0.1188399177E+00    0.1811341592E-03    0.1261457384E+00    0.5640894382E+00
    0.1500000000E+05    0.5379972621E+00    0.1187706746E+00    0.1628434325E-03    0.1266131873E+00    0.5644869671E+00
    0.1700000000E+05    0.5394259306E+00    0.1187035569E+00    0.1487765257E-03    0.1269757563E+00    0.5648052416E+00
    0.1900000000E+05    0.5405571817E+00    0.1186393861E+00    0.1375783037E-03    0.1272656875E+00    0.5650677488E+00
    0.2100000000E+05    0.5414748468E+00    0.1185783866E+00    0.1284207555E-03    0.1275031894E+00    0.5652893308E+00
    0.2300000000E+05    0.5422339811E+00    0.1185205195E+00    0.1207692937E-03    0.1277015794E+00    0.5654798619E+00
    0.2500000000E+05    0.5428722314E+00    0.1184656320E+00    0.1142631303E-03    0.1278699949E+00    0.5656461877E+00
    0.2700000000E+05    0.5434162099E+00    0.1184135281E+00    0.1086497428E-03    0.1280149173E+00    0.5657932167E+00
    0.2900000000E+05    0.5438852598E+00    0.1183640013E+00    0.1037469250E-03    0.1281410736E+00    0.5659245692E+00
    0.3100000000E+05    0.5442937773E+00    0.1183168511E+00    0.9941977069E-04    0.1282519938E+00    0.5660429799E+00
    0.3300000000E+05    0.5446526974E+00    0.1182718891E+00    0.9556615943E-04    0.1283503681E+00    0.5661505572E+00
    0.3500000000E+05    0.5449704745E+00    0.1182289422E+00    0.9210729060E-04    0.1284382838E+00    0.5662489558E+00
    0.3700000000E+05    0.5452537478E+00    0.1181878529E+00    0.8898132843E-04    0.1285173852E+00    0.5663394947E+00
    0.3900000000E+05    0.5455078032E+00    0.1181484788E+00    0.8613902565E-04    0.1285889859E+00    0.5664232398E+00
    0.4100000000E+05    0.5457369014E+00    0.1181106909E+00    0.8354064137E-04    0.1286541484E+00    0.5665010633E+00
    0.4300000000E+05    0.5459445145E+00    0.1180743733E+00    0.8115372675E-04    0.1287137413E+00    0.5665736861E+00
    0.4500000000E+05    0.5461335005E+00    0.1180394210E+00    0.7895150542E-04    0.1287684820E+00    0.5666417109E+00
    0.4700000000E+05    0.5463062331E+00    0.1180057392E+00    0.7691166989E-04    0.1288189684E+00    0.5667056452E+00
    0.4900000000E+05    0.5464647000E+00    0.1179732421E+00    0.7501547390E-04    0.1288657026E+00    0.5667659202E+00
    0.1000000000E+05    0.5319875363E+00    0.1189420983E+00    0.2222358544E-03    0.1251164061E+00    0.5632493900E+00
    0.3000000000E+05    0.5440963339E+00    0.1183401413E+00    0.1015184111E-03    0.1281982536E+00    0.5659852482E+00
    0.5000000000E+05    0.5465391184E+00    0.1179574133E+00    0.7411618222E-04    0.1288877981E+00    0.5667948030E+00
    0.7000000000E+05    0.5475749582E+00    0.1176875270E+00    0.6084128221E-04    0.1292083202E+00    0.5672472929E+00
    0.9000000000E+05    0.5481422196E+00    0.1174796696E+00    0.5268675611E-04    0.1293995895E+00    0.5675564248E+00
    0.1100000000E+06    0.5484974457E+00    0.1173107795E+00    0.4704392735E-04    0.1295295310E+00    0.5677896665E+00
    0.1300000000E+06    0.5487391815E+00    0.1171685970E+00    0.4284768224E-04    0.1296251201E+00    0.5679763434E+00
    0.1500000000E+06    0.5489132870E+00    0.1170458499E+00    0.3957271496E-04    0.1296993182E+00    0.5681316847E+00
    0.1700000000E+06    0.5490439533E+00    0.1169378759E+00    0.3692651149E-04    0.1297591778E+00    0.5682645614E+00
    0.1900000000E+06    0.5491451283E+00    0.1168415087E+00    0.3473171663E-04    0.1298088900E+00    0.5683805739E+00
    0.2100000000E+06    0.5492254079E+00    0.1167545007E+00    0.3287378502E-04    0.1298511150E+00    0.5684834760E+00
    0.2300000000E+06    0.5492903714E+00    0.1166751986E+00    0.3127503481E-04    0.1298876301E+00    0.5685759019E+00
    0.2500000000E+06    0.5493437942E+00    0.1166023514E+00    0.2988069328E-04    0.1299196729E+00    0.5686597692E+00
    0.2700000000E+06    0.5493883192E+00    0.1165349898E+00    0.2865089421E-04    0.1299481339E+00    0.5687365162E+00
    0.2900000000E+06    0.5494258505E+00    0.1164723472E+00    0.2755584382E-04    0.1299736727E+00    0.5688072486E+00
    0.3100000000E+06    0.5494577928E+00    0.1164138071E+00    0.2657277280E-04    0.1299967891E+00    0.5688728343E+00
    0.3300000000E+06    0.5494852049E+00    0.1163588665E+00    0.2568394382E-04    0.1300178702E+00    0.5689339669E+00
    0.3500000000E+06    0.5495088985E+00    0.1163071092E+00    0.2487530846E-04    0.1300372203E+00    0.5689912091E+00
    0.3700000000E+06    0.5495295065E+00    0.1162581875E+00    0.2413557736E-04    0.1300550831E+00    0.5690450238E+00
    0.3900000000E+06    0.5495475291E+00    0.1162118075E+00    0.2345556148E-04    0.1300716561E+00    0.5690957962E+00
    0.4100000000E+06    0.5495633663E+00    0.1161677188E+00    0.2282769575E-04    0.1300871013E+00    0.5691438501E+00
    0.4300000000E+06    0.5495773419E+00    0.1161257061E+00    0.2224568831E-04    0.1301015531E+00    0.5691894607E+00
    0.4500000000E+06    0.5495897205E+00    0.1160855831E+00    0.2170425803E-04    0.1301151240E+00    0.5692328631E+00
    0.4700000000E+06    0.5496007204E+00    0.1160471877E+00    0.2119893524E-04    0.1301279092E+00    0.5692742605E+00
    0.4900000000E+06    0.5496105230E+00    0.1160103775E+00    0.2072590840E-04    0.1301399896E+00    0.5693138293E+00
    0.1000000000E+06    0.5483383254E+00    0.1173912791E+00    0.4963662429E-04    0.1294700516E+00    0.5676802195E+00
    0.3000000000E+06    0.5494424474E+00    0.1164425981E+00    0.2705151920E-04    0.1299855073E+00    0.5688406380E+00
    0.5000000000E+06    0.5496150238E+00    0.1159925271E+00    0.2050046488E-04    0.1301457876E+00    0.5693329768E+00
    0.7000000000E+06    0.5496687214E+00    0.1156948439E+00    0.1709098286E-04    0.1302374087E+00    0.5696488862E+00
    0.9000000000E+06    0.5496872776E+00    0.1154721750E+00    0.1492353905E-04    0.1303008336E+00    0.5698817860E+00
    0.1100000000E+07    0.5496918821E+00    0.1152942760E+00    0.1339346966E-04    0.1303491073E+00    0.5700662814E+00
    0.1300000000E+07    0.5496900630E+00    0.1151461520E+00    0.1224079646E-04    0.1303879837E+00    0.5702190414E+00
    0.1500000000E+07    0.5496850445E+00    0.1150192682E+00    0.1133300707E-04    0.1304204846E+00    0.5703493813E+00
    0.1700000000E+07    0.5496783807E+00    0.1149083018E+00    0.1059460689E-04    0.1304483854E+00    0.5704630376E+00
    0.1900000000E+07    0.5496708829E+00    0.1148097087E+00    0.9979048337E-05    0.1304728152E+00    0.5705637937E+00
    0.2100000000E+07    0.5496629981E+00    0.1147210099E+00    0.9455880754E-05    0.1304945351E+00    0.5706542770E+00
    0.2300000000E+07    0.5496549821E+00    0.1146404039E+00    0.9004243739E-05    0.1305140819E+00    0.5707363863E+00
    0.2500000000E+07    0.5496469842E+00    0.1145665398E+00    0.8609308521E-05    0.1305318479E+00    0.5708115383E+00
    0.2700000000E+07    0.5496390924E+00    0.1144983790E+00    0.8260209413E-05    0.1305481287E+00    0.5708808184E+00
    0.2900000000E+07    0.5496313576E+00    0.1144351055E+00    0.7948780367E-05    0.1305631520E+00    0.5709450765E+00
    0.3100000000E+07    0.5496238086E+00    0.1143760669E+00    0.7668750912E-05    0.1305770972E+00    0.5710049903E+00
    0.3300000000E+07    0.5496164599E+00    0.1143207330E+00    0.7415216398E-05    0.1305901079E+00    0.5710611091E+00
    0.3500000000E+07    0.5496093172E+00    0.1142686673E+00    0.7184278470E-05    0.1306023010E+00    0.5711138842E+00
    0.3700000000E+07    0.5496023808E+00    0.1142195062E+00    0.6972794716E-05    0.1306137727E+00    0.5711636911E+00
    0.3900000000E+07    0.5495956476E+00    0.1141729434E+00    0.6778200385E-05    0.1306246032E+00    0.5712108452E+00
    0.4100000000E+07    0.5495891121E+00    0.1141287188E+00    0.6598378893E-05    0.1306348603E+00    0.5712556143E+00
    0.4300000000E+07    0.5495827677E+00    0.1140866092E+00    0.6431566085E-05    0.1306446014E+00    0.5712982276E+00
    0.4500000000E+07    0.5495766073E+00    0.1140464222E+00    0.6276278342E-05    0.1306538757E+00    0.5713388829E+00
    0.4700000000E+07    0.5495706232E+00    0.1140079902E+00    0.6131257810E-05    0.1306627258E+00    0.5713777518E+00
    0.4900000000E+07    0.5495648078E+00    0.1139711667E+00    0.5995430154E-05    0.1306711887E+00    0.5714149844E+00
    0.1000000000E+07    0.5496906991E+00    0.1153787776E+00    0.1409942590E-04    0.1303264122E+00    0.5699787998E+00
    0.3000000000E+07    0.5496275588E+00    0.1144050925E+00    0.7805174380E-05    0.1305702497E+00    0.5709755395E+00
    0.5000000000E+07    0.5495619610E+00    0.1139533173E+00    0.5930669834E-05    0.1306752853E+00    0.5714330290E+00
    0.7000000000E+07    0.5495122076E+00    0.1136562808E+00    0.4949440695E-05    0.1307429827E+00    0.5717330524E+00
    0.9000000000E+07    0.5494726473E+00    0.1134347361E+00    0.4324085282E-05    0.1307930075E+00    0.5719565770E+00
    0.1100000000E+08    0.5494399029E+00    0.1132580407E+00    0.3882006495E-05    0.1308326946E+00    0.5721347459E+00
    0.1300000000E+08    0.5494119944E+00    0.1131110890E+00    0.3548672632E-05    0.1308655903E+00    0.5722828707E+00
    0.1500000000E+08    0.5493876846E+00    0.1129853141E+00    0.3285995936E-05    0.1308936816E+00    0.5724096209E+00
    0.1700000000E+08    0.5493661537E+00    0.1128753867E+00    0.3072239754E-05    0.1309181938E+00    0.5725203840E+00
    0.1900000000E+08    0.5493468322E+00    0.1127777649E+00    0.2893985509E-05    0.1309399363E+00    0.5726187376E+00
    0.2100000000E+08    0.5493293089E+00    0.1126899751E+00    0.2742446963E-05    0.1309594718E+00    0.5727071792E+00
    0.2300000000E+08    0.5493132775E+00    0.1126102213E+00    0.2611600783E-05    0.1309772071E+00    0.5727875210E+00
    0.2500000000E+08    0.5492985035E+00    0.1125371583E+00    0.2497162830E-05    0.1309934461E+00    0.5728611200E+00
    0.2700000000E+08    0.5492848037E+00    0.1124697527E+00    0.2395992494E-05    0.1310084217E+00    0.5729290184E+00
