  Pressure (Pa) 22mC5-400 (mol/kg) 3mC6-400 (mol/kg) 33mC5-400 (mol/kg) 23mC5-400 (mol/kg) C7-400 (mol/kg)
    0.1000000000E+01    0.1593739353E-02    0.5271519713E-02    0.2590239788E-03    0.1865618107E-03    0.1710826990E-02
    0.3000000000E+01    0.4753901184E-02    0.1548742827E-01    0.7611881944E-03    0.5564905097E-03    0.5026815705E-02
    0.5000000000E+01    0.7878183089E-02    0.2528935452E-01    0.1243202053E-02    0.9222227542E-03    0.8209074409E-02
    0.7000000000E+01    0.1096722251E-01    0.3470206807E-01    0.1706213790E-02    0.1283833080E-02    0.1126559178E-01
    0.9000000000E+01    0.1402164173E-01    0.4374839897E-01    0.2151282762E-02    0.1641394247E-02    0.1420373146E-01
    0.1100000000E+02    0.1704204829E-01    0.5244942398E-01    0.2579388022E-02    0.1994977297E-02    0.1703029202E-01
    0.1300000000E+02    0.2002903543E-01    0.6082463179E-01    0.2991435917E-02    0.2344651598E-02    0.1975156023E-01
    0.1500000000E+02    0.2298318254E-01    0.6889206982E-01    0.3388266836E-02    0.2690484894E-02    0.2237335828E-01
    0.1700000000E+02    0.2590505550E-01    0.7666847510E-01    0.3770661218E-02    0.3032543358E-02    0.2490108601E-01
    0.1900000000E+02    0.2879520712E-01    0.8416939113E-01    0.4139344908E-02    0.3370891628E-02    0.2733975852E-01
    0.2100000000E+02    0.3165417750E-01    0.9140927241E-01    0.4494993951E-02    0.3705592858E-02    0.2969403986E-01
    0.2300000000E+02    0.3448249440E-01    0.9840157825E-01    0.4838238882E-02    0.4036708760E-02    0.3196827325E-01
    0.2500000000E+02    0.3728067354E-01    0.1051588570E+00    0.5169668585E-02    0.4364299639E-02    0.3416650821E-01
    0.2700000000E+02    0.4004921902E-01    0.1116928217E+00    0.5489833751E-02    0.4688424440E-02    0.3629252499E-01
    0.2900000000E+02    0.4278862360E-01    0.1180144189E+00    0.5799250005E-02    0.5009140781E-02    0.3834985664E-01
    0.3100000000E+02    0.4549936900E-01    0.1241338898E+00    0.6098400728E-02    0.5326504992E-02    0.4034180883E-01
    0.3300000000E+02    0.4818192624E-01    0.1300608267E+00    0.6387739598E-02    0.5640572152E-02    0.4227147796E-01
    0.3500000000E+02    0.5083675594E-01    0.1358042234E+00    0.6667692906E-02    0.5951396121E-02    0.4414176739E-01
    0.3700000000E+02    0.5346430856E-01    0.1413725211E+00    0.6938661648E-02    0.6259029575E-02    0.4595540235E-01
    0.3900000000E+02    0.5606502472E-01    0.1467736503E+00    0.7201023427E-02    0.6563524036E-02    0.4771494334E-01
    0.4100000000E+02    0.5863933547E-01    0.1520150690E+00    0.7455134186E-02    0.6864929908E-02    0.4942279843E-01
    0.4300000000E+02    0.6118766250E-01    0.1571037971E+00    0.7701329788E-02    0.7163296503E-02    0.5108123446E-01
    0.4500000000E+02    0.6371041845E-01    0.1620464487E+00    0.7939927456E-02    0.7458672072E-02    0.5269238721E-01
    0.4700000000E+02    0.6620800712E-01    0.1668492600E+00    0.8171227088E-02    0.7751103834E-02    0.5425827082E-01
    0.4900000000E+02    0.6868082370E-01    0.1715181172E+00    0.8395512466E-02    0.8040638000E-02    0.5578078626E-01
    0.1000000000E+02    0.1553605919E-01    0.4814082125E-01    0.2367397588E-02    0.1818678663E-02    0.1563055479E-01
    0.3000000000E+02    0.4414754901E-01    0.1210988060E+00    0.5950079535E-02    0.5168238431E-02    0.3935380693E-01
    0.5000000000E+02    0.6990806366E-01    0.1738040624E+00    0.8505109358E-02    0.8184332659E-02    0.5652634598E-01
    0.7000000000E+02    0.9324243307E-01    0.2136894589E+00    0.1038713013E-01    0.1091663871E-01    0.6954807015E-01
    0.9000000000E+02    0.1144939265E+00    0.2449433070E+00    0.1180147745E-01    0.1340529789E-01    0.7977221327E-01
    0.1100000000E+03    0.1339429383E+00    0.2701062198E+00    0.1287671872E-01    0.1568310005E-01    0.8802020240E-01
    0.1300000000E+03    0.1518207780E+00    0.2908092424E+00    0.1369824038E-01    0.1777709572E-01    0.9481974405E-01
    0.1500000000E+03    0.1683199932E+00    0.3081477245E+00    0.1432538126E-01    0.1970980311E-01    0.1005254678E+00
    0.1700000000E+03    0.1836021990E+00    0.3228847336E+00    0.1480086944E-01    0.2150012343E-01    0.1053845919E+00
    0.1900000000E+03    0.1978040858E+00    0.3355682886E+00    0.1515635361E-01    0.2316404337E-01    0.1095747839E+00
    0.2100000000E+03    0.2110420809E+00    0.3466022086E+00    0.1541581621E-01    0.2471518008E-01    0.1132270508E+00
    0.2300000000E+03    0.2234160016E+00    0.3562906689E+00    0.1559777188E-01    0.2616520842E-01    0.1164401400E+00
    0.2500000000E+03    0.2350119454E+00    0.3648671883E+00    0.1571673566E-01    0.2752419880E-01    0.1192899124E+00
    0.2700000000E+03    0.2459045960E+00    0.3725140463E+00    0.1578423417E-01    0.2880088685E-01    0.1218356233E+00
    0.2900000000E+03    0.2561590781E+00    0.3793756266E+00    0.1580952062E-01    0.3000289030E-01    0.1241242406E+00
    0.3100000000E+03    0.2658324610E+00    0.3855677936E+00    0.1580009181E-01    0.3113688485E-01    0.1261934803E+00
    0.3300000000E+03    0.2749749855E+00    0.3911846139E+00    0.1576206958E-01    0.3220874758E-01    0.1280739833E+00
    0.3500000000E+03    0.2836310729E+00    0.3963032608E+00    0.1570048691E-01    0.3322367493E-01    0.1297909047E+00
    0.3700000000E+03    0.2918401580E+00    0.4009876499E+00    0.1561950577E-01    0.3418628021E-01    0.1313650922E+00
    0.3900000000E+03    0.2996373831E+00    0.4052911742E+00    0.1552258526E-01    0.3510067461E-01    0.1328139729E+00
    0.4100000000E+03    0.3070541776E+00    0.4092587881E+00    0.1541261279E-01    0.3597053512E-01    0.1341522293E+00
    0.4300000000E+03    0.3141187459E+00    0.4129286139E+00    0.1529200761E-01    0.3679916149E-01    0.1353923209E+00
    0.4500000000E+03    0.3208564790E+00    0.4163331950E+00    0.1516280316E-01    0.3758952441E-01    0.1365448907E+00
    0.4700000000E+03    0.3272903047E+00    0.4195004825E+00    0.1502671319E-01    0.3834430646E-01    0.1376190861E+00
    0.4900000000E+03    0.3334409856E+00    0.4224546191E+00    0.1488518524E-01    0.3906593695E-01    0.1386228133E+00
    0.1000000000E+03    0.1244282705E+00    0.2581683873E+00    0.1237538958E-01    0.1456874673E-01    0.8410514083E-01
    0.3000000000E+03    0.2610651196E+00    0.3825490615E+00    0.1580873452E-01    0.3057800415E-01    0.1251842227E+00
    0.5000000000E+03    0.3364161065E+00    0.4238584164E+00    0.1481277245E-01    0.3941501771E-01    0.1391004338E+00
    0.7000000000E+03    0.3848257435E+00    0.4446219950E+00    0.1329159991E-01    0.4509759348E-01    0.1462256744E+00
    0.9000000000E+03    0.4187201208E+00    0.4571534784E+00    0.1187822880E-01    0.4907984637E-01    0.1506028887E+00
    0.1100000000E+04    0.4438149763E+00    0.4655523420E+00    0.1067488284E-01    0.5203084388E-01    0.1535874435E+00
    0.1300000000E+04    0.4631471905E+00    0.4715791903E+00    0.9670608207E-02    0.5430618419E-01    0.1557652867E+00
    0.1500000000E+04    0.4784926565E+00    0.4761170905E+00    0.8832770977E-02    0.5611387653E-01    0.1574321950E+00
    0.1700000000E+04    0.4909635477E+00    0.4796583215E+00    0.8129306898E-02    0.5758422900E-01    0.1587540823E+00
    0.1900000000E+04    0.5012933434E+00    0.4824992673E+00    0.7533520695E-02    0.5880320607E-01    0.1598314503E+00
    0.2100000000E+04    0.5099858331E+00    0.4848291639E+00    0.7024268059E-02    0.5982987017E-01    0.1607288530E+00
    0.2300000000E+04    0.5173986256E+00    0.4867745683E+00    0.6585048019E-02    0.6070615869E-01    0.1614897180E+00
    0.2500000000E+04    0.5237925956E+00    0.4884233589E+00    0.6202998179E-02    0.6146267393E-01    0.1621443766E+00
    0.2700000000E+04    0.5293624972E+00    0.4898384824E+00    0.5868044328E-02    0.6212226866E-01    0.1627146802E+00
    0.2900000000E+04    0.5342566350E+00    0.4910662218E+00    0.5572237286E-02    0.6270235032E-01    0.1632167873E+00
    0.3100000000E+04    0.5385899054E+00    0.4921413752E+00    0.5309251095E-02    0.6321640905E-01    0.1636629152E+00
    0.3300000000E+04    0.5424526806E+00    0.4930906148E+00    0.5074007000E-02    0.6367505865E-01    0.1640624809E+00
    0.3500000000E+04    0.5459170026E+00    0.4939347309E+00    0.4862391830E-02    0.6408676266E-01    0.1644228654E+00
    0.3700000000E+04    0.5490409929E+00    0.4946901707E+00    0.4671046190E-02    0.6445835125E-01    0.1647499399E+00
    0.3900000000E+04    0.5518720499E+00    0.4953701172E+00    0.4497204142E-02    0.6479539606E-01    0.1650484360E+00
    0.4100000000E+04    0.5544492047E+00    0.4959852619E+00    0.4338570933E-02    0.6510248655E-01    0.1653222122E+00
    0.4300000000E+04    0.5568048835E+00    0.4965443671E+00    0.4193228975E-02    0.6538343666E-01    0.1655744474E+00
    0.4500000000E+04    0.5589662435E+00    0.4970546831E+00    0.4059564968E-02    0.6564144154E-01    0.1658077863E+00
    0.4700000000E+04    0.5609561980E+00    0.4975222609E+00    0.3936212949E-02    0.6587919780E-01    0.1660244478E+00
    0.4900000000E+04    0.5627942108E+00    0.4979521907E+00    0.3822009428E-02    0.6609899681E-01    0.1662263082E+00
    0.1000000000E+04    0.4321375938E+00    0.4617295502E+00    0.1124997900E-01    0.5065733534E-01    0.1522227574E+00
    0.3000000000E+04    0.5364872386E+00    0.4916210448E+00    0.5436984544E-02    0.6296691151E-01    0.1634462048E+00
    0.5000000000E+04    0.5636615349E+00    0.4981544115E+00    0.3768021212E-02    0.6620278592E-01    0.1663221969E+00
    0.7000000000E+04    0.5760310176E+00    0.5009897392E+00    0.2988510094E-02    0.6768927284E-01    0.1677500363E+00
    0.9000000000E+04    0.5830769720E+00    0.5025563315E+00    0.2530989486E-02    0.6854374587E-01    0.1686415817E+00
    0.1100000000E+05    0.5876190571E+00    0.5035392589E+00    0.2226060525E-02    0.6909957765E-01    0.1692685201E+00
    0.1300000000E+05    0.5907871368E+00    0.5042065280E+00    0.2005913539E-02    0.6949077370E-01    0.1697426215E+00
    0.1500000000E+05    0.5931210830E+00    0.5046844153E+00    0.1838067737E-02    0.6978156351E-01    0.1701191045E+00
    0.1700000000E+05    0.5949110692E+00    0.5050401323E+00    0.1704958239E-02    0.7000657614E-01    0.1704287205E+00
    0.1900000000E+05    0.5963268436E+00    0.5053126912E+00    0.1596217751E-02    0.7018613146E-01    0.1706901129E+00
    0.2100000000E+05    0.5974742752E+00    0.5055262571E+00    0.1505309214E-02    0.7033294150E-01    0.1709153263E+00
    0.2300000000E+05    0.5984227931E+00    0.5056965759E+00    0.1427892318E-02    0.7045536833E-01    0.1711125359E+00
    0.2500000000E+05    0.5992198093E+00    0.5058343326E+00    0.1360963414E-02    0.7055913973E-01    0.1712875145E+00
    0.2700000000E+05    0.5998987980E+00    0.5059470239E+00    0.1302372090E-02    0.7064831197E-01    0.1714444719E+00
    0.2900000000E+05    0.6004840623E+00    0.5060400575E+00    0.1250534580E-02    0.7072583900E-01    0.1715865625E+00
    0.3100000000E+05    0.6009936713E+00    0.5061174277E+00    0.1204256158E-02    0.7079392366E-01    0.1717162038E+00
    0.3300000000E+05    0.6014413366E+00    0.5061821450E+00    0.1162616881E-02    0.7085424269E-01    0.1718352854E+00
    0.3500000000E+05    0.6018376504E+00    0.5062365188E+00    0.1124895673E-02    0.7090809523E-01    0.1719453097E+00
    0.3700000000E+05    0.6021909237E+00    0.5062823479E+00    0.1090518480E-02    0.7095650377E-01    0.1720474884E+00
    0.3900000000E+05    0.6025077689E+00    0.5063210531E+00    0.1059021989E-02    0.7100028422E-01    0.1721428123E+00
    0.4100000000E+05    0.6027935123E+00    0.5063537698E+00    0.1030027682E-02    0.7104009579E-01    0.1722321006E+00
    0.4300000000E+05    0.6030524915E+00    0.5063814155E+00    0.1003222940E-02    0.7107647696E-01    0.1723160376E+00
    0.4500000000E+05    0.6032882751E+00    0.5064047388E+00    0.9783470294E-03    0.7110987204E-01    0.1723952007E+00
    0.4700000000E+05    0.6035038254E+00    0.5064243560E+00    0.9551805638E-03    0.7114065096E-01    0.1724700809E+00
    0.4900000000E+05    0.6037016216E+00    0.5064407782E+00    0.9335374598E-03    0.7116912428E-01    0.1725410988E+00
    0.1000000000E+05    0.5855698717E+00    0.5030990443E+00    0.2364918857E-02    0.6884819289E-01    0.1689791883E+00
    0.3000000000E+05    0.6007473815E+00    0.5060804932E+00    0.1226763386E-02    0.7076094653E-01    0.1716528107E+00
    0.5000000000E+05    0.6037945285E+00    0.5064479276E+00    0.9232365650E-03    0.7118258004E-01    0.1725752748E+00
    0.7000000000E+05    0.6050899082E+00    0.5064973936E+00    0.7684568838E-03    0.7137730084E-01    0.1731228298E+00
    0.9000000000E+05    0.6058027920E+00    0.5064622462E+00    0.6708835156E-03    0.7149304778E-01    0.1735094824E+00
    0.1100000000E+06    0.6062519813E+00    0.5063989403E+00    0.6022910156E-03    0.7157147595E-01    0.1738073792E+00
    0.1300000000E+06    0.6065598285E+00    0.5063262290E+00    0.5507355673E-03    0.7162906181E-01    0.1740492552E+00
    0.1500000000E+06    0.6067832746E+00    0.5062514215E+00    0.5101863660E-03    0.7167369862E-01    0.1742526444E+00
    0.1700000000E+06    0.6069523746E+00    0.5061775996E+00    0.4772284145E-03    0.7170967129E-01    0.1744280032E+00
    0.1900000000E+06    0.6070844746E+00    0.5061060806E+00    0.4497649051E-03    0.7173952129E-01    0.1745820567E+00
    0.2100000000E+06    0.6071902778E+00    0.5060373852E+00    0.4264282241E-03    0.7176485928E-01    0.1747193802E+00
    0.2300000000E+06    0.6072767424E+00    0.5059716576E+00    0.4062835281E-03    0.7178675998E-01    0.1748432244E+00
    0.2500000000E+06    0.6073485841E+00    0.5059088615E+00    0.3886673680E-03    0.7180597061E-01    0.1749559807E+00
    0.2700000000E+06    0.6074091105E+00    0.5058488754E+00    0.3730942142E-03    0.7182302859E-01    0.1750594582E+00
    0.2900000000E+06    0.6074607087E+00    0.5057915414E+00    0.3591995220E-03    0.7183833142E-01    0.1751550585E+00
    0.3100000000E+06    0.6075051440E+00    0.5057366897E+00    0.3467035777E-03    0.7185218021E-01    0.1752438891E+00
    0.3300000000E+06    0.6075437492E+00    0.5056841519E+00    0.3353877226E-03    0.7186480777E-01    0.1753268400E+00
    0.3500000000E+06    0.6075775489E+00    0.5056337667E+00    0.3250782395E-03    0.7187639730E-01    0.1754046371E+00
    0.3700000000E+06    0.6076073435E+00    0.5055853833E+00    0.3156351473E-03    0.7188709523E-01    0.1754778801E+00
    0.3900000000E+06    0.6076337671E+00    0.5055388623E+00    0.3069442283E-03    0.7189702020E-01    0.1755470703E+00
    0.4100000000E+06    0.6076573283E+00    0.5054940754E+00    0.2989112432E-03    0.7190626949E-01    0.1756126305E+00
    0.4300000000E+06    0.6076784396E+00    0.5054509054E+00    0.2914576567E-03    0.7191492379E-01    0.1756749210E+00
    0.4500000000E+06    0.6076974391E+00    0.5054092451E+00    0.2845174293E-03    0.7192305063E-01    0.1757342511E+00
    0.4700000000E+06    0.6077146063E+00    0.5053689966E+00    0.2780345756E-03    0.7193070706E-01    0.1757908883E+00
    0.4900000000E+06    0.6077301744E+00    0.5053300706E+00    0.2719612802E-03    0.7193794165E-01    0.1758450654E+00
    0.1000000000E+06    0.6060504006E+00    0.5064325250E+00    0.6339136329E-03    0.7153559734E-01    0.1736669686E+00
    0.3000000000E+06    0.6074837300E+00    0.5057638159E+00    0.3527915855E-03    0.7184542168E-01    0.1752002600E+00
    0.5000000000E+06    0.6077374211E+00    0.5053110777E+00    0.2690651402E-03    0.7194141401E-01    0.1758712962E+00
    0.7000000000E+06    0.6078327622E+00    0.5049841578E+00    0.2251380470E-03    0.7199630013E-01    0.1763052487E+00
    0.9000000000E+06    0.6078783784E+00    0.5047287313E+00    0.1970878435E-03    0.7203432421E-01    0.1766263505E+00
    0.1100000000E+07    0.6079027456E+00    0.5045190830E+00    0.1772261369E-03    0.7206328852E-01    0.1768812731E+00
    0.1300000000E+07    0.6079163919E+00    0.5043412267E+00    0.1622293669E-03    0.7208663241E-01    0.1770926607E+00
    0.1500000000E+07    0.6079240361E+00    0.5041867370E+00    0.1503973009E-03    0.7210616165E-01    0.1772732236E+00
    0.1700000000E+07    0.6079280744E+00    0.5040501500E+00    0.1407586558E-03    0.7212293742E-01    0.1774308118E+00
    0.1900000000E+07    0.6079298354E+00    0.5039277207E+00    0.1327132880E-03    0.7213763456E-01    0.1775706144E+00
    0.2100000000E+07    0.6079301051E+00    0.5038167706E+00    0.1258679054E-03    0.7215070816E-01    0.1776962402E+00
    0.2300000000E+07    0.6079293729E+00    0.5037153172E+00    0.1199526824E-03    0.7216247924E-01    0.1778103007E+00
    0.2500000000E+07    0.6079279551E+00    0.5036218522E+00    0.1147755667E-03    0.7217318260E-01    0.1779147466E+00
    0.2700000000E+07    0.6079260634E+00    0.5035352009E+00    0.1101956760E-03    0.7218299499E-01    0.1780110732E+00
    0.2900000000E+07    0.6079238428E+00    0.5034544308E+00    0.1061070257E-03    0.7219205281E-01    0.1781004525E+00
    0.3100000000E+07    0.6079213947E+00    0.5033787889E+00    0.1024281602E-03    0.7220046342E-01    0.1781838194E+00
    0.3300000000E+07    0.6079187916E+00    0.5033076587E+00    0.9909531511E-04    0.7220831289E-01    0.1782619322E+00
    0.3500000000E+07    0.6079160857E+00    0.5032405288E+00    0.9605777067E-04    0.7221567122E-01    0.1783354143E+00
    0.3700000000E+07    0.6079133151E+00    0.5031769701E+00    0.9327461453E-04    0.7222259609E-01    0.1784047842E+00
    0.3900000000E+07    0.6079105082E+00    0.5031166196E+00    0.9071243400E-04    0.7222913563E-01    0.1784704780E+00
    0.4100000000E+07    0.6079076856E+00    0.5030591667E+00    0.8834363864E-04    0.7223533039E-01    0.1785328660E+00
    0.4300000000E+07    0.6079048631E+00    0.5030043443E+00    0.8614521936E-04    0.7224121483E-01    0.1785922650E+00
    0.4500000000E+07    0.6079020522E+00    0.5029519206E+00    0.8409781593E-04    0.7224681852E-01    0.1786489486E+00
    0.4700000000E+07    0.6078992616E+00    0.5029016930E+00    0.8218500623E-04    0.7225216698E-01    0.1787031544E+00
    0.4900000000E+07    0.6078964976E+00    0.5028534839E+00    0.8039275755E-04    0.7225728244E-01    0.1787550900E+00
    0.1000000000E+07    0.6078923539E+00    0.5046192352E+00    0.1863963960E-03    0.7204966852E-01    0.1767603420E+00
    0.3000000000E+07    0.6079226421E+00    0.5034160101E+00    0.1042207070E-03    0.7219633321E-01    0.1781428365E+00
    0.5000000000E+07    0.6078951271E+00    0.5028300864E+00    0.7953800431E-04    0.7225975895E-01    0.1787802644E+00
    0.7000000000E+07    0.6078697251E+00    0.5024381015E+00    0.6656695730E-04    0.7230071653E-01    0.1791992432E+00
    0.9000000000E+07    0.6078481428E+00    0.5021427856E+00    0.5827868867E-04    0.7233101901E-01    0.1795119117E+00
    0.1100000000E+08    0.6078296749E+00    0.5019056285E+00    0.5240798017E-04    0.7235508048E-01    0.1797614714E+00
    0.1300000000E+08    0.6078136181E+00    0.5017073775E+00    0.4797437541E-04    0.7237503794E-01    0.1799691852E+00
    0.1500000000E+08    0.6077994460E+00    0.5015370068E+00    0.4447594067E-04    0.7239208973E-01    0.1801471024E+00
    0.1700000000E+08    0.6077867760E+00    0.5013876071E+00    0.4162580713E-04    0.7240697563E-01    0.1803027165E+00
    0.1900000000E+08    0.6077753268E+00    0.5012545597E+00    0.3924666643E-04    0.7242018454E-01    0.1804410067E+00
    0.2100000000E+08    0.6077648873E+00    0.5011346235E+00    0.3722229696E-04    0.7243205649E-01    0.1805654507E+00
    0.2300000000E+08    0.6077552959E+00    0.5010254360E+00    0.3547294920E-04    0.7244283754E-01    0.1806785737E+00
    0.2500000000E+08    0.6077464263E+00    0.5009252215E+00    0.3394185306E-04    0.7245271149E-01    0.1807822671E+00
    0.2700000000E+08    0.6077381782E+00    0.5008326116E+00    0.3258735989E-04    0.7246181929E-01    0.1808779847E+00
