  Pressure (Pa) 22mC5-400 (mol/kg) 3mC6-400 (mol/kg) 33mC5-400 (mol/kg) 23mC5-400 (mol/kg) C7-400 (mol/kg)
    0.1000000000E+01    0.1593229273E-02    0.2644991672E-02    0.5843644716E-03    0.1865021303E-03    0.1716789314E-02
    0.3000000000E+01    0.4749381680E-02    0.7823957456E-02    0.1726181554E-02    0.5559617153E-03    0.5078643163E-02
    0.5000000000E+01    0.7865822573E-02    0.1286008468E-01    0.2833317785E-02    0.9207765327E-03    0.8348208627E-02
    0.7000000000E+01    0.1094336757E-01    0.1775929313E-01    0.3907148132E-02    0.1281041958E-02    0.1152930462E-01
    0.9000000000E+01    0.1398280969E-01    0.2252717873E-01    0.4948975598E-02    0.1636850725E-02    0.1462554125E-01
    0.1100000000E+02    0.1698492016E-01    0.2716903535E-01    0.5960035953E-02    0.1988293019E-02    0.1764033396E-01
    0.1300000000E+02    0.1995044913E-01    0.3168987496E-01    0.6941502092E-02    0.2335456560E-02    0.2057691645E-01
    0.1500000000E+02    0.2288012638E-01    0.3609444618E-01    0.7894488058E-02    0.2678426691E-02    0.2343835263E-01
    0.1700000000E+02    0.2577466205E-01    0.4038725135E-01    0.8820052748E-02    0.3017286450E-02    0.2622754766E-01
    0.1900000000E+02    0.2863474724E-01    0.4457256234E-01    0.9719203341E-02    0.3352116657E-02    0.2894725809E-01
    0.2100000000E+02    0.3146105467E-01    0.4865443508E-01    0.1059289848E-01    0.3682995978E-02    0.3160010127E-01
    0.2300000000E+02    0.3425423928E-01    0.5263672309E-01    0.1144205120E-01    0.4010001002E-02    0.3418856401E-01
    0.2500000000E+02    0.3701493882E-01    0.5652308995E-01    0.1226753165E-01    0.4333206308E-02    0.3671501069E-01
    0.2700000000E+02    0.3974377439E-01    0.6031702088E-01    0.1307016965E-01    0.4652684529E-02    0.3918169066E-01
    0.2900000000E+02    0.4244135101E-01    0.6402183349E-01    0.1385075700E-01    0.4968506414E-02    0.4159074518E-01
    0.3100000000E+02    0.4510825810E-01    0.6764068771E-01    0.1461004969E-01    0.5280740894E-02    0.4394421386E-01
    0.3300000000E+02    0.4774507001E-01    0.7117659512E-01    0.1534876994E-01    0.5589455132E-02    0.4624404061E-01
    0.3500000000E+02    0.5035234647E-01    0.7463242752E-01    0.1606760806E-01    0.5894714586E-02    0.4849207923E-01
    0.3700000000E+02    0.5293063309E-01    0.7801092497E-01    0.1676722426E-01    0.6196583059E-02    0.5069009853E-01
    0.3900000000E+02    0.5548046175E-01    0.8131470328E-01    0.1744825027E-01    0.6495122752E-02    0.5283978722E-01
    0.4100000000E+02    0.5800235108E-01    0.8454626099E-01    0.1811129089E-01    0.6790394316E-02    0.5494275834E-01
    0.4300000000E+02    0.6049680683E-01    0.8770798586E-01    0.1875692541E-01    0.7082456895E-02    0.5700055349E-01
    0.4500000000E+02    0.6296432231E-01    0.9080216096E-01    0.1938570900E-01    0.7371368177E-02    0.5901464677E-01
    0.4700000000E+02    0.6540537872E-01    0.9383097037E-01    0.1999817394E-01    0.7657184437E-02    0.6098644839E-01
    0.4900000000E+02    0.6782044555E-01    0.9679650448E-01    0.2059483079E-01    0.7939960580E-02    0.6291730815E-01
    0.1000000000E+02    0.1548848401E-01    0.2486354103E-01    0.5458276933E-02    0.1813112142E-02    0.1614291188E-01
    0.3000000000E+02    0.4377860200E-01    0.6584181380E-01    0.1423301927E-01    0.5125067842E-02    0.4277430408E-01
    0.5000000000E+02    0.6901837648E-01    0.9825617216E-01    0.2088738507E-01    0.8080225401E-02    0.6386779092E-01
    0.7000000000E+02    0.9171851232E-01    0.1245718240E+00    0.2601781240E-01    0.1073830846E-01    0.8101489941E-01
    0.9000000000E+02    0.1122791803E+00    0.1463871933E+00    0.3001959597E-01    0.1314611589E-01    0.9524802794E-01
    0.1100000000E+03    0.1310184279E+00    0.1647845611E+00    0.3316555441E-01    0.1534084355E-01    0.1072665166E+00
    0.1300000000E+03    0.1481922836E+00    0.1805231590E+00    0.3565016532E-01    0.1735243503E-01    0.1175611766E+00
    0.1500000000E+03    0.1640092479E+00    0.1941515603E+00    0.3761575968E-01    0.1920527599E-01    0.1264867926E+00
    0.1700000000E+03    0.1786409102E+00    0.2060761655E+00    0.3916880107E-01    0.2091943560E-01    0.1343063152E+00
    0.1900000000E+03    0.1922298461E+00    0.2166045759E+00    0.4039039767E-01    0.2251159001E-01    0.1412188557E+00
    0.2100000000E+03    0.2048955706E+00    0.2259739837E+00    0.4134331271E-01    0.2399571850E-01    0.1473780160E+00
    0.2300000000E+03    0.2167390840E+00    0.2343702922E+00    0.4207677024E-01    0.2538363498E-01    0.1529042355E+00
    0.2500000000E+03    0.2278463800E+00    0.2419413162E+00    0.4262982849E-01    0.2668539838E-01    0.1578933187E+00
    0.2700000000E+03    0.2382911854E+00    0.2488060992E+00    0.4303379719E-01    0.2790963287E-01    0.1624224553E+00
    0.2900000000E+03    0.2481371168E+00    0.2550616170E+00    0.4331400137E-01    0.2906378022E-01    0.1665545526E+00
    0.3100000000E+03    0.2574393967E+00    0.2607876878E+00    0.4349108906E-01    0.3015430039E-01    0.1703414100E+00
    0.3300000000E+03    0.2662462288E+00    0.2660506234E+00    0.4358201475E-01    0.3118683246E-01    0.1738260797E+00
    0.3500000000E+03    0.2745999101E+00    0.2709059842E+00    0.4360078845E-01    0.3216632459E-01    0.1770446489E+00
    0.3700000000E+03    0.2825377357E+00    0.2754006846E+00    0.4355905287E-01    0.3309713989E-01    0.1800276022E+00
    0.3900000000E+03    0.2900927405E+00    0.2795746210E+00    0.4346653266E-01    0.3398314321E-01    0.1828008743E+00
    0.4100000000E+03    0.2972943117E+00    0.2834619441E+00    0.4333138764E-01    0.3482777269E-01    0.1853866746E+00
    0.4300000000E+03    0.3041686967E+00    0.2870920632E+00    0.4316049264E-01    0.3563409924E-01    0.1878041369E+00
    0.4500000000E+03    0.3107394275E+00    0.2904904467E+00    0.4295966117E-01    0.3640487611E-01    0.1900698378E+00
    0.4700000000E+03    0.3170276769E+00    0.2936792648E+00    0.4273382549E-01    0.3714258058E-01    0.1921982131E+00
    0.4900000000E+03    0.3230525590E+00    0.2966779100E+00    0.4248718237E-01    0.3784944914E-01    0.1942018955E+00
    0.1000000000E+03    0.1218592185E+00    0.1559596987E+00    0.3168593164E-01    0.1426809571E-01    0.1014995679E+00
    0.3000000000E+03    0.2528530501E+00    0.2579864082E+00    0.4341429830E-01    0.2961662368E-01    0.1684882638E+00
    0.5000000000E+03    0.3259717111E+00    0.2981113246E+00    0.4235719816E-01    0.3819196044E-01    0.1951605002E+00
    0.7000000000E+03    0.3739797401E+00    0.3200118049E+00    0.3929858973E-01    0.4382721211E-01    0.2098838605E+00
    0.9000000000E+03    0.4082562060E+00    0.3339660381E+00    0.3615810697E-01    0.4785397293E-01    0.2193651915E+00
    0.1100000000E+04    0.4340336359E+00    0.3437044778E+00    0.3334324614E-01    0.5088473308E-01    0.2260492071E+00
    0.1300000000E+04    0.4541328172E+00    0.3509219375E+00    0.3090767326E-01    0.5324977400E-01    0.2310511253E+00
    0.1500000000E+04    0.4702347427E+00    0.3565045655E+00    0.2881628285E-01    0.5514597805E-01    0.2349563406E+00
    0.1700000000E+04    0.4834123031E+00    0.3609629037E+00    0.2701668943E-01    0.5669904173E-01    0.2381034034E+00
    0.1900000000E+04    0.4943854665E+00    0.3646128331E+00    0.2545924204E-01    0.5799333856E-01    0.2407025560E+00
    0.2100000000E+04    0.5036563548E+00    0.3676607893E+00    0.2410182915E-01    0.5908772939E-01    0.2428916920E+00
    0.2300000000E+04    0.5115861212E+00    0.3702476644E+00    0.2291007798E-01    0.6002456205E-01    0.2447652556E+00
    0.2500000000E+04    0.5184412080E+00    0.3724730685E+00    0.2185629125E-01    0.6083508758E-01    0.2463902490E+00
    0.2700000000E+04    0.5244224391E+00    0.3744095153E+00    0.2091819579E-01    0.6154286720E-01    0.2478156133E+00
    0.2900000000E+04    0.5296839885E+00    0.3761111107E+00    0.2007782562E-01    0.6216599402E-01    0.2490779872E+00
    0.3100000000E+04    0.5343461260E+00    0.3776190851E+00    0.1932060933E-01    0.6271858621E-01    0.2502053819E+00
    0.3300000000E+04    0.5385040050E+00    0.3789654351E+00    0.1863465037E-01    0.6321181663E-01    0.2512196053E+00
    0.3500000000E+04    0.5422338564E+00    0.3801753898E+00    0.1801016729E-01    0.6365463875E-01    0.2521379075E+00
    0.3700000000E+04    0.5455974410E+00    0.3812691230E+00    0.1743906020E-01    0.6405430847E-01    0.2529741252E+00
    0.3900000000E+04    0.5486453058E+00    0.3822629684E+00    0.1691457461E-01    0.6441676583E-01    0.2537394958E+00
    0.4100000000E+04    0.5514192010E+00    0.3831702982E+00    0.1643103984E-01    0.6474691852E-01    0.2544432472E+00
    0.4300000000E+04    0.5539539018E+00    0.3840021704E+00    0.1598366420E-01    0.6504885537E-01    0.2550930336E+00
    0.4500000000E+04    0.5562785959E+00    0.3847678123E+00    0.1556837382E-01    0.6532600924E-01    0.2556952608E+00
    0.4700000000E+04    0.5584179552E+00    0.3854749871E+00    0.1518168487E-01    0.6558128263E-01    0.2562553342E+00
    0.4900000000E+04    0.5603929704E+00    0.3861302756E+00    0.1482060166E-01    0.6581714565E-01    0.2567778493E+00
    0.1000000000E+04    0.4219949102E+00    0.3392292112E+00    0.3470301629E-01    0.4946898681E-01    0.2229694301E+00
    0.3000000000E+04    0.5320835308E+00    0.3768871177E+00    0.1968962221E-01    0.6245034930E-01    0.2496570708E+00
    0.5000000000E+04    0.5613245667E+00    0.3864402503E+00    0.1464883906E-01    0.6592847127E-01    0.2570262741E+00
    0.7000000000E+04    0.5745729956E+00    0.3909274752E+00    0.1208279609E-01    0.6751804869E-01    0.2607352612E+00
    0.9000000000E+04    0.5820728546E+00    0.3935577274E+00    0.1048786323E-01    0.6842578400E-01    0.2630477172E+00
    0.1100000000E+05    0.5868809414E+00    0.3952922109E+00    0.9380324631E-02    0.6901284024E-01    0.2646619017E+00
    0.1300000000E+05    0.5902190148E+00    0.3965234035E+00    0.8555711130E-02    0.6942399684E-01    0.2658705033E+00
    0.1500000000E+05    0.5926686296E+00    0.3974426314E+00    0.7911787892E-02    0.6972837186E-01    0.2668197135E+00
    0.1700000000E+05    0.5945411402E+00    0.3981546956E+00    0.7391296519E-02    0.6996307910E-01    0.2675914691E+00
    0.1900000000E+05    0.5960180143E+00    0.3987219765E+00    0.6959437640E-02    0.7014981360E-01    0.2682356187E+00
    0.2100000000E+05    0.5972120488E+00    0.3991839962E+00    0.6593716836E-02    0.7030210044E-01    0.2687844145E+00
    0.2300000000E+05    0.5981969902E+00    0.3995670451E+00    0.6278876660E-02    0.7042880852E-01    0.2692597497E+00
    0.2500000000E+05    0.5990230599E+00    0.3998893090E+00    0.6004160947E-02    0.7053599544E-01    0.2696770680E+00
    0.2700000000E+05    0.5997256271E+00    0.4001637789E+00    0.5761742992E-02    0.7062793996E-01    0.2700476136E+00
    0.2900000000E+05    0.6003303123E+00    0.4003999872E+00    0.5545775285E-02    0.7070775074E-01    0.2703797911E+00
    0.3100000000E+05    0.6008561247E+00    0.4006050899E+00    0.5351790182E-02    0.7077774106E-01    0.2706800253E+00
    0.3300000000E+05    0.6013174621E+00    0.4007845659E+00    0.5176308170E-02    0.7083966824E-01    0.2709533224E+00
    0.3500000000E+05    0.6017254273E+00    0.4009426816E+00    0.5016573852E-02    0.7089489143E-01    0.2712036490E+00
    0.3700000000E+05    0.6020887183E+00    0.4010828097E+00    0.4870373243E-02    0.7094447855E-01    0.2714341942E+00
    0.3900000000E+05    0.6024142450E+00    0.4012076516E+00    0.4735904377E-02    0.7098928051E-01    0.2716475551E+00
    0.4100000000E+05    0.6027075657E+00    0.4013193969E+00    0.4611683779E-02    0.7102998376E-01    0.2718458715E+00
    0.4300000000E+05    0.6029732015E+00    0.4014198391E+00    0.4496477614E-02    0.7106714833E-01    0.2720309244E+00
    0.4500000000E+05    0.6032148671E+00    0.4015104615E+00    0.4389250200E-02    0.7110123573E-01    0.2722042100E+00
    0.4700000000E+05    0.6034356429E+00    0.4015925011E+00    0.4289124905E-02    0.7113262976E-01    0.2723669959E+00
    0.4900000000E+05    0.6036381043E+00    0.4016669980E+00    0.4195354092E-02    0.7116165229E-01    0.2725203641E+00
    0.1000000000E+05    0.5847147364E+00    0.3945054551E+00    0.9889452953E-02    0.6874771798E-01    0.2639187699E+00
    0.3000000000E+05    0.6006020877E+00    0.4005060513E+00    0.5446271958E-02    0.7074385275E-01    0.2705335601E+00
    0.5000000000E+05    0.6037331589E+00    0.4017016985E+00    0.4150647382E-02    0.7117536091E-01    0.2725938124E+00
    0.7000000000E+05    0.6050554313E+00    0.4021562044E+00    0.3473131788E-02    0.7137324922E-01    0.2737382210E+00
    0.9000000000E+05    0.6057804934E+00    0.4023644289E+00    0.3040834053E-02    0.7149043189E-01    0.2745090661E+00
    0.1100000000E+06    0.6062362979E+00    0.4024642103E+00    0.2734769533E-02    0.7156964066E-01    0.2750820188E+00
    0.1300000000E+06    0.6065481694E+00    0.4025084792E+00    0.2503648982E-02    0.7162770184E-01    0.2755341361E+00
    0.1500000000E+06    0.6067742612E+00    0.4025215772E+00    0.2321268662E-02    0.7167265147E-01    0.2759055139E+00
    0.1700000000E+06    0.6069452020E+00    0.4025160852E+00    0.2172668725E-02    0.7170884201E-01    0.2762194701E+00
    0.1900000000E+06    0.6070786389E+00    0.4024990602E+00    0.2048608345E-02    0.7173885047E-01    0.2764906738E+00
    0.2100000000E+06    0.6071854470E+00    0.4024747059E+00    0.1943032379E-02    0.7176430770E-01    0.2767289104E+00
    0.2300000000E+06    0.6072726878E+00    0.4024456439E+00    0.1851786590E-02    0.7178630063E-01    0.2769410119E+00
    0.2500000000E+06    0.6073451428E+00    0.4024135676E+00    0.1771913975E-02    0.7180558427E-01    0.2771319239E+00
    0.2700000000E+06    0.6074061633E+00    0.4023796015E+00    0.1701245185E-02    0.7182270115E-01    0.2773053350E+00
    0.2900000000E+06    0.6074581661E+00    0.4023445088E+00    0.1638148055E-02    0.7183805229E-01    0.2774640649E+00
    0.3100000000E+06    0.6075029372E+00    0.4023088158E+00    0.1581368020E-02    0.7185194126E-01    0.2776103146E+00
    0.3300000000E+06    0.6075418247E+00    0.4022728896E+00    0.1529922858E-02    0.7186460266E-01    0.2777458333E+00
    0.3500000000E+06    0.6075758642E+00    0.4022369886E+00    0.1483031195E-02    0.7187622100E-01    0.2778720327E+00
    0.3700000000E+06    0.6076058645E+00    0.4022012949E+00    0.1440062663E-02    0.7188694369E-01    0.2779900681E+00
    0.3900000000E+06    0.6076324661E+00    0.4021659370E+00    0.1400502384E-02    0.7189689013E-01    0.2781008958E+00
    0.4100000000E+06    0.6076561825E+00    0.4021310044E+00    0.1363925147E-02    0.7190615819E-01    0.2782053163E+00
    0.4300000000E+06    0.6076774300E+00    0.4020965589E+00    0.1329976308E-02    0.7191482900E-01    0.2783040059E+00
    0.4500000000E+06    0.6076965498E+00    0.4020626417E+00    0.1298357427E-02    0.7192297046E-01    0.2783975407E+00
    0.4700000000E+06    0.6077138239E+00    0.4020292791E+00    0.1268815331E-02    0.7193063992E-01    0.2784864158E+00
    0.4900000000E+06    0.6077294874E+00    0.4019964863E+00    0.1241133659E-02    0.7193788617E-01    0.2785710590E+00
    0.1000000000E+06    0.6060318545E+00    0.4024235628E+00    0.2876082646E-02    0.7153342416E-01    0.2748142094E+00
    0.3000000000E+06    0.6074813628E+00    0.4023267113E+00    0.1609035206E-02    0.7184516352E-01    0.2775386314E+00
    0.5000000000E+06    0.6077367782E+00    0.4019803060E+00    0.1227931282E-02    0.7194136392E-01    0.2786119119E+00
    0.7000000000E+06    0.6078326737E+00    0.4016859165E+00    0.1027543030E-02    0.7199631892E-01    0.2792762980E+00
    0.9000000000E+06    0.6078785482E+00    0.4014390882E+00    0.8994640150E-03    0.7203437630E-01    0.2797552179E+00
    0.1100000000E+07    0.6079030616E+00    0.4012280249E+00    0.8087312470E-03    0.7206336027E-01    0.2801286533E+00
    0.1300000000E+07    0.6079168014E+00    0.4010440108E+00    0.7402044842E-03    0.7208671733E-01    0.2804341993E+00
    0.1500000000E+07    0.6079245107E+00    0.4008809835E+00    0.6861303632E-03    0.7210625618E-01    0.2806924738E+00
    0.1700000000E+07    0.6079285972E+00    0.4007346579E+00    0.6420766151E-03    0.7212303938E-01    0.2809159827E+00
    0.1900000000E+07    0.6079303956E+00    0.4006019205E+00    0.6053032781E-03    0.7213774255E-01    0.2811128719E+00
    0.2100000000E+07    0.6079306954E+00    0.4004804474E+00    0.5740141438E-03    0.7215082119E-01    0.2812887385E+00
    0.2300000000E+07    0.6079299880E+00    0.4003684612E+00    0.5469765639E-03    0.7216259662E-01    0.2814475906E+00
    0.2500000000E+07    0.6079285913E+00    0.4002645739E+00    0.5233130071E-03    0.7217330379E-01    0.2815923955E+00
    0.2700000000E+07    0.6079267178E+00    0.4001676815E+00    0.5023796479E-03    0.7218311959E-01    0.2817254101E+00
    0.2900000000E+07    0.6079245132E+00    0.4000768913E+00    0.4836920818E-03    0.7219218049E-01    0.2818483906E+00
    0.3100000000E+07    0.6079220794E+00    0.3999914719E+00    0.4668779795E-03    0.7220059393E-01    0.2819627297E+00
    0.3300000000E+07    0.6079194891E+00    0.3999108161E+00    0.4516458527E-03    0.7220844601E-01    0.2820695505E+00
    0.3500000000E+07    0.6079167948E+00    0.3998344147E+00    0.4377638317E-03    0.7221580675E-01    0.2821697713E+00
    0.3700000000E+07    0.6079140349E+00    0.3997618360E+00    0.4250448726E-03    0.7222273389E-01    0.2822641527E+00
    0.3900000000E+07    0.6079112378E+00    0.3996927114E+00    0.4133362123E-03    0.7222927557E-01    0.2823533316E+00
    0.4100000000E+07    0.6079084244E+00    0.3996267232E+00    0.4025117036E-03    0.7223547235E-01    0.2824378466E+00
    0.4300000000E+07    0.6079056105E+00    0.3995635958E+00    0.3924661432E-03    0.7224135870E-01    0.2825181569E+00
    0.4500000000E+07    0.6079028076E+00    0.3995030887E+00    0.3831110099E-03    0.7224696422E-01    0.2825946575E+00
    0.4700000000E+07    0.6079000245E+00    0.3994449904E+00    0.3743712154E-03    0.7225231444E-01    0.2826676906E+00
    0.4900000000E+07    0.6078972676E+00    0.3993891142E+00    0.3661825962E-03    0.7225743156E-01    0.2827375542E+00
    0.1000000000E+07    0.6078926057E+00    0.4013297046E+00    0.8506268782E-03    0.7204973155E-01    0.2799522072E+00
    0.3000000000E+07    0.6079233198E+00    0.4000335508E+00    0.4750706735E-03    0.7219646233E-01    0.2819065647E+00
    0.5000000000E+07    0.6078959006E+00    0.3993619570E+00    0.3622774225E-03    0.7225990889E-01    0.2827713805E+00
    0.7000000000E+07    0.6078705538E+00    0.3989035328E+00    0.3030264363E-03    0.7230088018E-01    0.2833309084E+00
    0.9000000000E+07    0.6078490114E+00    0.3985544048E+00    0.2651793910E-03    0.7233119329E-01    0.2837446303E+00
    0.1100000000E+08    0.6078305755E+00    0.3982720740E+00    0.2383798908E-03    0.7235526360E-01    0.2840727815E+00
    0.1300000000E+08    0.6078145455E+00    0.3980348932E+00    0.2181460740E-03    0.7237522871E-01    0.2843446440E+00
    0.1500000000E+08    0.6078003965E+00    0.3978303097E+00    0.2021838836E-03    0.7239228729E-01    0.2845766661E+00
    0.1700000000E+08    0.6077877471E+00    0.3976503850E+00    0.1891824163E-03    0.7240717931E-01    0.2847790083E+00
    0.1900000000E+08    0.6077763164E+00    0.3974897755E+00    0.1783315512E-03    0.7242039382E-01    0.2849583862E+00
    0.2100000000E+08    0.6077658938E+00    0.3973447100E+00    0.1691003495E-03    0.7243227094E-01    0.2851194694E+00
    0.2300000000E+08    0.6077563179E+00    0.3972124270E+00    0.1611245387E-03    0.7244305680E-01    0.2852656358E+00
    0.2500000000E+08    0.6077474627E+00    0.3970908430E+00    0.1541448426E-03    0.7245293526E-01    0.2853994077E+00
    0.2700000000E+08    0.6077392281E+00    0.3969783470E+00    0.1479710699E-03    0.7246204732E-01    0.2855227180E+00
