  Pressure (Pa) 22mC5-400 (mol/kg) 3mC6-400 (mol/kg) 33mC5-400 (mol/kg) 23mC5-400 (mol/kg) C7-400 (mol/kg)
    0.1000000000E+01    0.1593326253E-02    0.5240868817E-03    0.5155432723E-03    0.1865134770E-03    0.1020556533E-01
    0.3000000000E+01    0.4750240277E-02    0.1522585794E-02    0.1501077958E-02    0.5560621725E-03    0.2965397047E-01
    0.5000000000E+01    0.7868168939E-02    0.2459940891E-02    0.2430422613E-02    0.9210510627E-03    0.4791722231E-01
    0.7000000000E+01    0.1094789240E-01    0.3341621375E-02    0.3308456542E-02    0.1281571376E-02    0.6510116191E-01
    0.9000000000E+01    0.1399016979E-01    0.4172462426E-02    0.4139488249E-02    0.1637711883E-02    0.8129937035E-01
    0.1100000000E+02    0.1699573991E-01    0.4956754509E-02    0.4927337026E-02    0.1989558975E-02    0.9659489469E-01
    0.1300000000E+02    0.1996532191E-01    0.5698317991E-02    0.5675400960E-02    0.2337196748E-02    0.1110616903E+00
    0.1500000000E+02    0.2289961594E-01    0.6400565828E-02    0.6386713934E-02    0.2680707074E-02    0.1247658328E+00
    0.1700000000E+02    0.2579930374E-01    0.7066556473E-02    0.7063993628E-02    0.3020169677E-02    0.1377665404E+00
    0.1900000000E+02    0.2866504928E-01    0.7699038759E-02    0.7709682135E-02    0.3355662198E-02    0.1501170421E+00
    0.2100000000E+02    0.3149749932E-01    0.8300490120E-02    0.8325980478E-02    0.3687260268E-02    0.1618653163E+00
    0.2300000000E+02    0.3429728396E-01    0.8873149292E-02    0.8914878073E-02    0.4015037571E-02    0.1730547233E+00
    0.2500000000E+02    0.3706501716E-01    0.9419044400E-02    0.9478177968E-02    0.4339065901E-02    0.1837245482E+00
    0.2700000000E+02    0.3980129727E-01    0.9940017161E-02    0.1001751856E-01    0.4659415231E-02    0.1939104692E+00
    0.2900000000E+02    0.4250670753E-01    0.1043774384E-01    0.1053439233E-01    0.4976153763E-02    0.2036449624E+00
    0.3100000000E+02    0.4518181649E-01    0.1091375340E-01    0.1103016208E-01    0.5289347986E-02    0.2129576535E+00
    0.3300000000E+02    0.4782717856E-01    0.1136944340E-01    0.1150607506E-01    0.5599062729E-02    0.2218756245E+00
    0.3500000000E+02    0.5044333436E-01    0.1180609377E-01    0.1196327523E-01    0.5905361216E-02    0.2304236806E+00
    0.3700000000E+02    0.5303081119E-01    0.1222487895E-01    0.1240281404E-01    0.6208305108E-02    0.2386245852E+00
    0.3900000000E+02    0.5559012342E-01    0.1262687857E-01    0.1282565989E-01    0.6507954557E-02    0.2464992660E+00
    0.4100000000E+02    0.5812177291E-01    0.1301308681E-01    0.1323270637E-01    0.6804368252E-02    0.2540669963E+00
    0.4300000000E+02    0.6062624935E-01    0.1338442070E-01    0.1362477960E-01    0.7097603457E-02    0.2613455558E+00
    0.4500000000E+02    0.6310403065E-01    0.1374172748E-01    0.1400264473E-01    0.7387716062E-02    0.2683513725E+00
    0.4700000000E+02    0.6555558329E-01    0.1408579109E-01    0.1436701161E-01    0.7674760617E-02    0.2750996491E+00
    0.4900000000E+02    0.6798136267E-01    0.1441733803E-01    0.1471853992E-01    0.7958790378E-02    0.2816044750E+00
    0.1000000000E+02    0.1549749786E-01    0.4570178085E-02    0.4538588968E-02    0.1814166797E-02    0.8905514795E-01
    0.3000000000E+02    0.4384801469E-01    0.1067837300E-01    0.1078483470E-01    0.5133189823E-02    0.2083522843E+00
    0.5000000000E+02    0.6918472673E-01    0.1457863035E-01    0.1488968317E-01    0.8099691008E-02    0.2847697176E+00
    0.7000000000E+02    0.9200188979E-01    0.1728772776E-01    0.1776731654E-01    0.1077146965E-01    0.3380167934E+00
    0.9000000000E+02    0.1126890069E+00    0.1928059756E-01    0.1985767717E-01    0.1319407644E-01    0.3773095426E+00
    0.1100000000E+03    0.1315572166E+00    0.2080897714E-01    0.2140476132E-01    0.1540389878E-01    0.4075381231E+00
    0.1300000000E+03    0.1488581142E+00    0.2201881442E-01    0.2255803357E-01    0.1743036136E-01    0.4315406815E+00
    0.1500000000E+03    0.1647974121E+00    0.2300059788E-01    0.2341586486E-01    0.1929752346E-01    0.4510787541E+00
    0.1700000000E+03    0.1795450131E+00    0.2381343830E-01    0.2404652015E-01    0.2102525672E-01    0.4673042718E+00
    0.1900000000E+03    0.1932425454E+00    0.2449759890E-01    0.2449929728E-01    0.2263012628E-01    0.4810027035E+00
    0.2100000000E+03    0.2060090729E+00    0.2508146163E-01    0.2481090001E-01    0.2412605845E-01    0.4927283222E+00
    0.2300000000E+03    0.2179454754E+00    0.2558561424E-01    0.2500931366E-01    0.2552485296E-01    0.5028836145E+00
    0.2500000000E+03    0.2291378448E+00    0.2602535765E-01    0.2511628294E-01    0.2683658009E-01    0.5117680270E+00
    0.2700000000E+03    0.2396601468E+00    0.2641230304E-01    0.2514896287E-01    0.2806989187E-01    0.5196090368E+00
    0.2900000000E+03    0.2495763246E+00    0.2675542249E-01    0.2512105725E-01    0.2923226820E-01    0.5265826038E+00
    0.3100000000E+03    0.2589419783E+00    0.2706175960E-01    0.2504362644E-01    0.3033021316E-01    0.5328270125E+00
    0.3300000000E+03    0.2678057149E+00    0.2733692206E-01    0.2492567469E-01    0.3136941295E-01    0.5384524724E+00
    0.3500000000E+03    0.2762102433E+00    0.2758543034E-01    0.2477458585E-01    0.3235486387E-01    0.5435479191E+00
    0.3700000000E+03    0.2841932671E+00    0.2781096949E-01    0.2459645245E-01    0.3329097682E-01    0.5481859279E+00
    0.3900000000E+03    0.2917882194E+00    0.2801657383E-01    0.2439632791E-01    0.3418166319E-01    0.5524263212E+00
    0.4100000000E+03    0.2990248699E+00    0.2820476481E-01    0.2417842244E-01    0.3503040586E-01    0.5563188619E+00
    0.4300000000E+03    0.3059298299E+00    0.2837765513E-01    0.2394625689E-01    0.3584031827E-01    0.5599052890E+00
    0.4500000000E+03    0.3125269751E+00    0.2853702844E-01    0.2370278494E-01    0.3661419391E-01    0.5632208779E+00
    0.4700000000E+03    0.3188378013E+00    0.2868440116E-01    0.2345049080E-01    0.3735454783E-01    0.5662956493E+00
    0.4900000000E+03    0.3248817247E+00    0.2882107074E-01    0.2319146815E-01    0.3806365187E-01    0.5691553161E+00
    0.1000000000E+03    0.1223335357E+00    0.2009202147E-01    0.2068823864E-01    0.1432360457E-01    0.3933463739E+00
    0.3000000000E+03    0.2543247790E+00    0.2691280935E-01    0.2508792726E-01    0.2978892168E-01    0.5297884976E+00
    0.5000000000E+03    0.3278091606E+00    0.2888574700E-01    0.2305999714E-01    0.3840713606E-01    0.5705115300E+00
    0.7000000000E+03    0.3758555516E+00    0.2982101777E-01    0.2038226906E-01    0.4404693340E-01    0.5903909324E+00
    0.9000000000E+03    0.4100332023E+00    0.3036372183E-01    0.1795748955E-01    0.4806216355E-01    0.6022609979E+00
    0.1100000000E+04    0.4356614731E+00    0.3071605856E-01    0.1591477142E-01    0.5107548435E-01    0.6101888153E+00
    0.1300000000E+04    0.4555997858E+00    0.3096183429E-01    0.1422158572E-01    0.5342170395E-01    0.6158776809E+00
    0.1500000000E+04    0.4715459148E+00    0.3114205395E-01    0.1281725049E-01    0.5529967268E-01    0.6201693967E+00
    0.1700000000E+04    0.4845794880E+00    0.3127914380E-01    0.1164487718E-01    0.5683587829E-01    0.6235288934E+00
    0.1900000000E+04    0.4954225624E+00    0.3138639562E-01    0.1065776770E-01    0.5811494067E-01    0.6262343957E+00
    0.2100000000E+04    0.5045772304E+00    0.3147218211E-01    0.9819137499E-02    0.5919571841E-01    0.6284628339E+00
    0.2300000000E+04    0.5124037045E+00    0.3154203588E-01    0.9100352609E-02    0.6012045010E-01    0.6303322260E+00
    0.2500000000E+04    0.5191671561E+00    0.3159975680E-01    0.8479125750E-02    0.6092023860E-01    0.6319243869E+00
    0.2700000000E+04    0.5250670827E+00    0.3164803908E-01    0.7938021070E-02    0.6161849023E-01    0.6332978661E+00
    0.2900000000E+04    0.5302564006E+00    0.3168884478E-01    0.7463296755E-02    0.6223315113E-01    0.6344956962E+00
    0.3100000000E+04    0.5348542410E+00    0.3172363560E-01    0.7044031608E-02    0.6277820636E-01    0.6355502327E+00
    0.3300000000E+04    0.5389547509E+00    0.3175352205E-01    0.6671471101E-02    0.6326471110E-01    0.6364862838E+00
    0.3500000000E+04    0.5426332839E+00    0.3177936239E-01    0.6338537585E-02    0.6370151615E-01    0.6373231983E+00
    0.3700000000E+04    0.5459508412E+00    0.3180182988E-01    0.6039461836E-02    0.6409578855E-01    0.6380762953E+00
    0.3900000000E+04    0.5489573143E+00    0.3182145981E-01    0.5769504082E-02    0.6445339166E-01    0.6387578654E+00
    0.4100000000E+04    0.5516938891E+00    0.3183868277E-01    0.5524741175E-02    0.6477916707E-01    0.6393778874E+00
    0.4300000000E+04    0.5541948540E+00    0.3185384887E-01    0.5301902961E-02    0.6507714665E-01    0.6399445493E+00
    0.4500000000E+04    0.5564889770E+00    0.3186724552E-01    0.5098245441E-02    0.6535071410E-01    0.6404646353E+00
    0.4700000000E+04    0.5586005669E+00    0.3187911071E-01    0.4911451682E-02    0.6560272941E-01    0.6409438150E+00
    0.4900000000E+04    0.5605502998E+00    0.3188964310E-01    0.4739553811E-02    0.6583562586E-01    0.6413868650E+00
    0.1000000000E+04    0.4237004847E+00    0.3055697488E-01    0.1688902050E-01    0.4966882907E-01    0.6065816578E+00
    0.3000000000E+04    0.5326228685E+00    0.3170691576E-01    0.7247323301E-02    0.6251362954E-01    0.6350391772E+00
    0.5000000000E+04    0.5614701008E+00    0.3189446274E-01    0.4658655825E-02    0.6594556735E-01    0.6415961323E+00
    0.7000000000E+04    0.5745630700E+00    0.3195018319E-01    0.3520844775E-02    0.6751689392E-01    0.6446080332E+00
    0.9000000000E+04    0.5819898181E+00    0.3196642510E-01    0.2885162049E-02    0.6841603757E-01    0.6463680274E+00
    0.1100000000E+05    0.5867596968E+00    0.3196706306E-01    0.2477988904E-02    0.6899859889E-01    0.6475352055E+00
    0.1300000000E+05    0.5900765461E+00    0.3196064469E-01    0.2193372182E-02    0.6940725532E-01    0.6483725059E+00
    0.1500000000E+05    0.5925140279E+00    0.3195083217E-01    0.1982077891E-02    0.6971019860E-01    0.6490062522E+00
    0.1700000000E+05    0.5943796154E+00    0.3193938132E-01    0.1818200873E-02    0.6994408677E-01    0.6495049867E+00
    0.1900000000E+05    0.5958527049E+00    0.3192719865E-01    0.1686823370E-02    0.7013037155E-01    0.6499092583E+00
    0.2100000000E+05    0.5970449162E+00    0.3191477537E-01    0.1578745438E-02    0.7028243970E-01    0.6502446604E+00
    0.2300000000E+05    0.5980292932E+00    0.3190238525E-01    0.1487979778E-02    0.7040907748E-01    0.6505281830E+00
    0.2500000000E+05    0.5988556212E+00    0.3189018226E-01    0.1410457331E-02    0.7051629117E-01    0.6507715705E+00
    0.2700000000E+05    0.5995589895E+00    0.3187825179E-01    0.1343312426E-02    0.7060832663E-01    0.6509832149E+00
    0.2900000000E+05    0.6001648349E+00    0.3186663883E-01    0.1284465868E-02    0.7068827085E-01    0.6511692814E+00
    0.3100000000E+05    0.6006920430E+00    0.3185536420E-01    0.1232370510E-02    0.7075842256E-01    0.6513344071E+00
    0.3300000000E+05    0.6011549272E+00    0.3184443403E-01    0.1185849874E-02    0.7082052913E-01    0.6514821504E+00
    0.3500000000E+05    0.6015645320E+00    0.3183384559E-01    0.1143992367E-02    0.7087594282E-01    0.6516152910E+00
    0.3700000000E+05    0.6019295147E+00    0.3182359083E-01    0.1106079928E-02    0.7092572673E-01    0.6517360330E+00
    0.3900000000E+05    0.6022567563E+00    0.3181365865E-01    0.1071538674E-02    0.7097072837E-01    0.6518461490E+00
    0.4100000000E+05    0.6025517949E+00    0.3180403630E-01    0.1039903998E-02    0.7101163180E-01    0.6519470810E+00
    0.4300000000E+05    0.6028191374E+00    0.3179471029E-01    0.1010795402E-02    0.7104899537E-01    0.6520400154E+00
    0.4500000000E+05    0.6030624885E+00    0.3178566695E-01    0.9838980287E-03    0.7108327938E-01    0.6521259378E+00
    0.4700000000E+05    0.6032849217E+00    0.3177689280E-01    0.9589488852E-03    0.7111486683E-01    0.6522056741E+00
    0.4900000000E+05    0.6034890079E+00    0.3176837475E-01    0.9357264254E-03    0.7114407901E-01    0.6522799219E+00
    0.1000000000E+05    0.5846097074E+00    0.3196798571E-01    0.2661626181E-02    0.6873538491E-01    0.6470045291E+00
    0.3000000000E+05    0.6004372847E+00    0.3186095858E-01    0.1257655060E-02    0.7072445077E-01    0.6512542183E+00
    0.5000000000E+05    0.6035848615E+00    0.3176420782E-01    0.9247027981E-03    0.7115788092E-01    0.6523151768E+00
    0.7000000000E+05    0.6049211226E+00    0.3169160437E-01    0.7612354370E-03    0.7135740409E-01    0.6528387133E+00
    0.9000000000E+05    0.6056568824E+00    0.3163406714E-01    0.6601627794E-03    0.7147583835E-01    0.6531635436E+00
    0.1100000000E+06    0.6061210607E+00    0.3158651647E-01    0.5899537340E-03    0.7155602731E-01    0.6533903441E+00
    0.1300000000E+06    0.6064396860E+00    0.3154602463E-01    0.5376134645E-03    0.7161487929E-01    0.6535605615E+00
    0.1500000000E+06    0.6066713672E+00    0.3151077542E-01    0.4966938524E-03    0.7166048352E-01    0.6536946905E+00
    0.1700000000E+06    0.6068470320E+00    0.3147957010E-01    0.4635888431E-03    0.7169722737E-01    0.6538041504E+00
    0.1900000000E+06    0.6069845308E+00    0.3145157760E-01    0.4361050635E-03    0.7172771161E-01    0.6538958645E+00
    0.2100000000E+06    0.6070948812E+00    0.3142619865E-01    0.4128224421E-03    0.7175358378E-01    0.6539743040E+00
    0.2300000000E+06    0.6071852478E+00    0.3140298711E-01    0.3927760529E-03    0.7177594288E-01    0.6540425010E+00
    0.2500000000E+06    0.6072604889E+00    0.3138160199E-01    0.3752844678E-03    0.7179555288E-01    0.6541025942E+00
    0.2700000000E+06    0.6073240140E+00    0.3136177688E-01    0.3598510697E-03    0.7181296314E-01    0.6541561413E+00
    0.2900000000E+06    0.6073782849E+00    0.3134329965E-01    0.3461043138E-03    0.7182857995E-01    0.6542043072E+00
    0.3100000000E+06    0.6074251234E+00    0.3132599870E-01    0.3337599943E-03    0.7184271107E-01    0.6542479834E+00
    0.3300000000E+06    0.6074659059E+00    0.3130973322E-01    0.3225965413E-03    0.7185559443E-01    0.6542878652E+00
    0.3500000000E+06    0.6075016913E+00    0.3129438627E-01    0.3124383470E-03    0.7186741724E-01    0.6543245044E+00
    0.3700000000E+06    0.6075333072E+00    0.3127985966E-01    0.3031442092E-03    0.7187832913E-01    0.6543583449E+00
    0.3900000000E+06    0.6075614099E+00    0.3126607014E-01    0.2945991359E-03    0.7188845135E-01    0.6543897491E+00
    0.4100000000E+06    0.6075865260E+00    0.3125294654E-01    0.2867084147E-03    0.7189788332E-01    0.6544190157E+00
    0.4300000000E+06    0.6076090831E+00    0.3124042751E-01    0.2793932411E-03    0.7190670747E-01    0.6544463939E+00
    0.4500000000E+06    0.6076294318E+00    0.3122845981E-01    0.2725874461E-03    0.7191499281E-01    0.6544720933E+00
    0.4700000000E+06    0.6076478622E+00    0.3121699695E-01    0.2662350096E-03    0.7192279763E-01    0.6544962917E+00
    0.4900000000E+06    0.6076646164E+00    0.3120599806E-01    0.2602881459E-03    0.7193017158E-01    0.6545191411E+00
    0.1000000000E+06    0.6059126699E+00    0.3160926094E-01    0.6222383726E-03    0.7151934870E-01    0.6532858839E+00
    0.3000000000E+06    0.6074025385E+00    0.3133451157E-01    0.3397719397E-03    0.7183581498E-01    0.6542266592E+00
    0.5000000000E+06    0.6076724299E+00    0.3120066117E-01    0.2574537488E-03    0.7193371051E-01    0.6545301016E+00
    0.7000000000E+06    0.6077764712E+00    0.3111138037E-01    0.2145794510E-03    0.7198961861E-01    0.6547024644E+00
    0.9000000000E+06    0.6078277809E+00    0.3104429841E-01    0.1873188253E-03    0.7202831138E-01    0.6548203742E+00
    0.1100000000E+07    0.6078562689E+00    0.3099055168E-01    0.1680743997E-03    0.7205775954E-01    0.6549090293E+00
    0.1300000000E+07    0.6078730872E+00    0.3094571171E-01    0.1535774129E-03    0.7208147578E-01    0.6549796194E+00
    0.1500000000E+07    0.6078832771E+00    0.3090724491E-01    0.1421611872E-03    0.7210130378E-01    0.6550380268E+00
    0.1700000000E+07    0.6078894210E+00    0.3087356523E-01    0.1328760095E-03    0.7211832659E-01    0.6550877020E+00
    0.1900000000E+07    0.6078929640E+00    0.3084361361E-01    0.1251362567E-03    0.7213323273E-01    0.6551308323E+00
    0.2100000000E+07    0.6078947690E+00    0.3081664761E-01    0.1185588042E-03    0.7214648634E-01    0.6551688862E+00
    0.2300000000E+07    0.6078953788E+00    0.3079212659E-01    0.1128811845E-03    0.7215841474E-01    0.6552028952E+00
    0.2500000000E+07    0.6078951482E+00    0.3076964460E-01    0.1079168206E-03    0.7216925720E-01    0.6552336096E+00
    0.2700000000E+07    0.6078943171E+00    0.3074888903E-01    0.1035290013E-03    0.7217919383E-01    0.6552615918E+00
    0.2900000000E+07    0.6078930521E+00    0.3072961408E-01    0.9961498426E-04    0.7218836355E-01    0.6552872737E+00
    0.3100000000E+07    0.6078914713E+00    0.3071162292E-01    0.9609587905E-04    0.7219687570E-01    0.6553109934E+00
    0.3300000000E+07    0.6078896604E+00    0.3069475554E-01    0.9290998091E-04    0.7220481788E-01    0.6553330208E+00
    0.3500000000E+07    0.6078876820E+00    0.3067888008E-01    0.9000824696E-04    0.7221226132E-01    0.6553535744E+00
    0.3700000000E+07    0.6078855829E+00    0.3066388658E-01    0.8735114592E-04    0.7221926472E-01    0.6553728336E+00
    0.3900000000E+07    0.6078833984E+00    0.3064968242E-01    0.8490641472E-04    0.7222587705E-01    0.6553909471E+00
    0.4100000000E+07    0.6078811552E+00    0.3063618882E-01    0.8264742904E-04    0.7223213951E-01    0.6554080400E+00
    0.4300000000E+07    0.6078788737E+00    0.3062333825E-01    0.8055199863E-04    0.7223808717E-01    0.6554242182E+00
    0.4500000000E+07    0.6078765697E+00    0.3061107234E-01    0.7860146271E-04    0.7224375007E-01    0.6554395718E+00
    0.4700000000E+07    0.6078742554E+00    0.3059934033E-01    0.7678000082E-04    0.7224915416E-01    0.6554541788E+00
    0.4900000000E+07    0.6078719403E+00    0.3058809781E-01    0.7507410118E-04    0.7225432201E-01    0.6554681066E+00
    0.1000000000E+07    0.6078439641E+00    0.3101609671E-01    0.1769534817E-03    0.7204391494E-01    0.6548674798E+00
    0.3000000000E+07    0.6078922952E+00    0.3072046878E-01    0.9781026583E-04    0.7219269591E-01    0.6552993605E+00
    0.5000000000E+07    0.6078707847E+00    0.3058264770E-01    0.7426079202E-04    0.7225682361E-01    0.6554748344E+00
    0.7000000000E+07    0.6078487199E+00    0.3049190632E-01    0.6194080113E-04    0.7229817011E-01    0.6555847346E+00
    0.9000000000E+07    0.6078293564E+00    0.3042418268E-01    0.5409245638E-04    0.7232873040E-01    0.6556644756E+00
    0.1100000000E+08    0.6078125097E+00    0.3037014940E-01    0.4854618931E-04    0.7235297969E-01    0.6557269178E+00
    0.1300000000E+08    0.6077977090E+00    0.3032520198E-01    0.4436542247E-04    0.7237308228E-01    0.6557781612E+00
    0.1500000000E+08    0.6077845500E+00    0.3028672667E-01    0.4107166590E-04    0.7239025081E-01    0.6558215730E+00
    0.1700000000E+08    0.6077727212E+00    0.3025309639E-01    0.3839190817E-04    0.7240523341E-01    0.6558592058E+00
    0.1900000000E+08    0.6077619863E+00    0.3022322928E-01    0.3615764644E-04    0.7241852422E-01    0.6558924016E+00
    0.2100000000E+08    0.6077521641E+00    0.3019636947E-01    0.3425856796E-04    0.7243046675E-01    0.6559220855E+00
    0.2300000000E+08    0.6077431136E+00    0.3017196802E-01    0.3261906100E-04    0.7244130951E-01    0.6559489220E+00
    0.2500000000E+08    0.6077347235E+00    0.3014961369E-01    0.3118535412E-04    0.7245123805E-01    0.6559734038E+00
    0.2700000000E+08    0.6077269048E+00    0.3012899041E-01    0.2991803398E-04    0.7246039462E-01    0.6559959066E+00
