  Pressure (Pa) 22mC5-400 (mol/kg) 3mC6-400 (mol/kg) 33mC5-400 (mol/kg) 23mC5-400 (mol/kg) C7-400 (mol/kg)
    0.1000000000E+01    0.1593531267E-02    0.2097039411E-02    0.3867854917E-03    0.1865374641E-03    0.8507432073E-02
    0.3000000000E+01    0.4752056473E-02    0.6096175041E-02    0.1126893061E-02    0.5562746727E-03    0.2473519761E-01
    0.5000000000E+01    0.7873135279E-02    0.9854965759E-02    0.1825658494E-02    0.9216321416E-03    0.3999242843E-01
    0.7000000000E+01    0.1095747553E-01    0.1339449991E-01    0.2486605515E-02    0.1282692641E-02    0.5436414530E-01
    0.9000000000E+01    0.1400576709E-01    0.1673346714E-01    0.3112852961E-02    0.1639536839E-02    0.6792570598E-01
    0.1100000000E+02    0.1701868241E-01    0.1988849010E-01    0.3707171618E-02    0.1992243365E-02    0.8074414061E-01
    0.1300000000E+02    0.1999687706E-01    0.2287440246E-01    0.4272031771E-02    0.2340888880E-02    0.9287927163E-01
    0.1500000000E+02    0.2294099025E-01    0.2570448341E-01    0.4809643186E-02    0.2685548128E-02    0.1043846576E+00
    0.1700000000E+02    0.2585164539E-01    0.2839065604E-01    0.5321988884E-02    0.3026294006E-02    0.1153083928E+00
    0.1900000000E+02    0.2872945047E-01    0.3094365623E-01    0.5810853814E-02    0.3363197611E-02    0.1256937866E+00
    0.2100000000E+02    0.3157499865E-01    0.3337317683E-01    0.6277849274E-02    0.3696328302E-02    0.1355799449E+00
    0.2300000000E+02    0.3438886861E-01    0.3568799137E-01    0.6724433823E-02    0.4025753749E-02    0.1450022683E+00
    0.2500000000E+02    0.3717162505E-01    0.3789606056E-01    0.7151931235E-02    0.4351539985E-02    0.1539928808E+00
    0.2700000000E+02    0.3992381910E-01    0.4000462431E-01    0.7561545984E-02    0.4673751454E-02    0.1625810007E+00
    0.2900000000E+02    0.4264598867E-01    0.4202028153E-01    0.7954376638E-02    0.4992451062E-02    0.1707932621E+00
    0.3100000000E+02    0.4533865894E-01    0.4394905956E-01    0.8331427487E-02    0.5307700219E-02    0.1786539948E+00
    0.3300000000E+02    0.4800234263E-01    0.4579647477E-01    0.8693618673E-02    0.5619558881E-02    0.1861854681E+00
    0.3500000000E+02    0.5063754046E-01    0.4756758562E-01    0.9041795033E-02    0.5928085601E-02    0.1934081049E+00
    0.3700000000E+02    0.5324474142E-01    0.4926703918E-01    0.9376733849E-02    0.6233337562E-02    0.2003406690E+00
    0.3900000000E+02    0.5582442317E-01    0.5089911220E-01    0.9699151655E-02    0.6535370618E-02    0.2070004309E+00
    0.4100000000E+02    0.5837705232E-01    0.5246774724E-01    0.1000971024E-01    0.6834239336E-02    0.2134033128E+00
    0.4300000000E+02    0.6090308480E-01    0.5397658473E-01    0.1030902193E-01    0.7129997031E-02    0.2195640187E+00
    0.4500000000E+02    0.6340296610E-01    0.5542899140E-01    0.1059765431E-01    0.7422695798E-02    0.2254961481E+00
    0.4700000000E+02    0.6587713162E-01    0.5682808549E-01    0.1087613434E-01    0.7712386553E-02    0.2312122981E+00
    0.4900000000E+02    0.6832600693E-01    0.5817675933E-01    0.1114495210E-01    0.7999119061E-02    0.2367241546E+00
    0.1000000000E+02    0.1551660542E-01    0.1833300556E-01    0.3413842454E-02    0.1816402474E-02    0.7442391805E-01
    0.3000000000E+02    0.4399597889E-01    0.4299517435E-01    0.8144815166E-02    0.5150503166E-02    0.1747661320E+00
    0.5000000000E+02    0.6954109112E-01    0.5883303571E-01    0.1127588150E-01    0.8141391219E-02    0.2394068954E+00
    0.7000000000E+02    0.9261166060E-01    0.6987183628E-01    0.1348307244E-01    0.1084282548E-01    0.2846009155E+00
    0.9000000000E+02    0.1135744221E+00    0.7801002624E-01    0.1509423776E-01    0.1329769273E-01    0.3180225746E+00
    0.1100000000E+03    0.1327255229E+00    0.8426042609E-01    0.1629212279E-01    0.1554062615E-01    0.3437704363E+00
    0.1300000000E+03    0.1503067664E+00    0.8921294167E-01    0.1718911948E-01    0.1759990438E-01    0.3642341603E+00
    0.1500000000E+03    0.1665175799E+00    0.9323456203E-01    0.1785947222E-01    0.1949885096E-01    0.3809019442E+00
    0.1700000000E+03    0.1815239610E+00    0.9656563724E-01    0.1835489162E-01    0.2125688025E-01    0.3947494644E+00
    0.1900000000E+03    0.1954652533E+00    0.9937020721E-01    0.1871285812E-01    0.2289028974E-01    0.4064433211E+00
    0.2100000000E+03    0.2084593398E+00    0.1017640857E+00    0.1896137950E-01    0.2441286723E-01    0.4164546331E+00
    0.2300000000E+03    0.2206066669E+00    0.1038313859E+00    0.1912188773E-01    0.2583636148E-01    0.4251259226E+00
    0.2500000000E+03    0.2319933959E+00    0.1056346829E+00    0.1921109366E-01    0.2717085062E-01    0.4327122714E+00
    0.2700000000E+03    0.2426938930E+00    0.1072214997E+00    0.1924222486E-01    0.2842503337E-01    0.4394076055E+00
    0.2900000000E+03    0.2527727145E+00    0.1086285811E+00    0.1922588100E-01    0.2960646117E-01    0.4453620258E+00
    0.3100000000E+03    0.2622862030E+00    0.1098847891E+00    0.1917064227E-01    0.3072172481E-01    0.4506935540E+00
    0.3300000000E+03    0.2712837793E+00    0.1110131112E+00    0.1908351283E-01    0.3177660558E-01    0.4554962880E+00
    0.3500000000E+03    0.2798089974E+00    0.1120320840E+00    0.1897025090E-01    0.3277619858E-01    0.4598461867E+00
    0.3700000000E+03    0.2879004099E+00    0.1129568227E+00    0.1883561863E-01    0.3372501396E-01    0.4638052508E+00
    0.3900000000E+03    0.2955922842E+00    0.1137997758E+00    0.1868357434E-01    0.3462706064E-01    0.4674245970E+00
    0.4100000000E+03    0.3029151971E+00    0.1145712894E+00    0.1851742222E-01    0.3548591589E-01    0.4707467520E+00
    0.4300000000E+03    0.3098965322E+00    0.1152800333E+00    0.1833993033E-01    0.3630478348E-01    0.4738073900E+00
    0.4500000000E+03    0.3165608984E+00    0.1159333278E+00    0.1815342446E-01    0.3708654263E-01    0.4766366626E+00
    0.4700000000E+03    0.3229304827E+00    0.1165373967E+00    0.1795986358E-01    0.3783378928E-01    0.4792602316E+00
    0.4900000000E+03    0.3290253506E+00    0.1170975654E+00    0.1776090083E-01    0.3854887118E-01    0.4817000766E+00
    0.1000000000E+03    0.1233602012E+00    0.8132748865E-01    0.1573666082E-01    0.1444375324E-01    0.3316787157E+00
    0.3000000000E+03    0.2575968878E+00    0.1092739889E+00    0.1920265312E-01    0.3017198477E-01    0.4480992867E+00
    0.5000000000E+03    0.3319755198E+00    0.1173626448E+00    0.1765983916E-01    0.3889502361E-01    0.4828571247E+00
    0.7000000000E+03    0.3801924357E+00    0.1211953682E+00    0.1559646328E-01    0.4455490726E-01    0.4998128132E+00
    0.9000000000E+03    0.4142289181E+00    0.1234194946E+00    0.1372689706E-01    0.4855370064E-01    0.5099351051E+00
    0.1100000000E+04    0.4395948257E+00    0.1248642899E+00    0.1215423129E-01    0.5153636611E-01    0.5166974477E+00
    0.1300000000E+04    0.4592352642E+00    0.1258731500E+00    0.1085314436E-01    0.5384775009E-01    0.5215530793E+00
    0.1500000000E+04    0.4748859802E+00    0.1266139491E+00    0.9776019170E-02    0.5569115495E-01    0.5252195538E+00
    0.1700000000E+04    0.4876425593E+00    0.1271784343E+00    0.8878305664E-02    0.5719494160E-01    0.5280928673E+00
    0.1900000000E+04    0.4982327424E+00    0.1276209511E+00    0.8123543564E-02    0.5844439897E-01    0.5304098388E+00
    0.2100000000E+04    0.5071595382E+00    0.1279757170E+00    0.7483100177E-02    0.5949849547E-01    0.5323209908E+00
    0.2300000000E+04    0.5147819463E+00    0.1282653350E+00    0.6934750685E-02    0.6039932947E-01    0.5339266861E+00
    0.2500000000E+04    0.5213630734E+00    0.1285053254E+00    0.6461241089E-02    0.6117776333E-01    0.5352964801E+00
    0.2700000000E+04    0.5271001156E+00    0.1287066910E+00    0.6049104377E-02    0.6185693482E-01    0.5364801388E+00
    0.2900000000E+04    0.5321437401E+00    0.1288774439E+00    0.5687748502E-02    0.6245452736E-01    0.5375142348E+00
    0.3100000000E+04    0.5366110052E+00    0.1290235531E+00    0.5368770826E-02    0.6298428376E-01    0.5384262647E+00
    0.3300000000E+04    0.5405942054E+00    0.1291495539E+00    0.5085446558E-02    0.6345704259E-01    0.5392373115E+00
    0.3500000000E+04    0.5441670656E+00    0.1292589518E+00    0.4832346752E-02    0.6388146420E-01    0.5399638197E+00
    0.3700000000E+04    0.5473891683E+00    0.1293544974E+00    0.4605051695E-02    0.6426454965E-01    0.5406188102E+00
    0.3900000000E+04    0.5503091752E+00    0.1294383778E+00    0.4399934394E-02    0.6461201841E-01    0.5412127316E+00
    0.4100000000E+04    0.5529672077E+00    0.1295123531E+00    0.4213995765E-02    0.6492858751E-01    0.5417540685E+00
    0.4300000000E+04    0.5553966336E+00    0.1295778548E+00    0.4044738133E-02    0.6521818109E-01    0.5422497850E+00
    0.4500000000E+04    0.5576254238E+00    0.1296360587E+00    0.3890067356E-02    0.6548408954E-01    0.5427056521E+00
    0.4700000000E+04    0.5596771962E+00    0.1296879385E+00    0.3748216476E-02    0.6572909195E-01    0.5431264945E+00
    0.4900000000E+04    0.5615720263E+00    0.1297343075E+00    0.3617685694E-02    0.6595555129E-01    0.5435163780E+00
    0.1000000000E+04    0.4277732414E+00    0.1242118028E+00    0.1290393462E-01    0.5014600444E-01    0.5136201802E+00
    0.3000000000E+04    0.5344431517E+00    0.1289532674E+00    0.5523416998E-02    0.6272714932E-01    0.5379840642E+00
    0.5000000000E+04    0.5624660527E+00    0.1297556435E+00    0.3556257795E-02    0.6606247068E-01    0.5437008095E+00
    0.7000000000E+04    0.5752050703E+00    0.1300131839E+00    0.2692247498E-02    0.6759228628E-01    0.5463804915E+00
    0.9000000000E+04    0.5824473742E+00    0.1301047644E+00    0.2209231866E-02    0.6846978940E-01    0.5479780278E+00
    0.1100000000E+05    0.5871081641E+00    0.1301291342E+00    0.1899561157E-02    0.6903954742E-01    0.5490581661E+00
    0.1300000000E+05    0.5903546306E+00    0.1301220386E+00    0.1682895271E-02    0.6943994122E-01    0.5498475416E+00
    0.1500000000E+05    0.5927437471E+00    0.1300990087E+00    0.1521904435E-02    0.6973720540E-01    0.5504557207E+00
    0.1700000000E+05    0.5945744747E+00    0.1300676227E+00    0.1396941830E-02    0.6996699958E-01    0.5509425376E+00
    0.1900000000E+05    0.5960214824E+00    0.1300318819E+00    0.1296688930E-02    0.7015022081E-01    0.5513436200E+00
    0.2100000000E+05    0.5971935853E+00    0.1299940172E+00    0.1214162125E-02    0.7029992673E-01    0.5516816028E+00
    0.2300000000E+05    0.5981620726E+00    0.1299553206E+00    0.1144814221E-02    0.7042469765E-01    0.5519716097E+00
    0.2500000000E+05    0.5989755835E+00    0.1299165574E+00    0.1085553324E-02    0.7053040531E-01    0.5522241629E+00
    0.2700000000E+05    0.5996684311E+00    0.1298781859E+00    0.1034200870E-02    0.7062120447E-01    0.5524468292E+00
    0.2900000000E+05    0.6002655104E+00    0.1298404792E+00    0.9891754506E-03    0.7070011849E-01    0.5526452030E+00
    0.3100000000E+05    0.6007853189E+00    0.1298035956E+00    0.9492997898E-03    0.7076940052E-01    0.5528235183E+00
    0.3300000000E+05    0.6012418854E+00    0.1297676216E+00    0.9136782816E-03    0.7083076452E-01    0.5529850445E+00
    0.3500000000E+05    0.6016460418E+00    0.1297325977E+00    0.8816166832E-03    0.7088553777E-01    0.5531323508E+00
    0.3700000000E+05    0.6020062834E+00    0.1296985351E+00    0.8525679266E-03    0.7093476437E-01    0.5532674871E+00
    0.3900000000E+05    0.6023293666E+00    0.1296654261E+00    0.8260946264E-03    0.7097927715E-01    0.5533921114E+00
    0.4100000000E+05    0.6026207313E+00    0.1296332513E+00    0.8018425594E-03    0.7101974867E-01    0.5535075806E+00
    0.4300000000E+05    0.6028848068E+00    0.1296019842E+00    0.7795215331E-03    0.7105672814E-01    0.5536150176E+00
    0.4500000000E+05    0.6031252356E+00    0.1295715936E+00    0.7588913399E-03    0.7109066856E-01    0.5537153601E+00
    0.4700000000E+05    0.6033450405E+00    0.1295420466E+00    0.7397512807E-03    0.7112194699E-01    0.5538093988E+00
    0.4900000000E+05    0.6035467512E+00    0.1295133090E+00    0.7219322380E-03    0.7115087986E-01    0.5538978051E+00
    0.1000000000E+05    0.5850062902E+00    0.1301223957E+00    0.2039260789E-02    0.6878198101E-01    0.5485645376E+00
    0.3000000000E+05    0.6005341093E+00    0.1298219278E+00    0.9686553788E-03    0.7073584582E-01    0.5527366446E+00
    0.5000000000E+05    0.6036415010E+00    0.1294992331E+00    0.7134723594E-03    0.7116455198E-01    0.5539400789E+00
    0.7000000000E+05    0.6049631436E+00    0.1292524896E+00    0.5879262816E-03    0.7136235607E-01    0.5545939975E+00
    0.9000000000E+05    0.6056914107E+00    0.1290555060E+00    0.5102069524E-03    0.7147990905E-01    0.5550304862E+00
    0.1100000000E+06    0.6061510064E+00    0.1288920667E+00    0.4561758748E-03    0.7155955897E-01    0.5553536322E+00
    0.1300000000E+06    0.6064665120E+00    0.1287525423E+00    0.4158716761E-03    0.7161804398E-01    0.5556082294E+00
    0.1500000000E+06    0.6066959124E+00    0.1286308728E+00    0.3843467994E-03    0.7166337989E-01    0.5558172991E+00
    0.1700000000E+06    0.6068698234E+00    0.1285230243E+00    0.3588323850E-03    0.7169991742E-01    0.5559941148E+00
    0.1900000000E+06    0.6070059223E+00    0.1284261844E+00    0.3376433225E-03    0.7173023694E-01    0.5561469761E+00
    0.2100000000E+06    0.6071151226E+00    0.1283383168E+00    0.3196880984E-03    0.7175597381E-01    0.5562813950E+00
    0.2300000000E+06    0.6072045230E+00    0.1282579013E+00    0.3042247460E-03    0.7177821921E-01    0.5564012067E+00
    0.2500000000E+06    0.6072789374E+00    0.1281837730E+00    0.2907291130E-03    0.7179773193E-01    0.5565091813E+00
    0.2700000000E+06    0.6073417444E+00    0.1281150203E+00    0.2788190900E-03    0.7181505771E-01    0.5566073807E+00
    0.2900000000E+06    0.6073953840E+00    0.1280509161E+00    0.2682087261E-03    0.7183060023E-01    0.5566973791E+00
    0.3100000000E+06    0.6074416615E+00    0.1279908716E+00    0.2586792376E-03    0.7184466533E-01    0.5567804040E+00
    0.3300000000E+06    0.6074819410E+00    0.1279344029E+00    0.2500600223E-03    0.7185748949E-01    0.5568574305E+00
    0.3500000000E+06    0.6075172719E+00    0.1278811080E+00    0.2422158409E-03    0.7186925881E-01    0.5569292450E+00
    0.3700000000E+06    0.6075484744E+00    0.1278306489E+00    0.2350379318E-03    0.7188012204E-01    0.5569964911E+00
    0.3900000000E+06    0.6075761987E+00    0.1277827391E+00    0.2284377073E-03    0.7189019973E-01    0.5570597013E+00
    0.4100000000E+06    0.6076009667E+00    0.1277371331E+00    0.2223421914E-03    0.7189959073E-01    0.5571193216E+00
    0.4300000000E+06    0.6076232021E+00    0.1276936196E+00    0.2166906569E-03    0.7190837701E-01    0.5571757285E+00
    0.4500000000E+06    0.6076432522E+00    0.1276520148E+00    0.2114321067E-03    0.7191662720E-01    0.5572292432E+00
    0.4700000000E+06    0.6076614044E+00    0.1276121583E+00    0.2065233602E-03    0.7192439928E-01    0.5572801413E+00
    0.4900000000E+06    0.6076778987E+00    0.1275739089E+00    0.2019275796E-03    0.7193174261E-01    0.5573286616E+00
    0.1000000000E+06    0.6059446634E+00    0.1289703046E+00    0.4810259014E-03    0.7152312125E-01    0.5552026848E+00
    0.3000000000E+06    0.6074193492E+00    0.1280204188E+00    0.2633204907E-03    0.7183780131E-01    0.5567396972E+00
    0.5000000000E+06    0.6076855883E+00    0.1275553475E+00    0.1997369864E-03    0.7193526696E-01    0.5573520959E+00
    0.7000000000E+06    0.6077877573E+00    0.1272446438E+00    0.1665886583E-03    0.7199095462E-01    0.5577347294E+00
    0.9000000000E+06    0.6078378669E+00    0.1270109796E+00    0.1454987495E-03    0.7202950604E-01    0.5580123843E+00
    0.1100000000E+07    0.6078654960E+00    0.1268236454E+00    0.1306034317E-03    0.7205885303E-01    0.5582299622E+00
    0.1300000000E+07    0.6078816577E+00    0.1266672785E+00    0.1193783929E-03    0.7208249192E-01    0.5584086769E+00
    0.1500000000E+07    0.6078913232E+00    0.1265330824E+00    0.1105359784E-03    0.7210225812E-01    0.5585602158E+00
    0.1700000000E+07    0.6078970347E+00    0.1264155469E+00    0.1033421948E-03    0.7211922996E-01    0.5586916961E+00
    0.1900000000E+07    0.6079002124E+00    0.1263109909E+00    0.9734430456E-04    0.7213409306E-01    0.5588077700E+00
    0.2100000000E+07    0.6079017034E+00    0.1262168329E+00    0.9224604369E-04    0.7214730965E-01    0.5589116440E+00
    0.2300000000E+07    0.6079020390E+00    0.1261311921E+00    0.8784440464E-04    0.7215920573E-01    0.5590056206E+00
    0.2500000000E+07    0.6079015660E+00    0.1260526562E+00    0.8399504888E-04    0.7217001962E-01    0.5590914087E+00
    0.2700000000E+07    0.6079005186E+00    0.1259801372E+00    0.8059219542E-04    0.7217993075E-01    0.5591703109E+00
    0.2900000000E+07    0.6078990587E+00    0.1259127795E+00    0.7755633362E-04    0.7218907750E-01    0.5592433429E+00
    0.3100000000E+07    0.6078973012E+00    0.1258498978E+00    0.7482640198E-04    0.7219756881E-01    0.5593113116E+00
    0.3300000000E+07    0.6078953288E+00    0.1257909347E+00    0.7235463410E-04    0.7220549196E-01    0.5593748689E+00
    0.3500000000E+07    0.6078932023E+00    0.1257354311E+00    0.7010306019E-04    0.7221291792E-01    0.5594345487E+00
    0.3700000000E+07    0.6078909665E+00    0.1256830039E+00    0.6804107072E-04    0.7221990521E-01    0.5594907936E+00
    0.3900000000E+07    0.6078886552E+00    0.1256333304E+00    0.6614368109E-04    0.7222650258E-01    0.5595439751E+00
    0.4100000000E+07    0.6078862940E+00    0.1255861360E+00    0.6439027107E-04    0.7223275114E-01    0.5595944072E+00
    0.4300000000E+07    0.6078839023E+00    0.1255411855E+00    0.6276365282E-04    0.7223868581E-01    0.5596423586E+00
    0.4500000000E+07    0.6078814951E+00    0.1254982754E+00    0.6124937084E-04    0.7224433654E-01    0.5596880603E+00
    0.4700000000E+07    0.6078790838E+00    0.1254572288E+00    0.5983516872E-04    0.7224972920E-01    0.5597317125E+00
    0.4900000000E+07    0.6078766773E+00    0.1254178907E+00    0.5851057770E-04    0.7225488627E-01    0.5597734900E+00
    0.1000000000E+07    0.6078535890E+00    0.1269126954E+00    0.1374766729E-03    0.7204505529E-01    0.5581270409E+00
    0.3000000000E+07    0.6078982114E+00    0.1258808166E+00    0.7615637622E-04    0.7219339919E-01    0.5592779163E+00
    0.5000000000E+07    0.6078754779E+00    0.1253988191E+00    0.5787902315E-04    0.7225738271E-01    0.5597937244E+00
    0.7000000000E+07    0.6078527331E+00    0.1250811542E+00    0.4830893996E-04    0.7229864902E-01    0.5601290187E+00
    0.9000000000E+07    0.6078329167E+00    0.1248439040E+00    0.4220880165E-04    0.7232915593E-01    0.5603775663E+00
    0.1100000000E+08    0.6078157385E+00    0.1246545125E+00    0.3789600855E-04    0.7235336617E-01    0.5605750158E+00
    0.1300000000E+08    0.6078006805E+00    0.1244968986E+00    0.3464383975E-04    0.7237343845E-01    0.5607387687E+00
    0.1500000000E+08    0.6077873135E+00    0.1243619298E+00    0.3208087410E-04    0.7239058250E-01    0.5608786282E+00
    0.1700000000E+08    0.6077753119E+00    0.1242439191E+00    0.2999512178E-04    0.7240554474E-01    0.5610006632E+00
    0.1900000000E+08    0.6077644299E+00    0.1241390838E+00    0.2825570638E-04    0.7241881824E-01    0.5611088917E+00
    0.2100000000E+08    0.6077544804E+00    0.1240447803E+00    0.2677692709E-04    0.7243074580E-01    0.5612061117E+00
    0.2300000000E+08    0.6077453181E+00    0.1239590881E+00    0.2550002938E-04    0.7244157543E-01    0.5612943491E+00
    0.2500000000E+08    0.6077368289E+00    0.1238805684E+00    0.2438322174E-04    0.7245149231E-01    0.5613751185E+00
    0.2700000000E+08    0.6077289213E+00    0.1238081149E+00    0.2339586650E-04    0.7246063842E-01    0.5614495813E+00
