  Pressure (Pa) 22mC5-400 (mol/kg) 3mC6-400 (mol/kg) 33mC5-400 (mol/kg) 23mC5-400 (mol/kg) C7-400 (mol/kg)
    0.1000000000E+01    0.1593548508E-02    0.3163826597E-02    0.5181512620E-03    0.9326973534E-04    0.3422637855E-02
    0.3000000000E+01    0.4752215120E-02    0.9300382126E-02    0.1523265724E-02    0.2781465698E-03    0.1006215577E-01
    0.5000000000E+01    0.7873585307E-02    0.1519482114E-01    0.2488769381E-02    0.4608422668E-03    0.1644096200E-01
    0.7000000000E+01    0.1095837529E-01    0.2086131836E-01    0.3416870367E-02    0.6413987027E-03    0.2257429599E-01
    0.9000000000E+01    0.1400728277E-01    0.2631296081E-01    0.4309610006E-02    0.8198566700E-03    0.2847622867E-01
    0.1100000000E+02    0.1702098747E-01    0.3156185021E-01    0.5168878531E-02    0.9962559121E-03    0.3415977246E-01
    0.1300000000E+02    0.2000015176E-01    0.3661919407E-01    0.5996429070E-02    0.1170635156E-02    0.3963697903E-01
    0.1500000000E+02    0.2294542118E-01    0.4149538682E-01    0.6793890085E-02    0.1343032147E-02    0.4491902647E-01
    0.1700000000E+02    0.2585742499E-01    0.4620008228E-01    0.7562776477E-02    0.1513483675E-02    0.5001629710E-01
    0.1900000000E+02    0.2873677663E-01    0.5074225851E-01    0.8304499520E-02    0.1682025609E-02    0.5493844710E-01
    0.2100000000E+02    0.3158407427E-01    0.5513027594E-01    0.9020375761E-02    0.1848692924E-02    0.5969446898E-01
    0.2300000000E+02    0.3439990126E-01    0.5937192967E-01    0.9711635010E-02    0.2013519726E-02    0.6429274769E-01
    0.2500000000E+02    0.3718482656E-01    0.6347449647E-01    0.1037942753E-01    0.2176539284E-02    0.6874111114E-01
    0.2700000000E+02    0.3993940522E-01    0.6744477717E-01    0.1102483053E-01    0.2337784051E-02    0.7304687575E-01
    0.2900000000E+02    0.4266417878E-01    0.7128913504E-01    0.1164885399E-01    0.2497285690E-02    0.7721688762E-01
    0.3100000000E+02    0.4535967567E-01    0.7501353039E-01    0.1225244598E-01    0.2655075101E-02    0.8125755977E-01
    0.3300000000E+02    0.4802641164E-01    0.7862355204E-01    0.1283649744E-01    0.2811182437E-02    0.8517490585E-01
    0.3500000000E+02    0.5066489009E-01    0.8212444583E-01    0.1340184653E-01    0.2965637133E-02    0.8897457087E-01
    0.3700000000E+02    0.5327560246E-01    0.8552114059E-01    0.1394928262E-01    0.3118467926E-02    0.9266185902E-01
    0.3900000000E+02    0.5585902860E-01    0.8881827169E-01    0.1447954982E-01    0.3269702870E-02    0.9624175903E-01
    0.4100000000E+02    0.5841563708E-01    0.9202020266E-01    0.1499335035E-01    0.3419369365E-02    0.9971896734E-01
    0.4300000000E+02    0.6094588553E-01    0.9513104481E-01    0.1549134746E-01    0.3567494169E-02    0.1030979092E+00
    0.4500000000E+02    0.6345022096E-01    0.9815467520E-01    0.1597416823E-01    0.3714103419E-02    0.1063827581E+00
    0.4700000000E+02    0.6592908007E-01    0.1010947532E+00    0.1644240604E-01    0.3859222649E-02    0.1095774533E+00
    0.4900000000E+02    0.6838288953E-01    0.1039547354E+00    0.1689662288E-01    0.4002876808E-02    0.1126857162E+00
    0.1000000000E+02    0.1551849366E-01    0.2896202921E-01    0.4743315526E-02    0.9083111878E-03    0.3134452450E-01
    0.3000000000E+02    0.4401555428E-01    0.7316597037E-01    0.1195314695E-01    0.2576392522E-02    0.7925300632E-01
    0.5000000000E+02    0.6960053132E-01    0.1053557188E+00    0.1711864101E-01    0.4074162127E-02    0.1142085425E+00
    0.7000000000E+02    0.9273501285E-01    0.1298764575E+00    0.2093871570E-01    0.5428609602E-02    0.1408876963E+00
    0.9000000000E+02    0.1137858319E+00    0.1491990078E+00    0.2382165455E-01    0.6661184743E-02    0.1619514756E+00
    0.1100000000E+03    0.1330482193E+00    0.1648328836E+00    0.2602445418E-01    0.7789151047E-02    0.1790266521E+00
    0.1300000000E+03    0.1507625077E+00    0.1777528434E+00    0.2771825339E-01    0.8826562259E-02    0.1931643878E+00
    0.1500000000E+03    0.1671263822E+00    0.1886167328E+00    0.2902208407E-01    0.9784978546E-02    0.2050745535E+00
    0.1700000000E+03    0.1823039978E+00    0.1978847976E+00    0.3002162425E-01    0.1067399957E-01    0.2152541155E+00
    0.1900000000E+03    0.1964328582E+00    0.2058888286E+00    0.3078026342E-01    0.1150166666E-01    0.2240615685E+00
    0.2100000000E+03    0.2096290696E+00    0.2128741464E+00    0.3134596285E-01    0.1227476995E-01    0.2317621487E+00
    0.2300000000E+03    0.2219913987E+00    0.2190261119E+00    0.3175568777E-01    0.1299908568E-01    0.2385563942E+00
    0.2500000000E+03    0.2336044406E+00    0.2244874361E+00    0.3203837214E-01    0.1367956138E-01    0.2445988004E+00
    0.2700000000E+03    0.2445411148E+00    0.2293698130E+00    0.3221696121E-01    0.1432046186E-01    0.2500103621E+00
    0.2900000000E+03    0.2548646508E+00    0.2337619362E+00    0.3230985488E-01    0.1492548526E-01    0.2548872198E+00
    0.3100000000E+03    0.2646301798E+00    0.2377351475E+00    0.3233195005E-01    0.1549785616E-01    0.2593067550E+00
    0.3300000000E+03    0.2738860215E+00    0.2413474964E+00    0.3229540792E-01    0.1604040080E-01    0.2633319713E+00
    0.3500000000E+03    0.2826747309E+00    0.2446467082E+00    0.3221022827E-01    0.1655560829E-01    0.2670147005E+00
    0.3700000000E+03    0.2910339568E+00    0.2476723900E+00    0.3208468558E-01    0.1704568084E-01    0.2703979843E+00
    0.3900000000E+03    0.2989971501E+00    0.2504576923E+00    0.3192566465E-01    0.1751257514E-01    0.2735178710E+00
    0.4100000000E+03    0.3065941511E+00    0.2530305783E+00    0.3173892174E-01    0.1795803673E-01    0.2764047876E+00
    0.4300000000E+03    0.3138516800E+00    0.2554148045E+00    0.3152929006E-01    0.1838362865E-01    0.2790845994E+00
    0.4500000000E+03    0.3207937487E+00    0.2576306858E+00    0.3130084284E-01    0.1879075559E-01    0.2815794389E+00
    0.4700000000E+03    0.3274420081E+00    0.2596956997E+00    0.3105702392E-01    0.1918068410E-01    0.2839083593E+00
    0.4900000000E+03    0.3338160419E+00    0.2616249670E+00    0.3080075309E-01    0.1955455988E-01    0.2860878546E+00
    0.1000000000E+03    0.1236244336E+00    0.1574067807E+00    0.2499585812E-01    0.7237299855E-02    0.1709118993E+00
    0.3000000000E+03    0.2598139998E+00    0.2357970053E+00    0.3232893560E-01    0.1521556707E-01    0.2571499203E+00
    0.5000000000E+03    0.3369058415E+00    0.2625428731E+00    0.3066873874E-01    0.1973580661E-01    0.2871261273E+00
    0.7000000000E+03    0.3878585991E+00    0.2762138837E+00    0.2780997380E-01    0.2272587877E-01    0.3027127456E+00
    0.9000000000E+03    0.4244033437E+00    0.2845652985E+00    0.2506160059E-01    0.2487215058E-01    0.3123903177E+00
    0.1100000000E+04    0.4519877792E+00    0.2902148276E+00    0.2266986276E-01    0.2649344399E-01    0.3190401136E+00
    0.1300000000E+04    0.4735636387E+00    0.2942988492E+00    0.2064081976E-01    0.2776255406E-01    0.3239206774E+00
    0.1500000000E+04    0.4908961033E+00    0.2973924190E+00    0.1892608635E-01    0.2878284364E-01    0.3276726819E+00
    0.1700000000E+04    0.5051151115E+00    0.2998185423E+00    0.1747134629E-01    0.2962049639E-01    0.3306580694E+00
    0.1900000000E+04    0.5169809642E+00    0.3017729704E+00    0.1622879860E-01    0.3032005753E-01    0.3330974235E+00
    0.2100000000E+04    0.5270252655E+00    0.3033814122E+00    0.1515927417E-01    0.3091268171E-01    0.3351331803E+00
    0.2300000000E+04    0.5356312965E+00    0.3047283736E+00    0.1423145426E-01    0.3142083718E-01    0.3368616076E+00
    0.2500000000E+04    0.5430824681E+00    0.3058728060E+00    0.1342046403E-01    0.3186114218E-01    0.3383502187E+00
    0.2700000000E+04    0.5495928497E+00    0.3068571135E+00    0.1270652382E-01    0.3224615234E-01    0.3396478300E+00
    0.2900000000E+04    0.5553271120E+00    0.3077125941E+00    0.1207382930E-01    0.3258552851E-01    0.3407906577E+00
    0.3100000000E+04    0.5604139523E+00    0.3084628616E+00    0.1150966951E-01    0.3288682302E-01    0.3418061661E+00
    0.3300000000E+04    0.5649553675E+00    0.3091260741E+00    0.1100374663E-01    0.3315602297E-01    0.3427155799E+00
    0.3500000000E+04    0.5690332034E+00    0.3097164275E+00    0.1054765504E-01    0.3339793381E-01    0.3435355752E+00
    0.3700000000E+04    0.5727138695E+00    0.3102451831E+00    0.1013448246E-01    0.3361645573E-01    0.3442794457E+00
    0.3900000000E+04    0.5760517928E+00    0.3107213904E+00    0.9758503472E-02    0.3381478603E-01    0.3449579264E+00
    0.4100000000E+04    0.5790919879E+00    0.3111524059E+00    0.9414942742E-02    0.3399556972E-01    0.3455797865E+00
    0.4300000000E+04    0.5818719937E+00    0.3115442724E+00    0.9099791019E-02    0.3416101319E-01    0.3461522632E+00
    0.4500000000E+04    0.5844233543E+00    0.3119020002E+00    0.8809661088E-02    0.3431297091E-01    0.3466813861E+00
    0.4700000000E+04    0.5867727613E+00    0.3122297791E+00    0.8541674255E-02    0.3445301250E-01    0.3471722210E+00
    0.4900000000E+04    0.5889429465E+00    0.3125311400E+00    0.8293370271E-02    0.3458247508E-01    0.3476290572E+00
    0.1000000000E+04    0.4390936049E+00    0.2876377093E+00    0.2381844533E-01    0.2573542501E-01    0.3159940769E+00
    0.3000000000E+04    0.5579445467E+00    0.3080996370E+00    0.1178387595E-01    0.3274053021E-01    0.3413128770E+00
    0.5000000000E+04    0.5899670282E+00    0.3126728682E+00    0.8175926918E-02    0.3464360385E-01    0.3478458902E+00
    0.7000000000E+04    0.6045618940E+00    0.3146552398E+00    0.6476818566E-02    0.3551812607E-01    0.3510558131E+00
    0.9000000000E+04    0.6128522936E+00    0.3157396636E+00    0.5477962731E-02    0.3601900611E-01    0.3530326309E+00
    0.1100000000E+05    0.6181797061E+00    0.3164095113E+00    0.4812390039E-02    0.3634354760E-01    0.3544028924E+00
    0.1300000000E+05    0.6218849755E+00    0.3168551461E+00    0.4332237986E-02    0.3657114575E-01    0.3554246453E+00
    0.1500000000E+05    0.6246080500E+00    0.3171665818E+00    0.3966484821E-02    0.3673979977E-01    0.3562252090E+00
    0.1700000000E+05    0.6266922193E+00    0.3173918044E+00    0.3676681980E-02    0.3686995074E-01    0.3568752976E+00
    0.1900000000E+05    0.6283378695E+00    0.3175586712E+00    0.3440130016E-02    0.3697356396E-01    0.3574176322E+00
    0.2100000000E+05    0.6296697103E+00    0.3176844211E+00    0.3242518111E-02    0.3705810686E-01    0.3578797016E+00
    0.2300000000E+05    0.6307693614E+00    0.3177802664E+00    0.3074348083E-02    0.3712848038E-01    0.3582800827E+00
    0.2500000000E+05    0.6316924548E+00    0.3178537961E+00    0.2929050035E-02    0.3718803440E-01    0.3586318330E+00
    0.2700000000E+05    0.6324782005E+00    0.3179103175E+00    0.2801922876E-02    0.3723913653E-01    0.3589444308E+00
    0.2900000000E+05    0.6331550209E+00    0.3179536447E+00    0.2689506185E-02    0.3728350782E-01    0.3592249440E+00
    0.3100000000E+05    0.6337440172E+00    0.3179865825E+00    0.2589191000E-02    0.3732242960E-01    0.3594787641E+00
    0.3300000000E+05    0.6342611807E+00    0.3180112349E+00    0.2498969474E-02    0.3735687560E-01    0.3597100855E+00
    0.3500000000E+05    0.6347188496E+00    0.3180292074E+00    0.2417268615E-02    0.3738759925E-01    0.3599222267E+00
    0.3700000000E+05    0.6351266946E+00    0.3180417435E+00    0.2342836765E-02    0.3741519268E-01    0.3601178527E+00
    0.3900000000E+05    0.6354924015E+00    0.3180498192E+00    0.2274664189E-02    0.3744012787E-01    0.3602991318E+00
    0.4100000000E+05    0.6358221556E+00    0.3180542096E+00    0.2211926320E-02    0.3746278567E-01    0.3604678489E+00
    0.4300000000E+05    0.6361209900E+00    0.3180555365E+00    0.2153942426E-02    0.3748347685E-01    0.3606254890E+00
    0.4500000000E+05    0.6363930418E+00    0.3180543037E+00    0.2100144984E-02    0.3750245760E-01    0.3607732987E+00
    0.4700000000E+05    0.6366417428E+00    0.3180509224E+00    0.2050056644E-02    0.3751994098E-01    0.3609123339E+00
    0.4900000000E+05    0.6368699635E+00    0.3180457313E+00    0.2003272662E-02    0.3753610574E-01    0.3610434957E+00
    0.1000000000E+05    0.6157782131E+00    0.3161110080E+00    0.5115427161E-02    0.3619691943E-01    0.3537729414E+00
    0.3000000000E+05    0.6334593977E+00    0.3179712671E+00    0.2637973219E-02    0.3730358302E-01    0.3593549048E+00
    0.5000000000E+05    0.6369771649E+00    0.3180425467E+00    0.1981009771E-02    0.3754374176E-01    0.3611063704E+00
    0.7000000000E+05    0.6384728770E+00    0.3179317190E+00    0.1646778092E-02    0.3765402262E-01    0.3620919211E+00
    0.9000000000E+05    0.6392982358E+00    0.3177882359E+00    0.1436361957E-02    0.3771937671E-01    0.3627632555E+00
    0.1100000000E+06    0.6398202931E+00    0.3176434143E+00    0.1288580430E-02    0.3776357496E-01    0.3632669759E+00
    0.1300000000E+06    0.6401796832E+00    0.3175054160E+00    0.1177583457E-02    0.3779598501E-01    0.3636676543E+00
    0.1500000000E+06    0.6404418195E+00    0.3173761586E+00    0.1090332233E-02    0.3782108324E-01    0.3639990481E+00
    0.1700000000E+06    0.6406412319E+00    0.3172556245E+00    0.1019449239E-02    0.3784129519E-01    0.3642808813E+00
    0.1900000000E+06    0.6407978592E+00    0.3171431914E+00    0.9604075098E-03    0.3785805749E-01    0.3645256193E+00
    0.2100000000E+06    0.6409240146E+00    0.3170380877E+00    0.9102559189E-03    0.3787227959E-01    0.3647416140E+00
    0.2300000000E+06    0.6410277101E+00    0.3169395545E+00    0.8669780797E-03    0.3788456773E-01    0.3649347200E+00
    0.2500000000E+06    0.6411143824E+00    0.3168468991E+00    0.8291435243E-03    0.3789534316E-01    0.3651091924E+00
    0.2700000000E+06    0.6411878496E+00    0.3167595088E+00    0.7957057484E-03    0.3790490859E-01    0.3652682163E+00
    0.2900000000E+06    0.6412508709E+00    0.3166768481E+00    0.7658792511E-03    0.3791348785E-01    0.3654142347E+00
    0.3100000000E+06    0.6413054896E+00    0.3165984509E+00    0.7390614840E-03    0.3792125039E-01    0.3655491611E+00
    0.3300000000E+06    0.6413532507E+00    0.3165239118E+00    0.7147815366E-03    0.3792832717E-01    0.3656745207E+00
    0.3500000000E+06    0.6413953442E+00    0.3164528772E+00    0.6926653712E-03    0.3793482121E-01    0.3657915483E+00
    0.3700000000E+06    0.6414327008E+00    0.3163850380E+00    0.6724116516E-03    0.3794081484E-01    0.3659012567E+00
    0.3900000000E+06    0.6414660591E+00    0.3163201226E+00    0.6537745514E-03    0.3794637471E-01    0.3660044870E+00
    0.4100000000E+06    0.6414960127E+00    0.3162578919E+00    0.6365512793E-03    0.3795155550E-01    0.3661019447E+00
    0.4300000000E+06    0.6415230437E+00    0.3161981341E+00    0.6205728665E-03    0.3795640253E-01    0.3661942272E+00
    0.4500000000E+06    0.6415475480E+00    0.3161406611E+00    0.6056972525E-03    0.3796095371E-01    0.3662818450E+00
    0.4700000000E+06    0.6415698536E+00    0.3160853050E+00    0.5918040228E-03    0.3796524110E-01    0.3663652372E+00
    0.4900000000E+06    0.6415902342E+00    0.3160319158E+00    0.5787903508E-03    0.3796929194E-01    0.3664447843E+00
    0.1000000000E+06    0.6395857403E+00    0.3177152449E+00    0.1356696398E-02    0.3774336394E-01    0.3630309877E+00
    0.3000000000E+06    0.6412791242E+00    0.3166371432E+00    0.7521263230E-03    0.3791746227E-01    0.3654829813E+00
    0.5000000000E+06    0.6415997762E+00    0.3160059160E+00    0.5725852310E-03    0.3797123610E-01    0.3664832214E+00
    0.7000000000E+06    0.6417301533E+00    0.3155626504E+00    0.4785238651E-03    0.3800195792E-01    0.3671122437E+00
    0.9000000000E+06    0.6417987248E+00    0.3152205997E+00    0.4185197487E-03    0.3802323265E-01    0.3675701001E+00
    0.1100000000E+07    0.6418399090E+00    0.3149418634E+00    0.3760651401E-03    0.3803943405E-01    0.3679295407E+00
    0.1300000000E+07    0.6418667212E+00    0.3147065180E+00    0.3440297870E-03    0.3805248912E-01    0.3682251342E+00
    0.1500000000E+07    0.6418851343E+00    0.3145027900E+00    0.3187683960E-03    0.3806340922E-01    0.3684759950E+00
    0.1700000000E+07    0.6418982573E+00    0.3143231380E+00    0.2981996470E-03    0.3807278853E-01    0.3686937924E+00
    0.1900000000E+07    0.6419078598E+00    0.3141624388E+00    0.2810381082E-03    0.3808100485E-01    0.3688861685E+00
    0.2100000000E+07    0.6419150186E+00    0.3140170518E+00    0.2664417380E-03    0.3808831291E-01    0.3690583974E+00
    0.2300000000E+07    0.6419204235E+00    0.3138842962E+00    0.2538330462E-03    0.3809489238E-01    0.3692142711E+00
    0.2500000000E+07    0.6419245354E+00    0.3137621403E+00    0.2428011311E-03    0.3810087464E-01    0.3693566061E+00
    0.2700000000E+07    0.6419276727E+00    0.3136490076E+00    0.2330446606E-03    0.3810635860E-01    0.3694875510E+00
    0.2900000000E+07    0.6419300618E+00    0.3135436498E+00    0.2243370078E-03    0.3811142058E-01    0.3696087821E+00
    0.3100000000E+07    0.6419318675E+00    0.3134450614E+00    0.2165040414E-03    0.3811612064E-01    0.3697216320E+00
    0.3300000000E+07    0.6419332120E+00    0.3133524208E+00    0.2094094813E-03    0.3812050693E-01    0.3698271776E+00
    0.3500000000E+07    0.6419341882E+00    0.3132650476E+00    0.2029449521E-03    0.3812461860E-01    0.3699263011E+00
    0.3700000000E+07    0.6419348670E+00    0.3131823723E+00    0.1970230526E-03    0.3812848792E-01    0.3700197347E+00
    0.3900000000E+07    0.6419353039E+00    0.3131039130E+00    0.1915724173E-03    0.3813214181E-01    0.3701080923E+00
    0.4100000000E+07    0.6419355426E+00    0.3130292587E+00    0.1865341278E-03    0.3813560295E-01    0.3701918938E+00
    0.4300000000E+07    0.6419356177E+00    0.3129580558E+00    0.1818590577E-03    0.3813889060E-01    0.3702715834E+00
    0.4500000000E+07    0.6419355573E+00    0.3128899978E+00    0.1775058784E-03    0.3814202132E-01    0.3703475436E+00
    0.4700000000E+07    0.6419353840E+00    0.3128248175E+00    0.1734395392E-03    0.3814500936E-01    0.3704201057E+00
    0.4900000000E+07    0.6419351164E+00    0.3127622804E+00    0.1696300937E-03    0.3814786716E-01    0.3704895593E+00
    0.1000000000E+07    0.6418216782E+00    0.3150748238E+00    0.3956630246E-03    0.3803181605E-01    0.3677594499E+00
    0.3000000000E+07    0.6419310291E+00    0.3134935645E+00    0.2203204589E-03    0.3811381260E-01    0.3696661822E+00
    0.5000000000E+07    0.6419349521E+00    0.3127319375E+00    0.1678135142E-03    0.3814925066E-01    0.3705232010E+00
    0.7000000000E+07    0.6419292931E+00    0.3122243450E+00    0.1402643255E-03    0.3817212939E-01    0.3710809124E+00
    0.9000000000E+07    0.6419221019E+00    0.3118427926E+00    0.1226803795E-03    0.3818905375E-01    0.3714946419E+00
    0.1100000000E+08    0.6419149534E+00    0.3115368671E+00    0.1102360604E-03    0.3820249107E-01    0.3718235057E+00
    0.1300000000E+08    0.6419082230E+00    0.3112814403E+00    0.1008445861E-03    0.3821363566E-01    0.3720963787E+00
    0.1500000000E+08    0.6419019799E+00    0.3110621509E+00    0.9343842000E-04    0.3822315712E-01    0.3723295348E+00
    0.1700000000E+08    0.6418962048E+00    0.3108700129E+00    0.8740780165E-04    0.3823146880E-01    0.3725330525E+00
    0.1900000000E+08    0.6418908546E+00    0.3106990271E+00    0.8237604357E-04    0.3823884384E-01    0.3727136064E+00
    0.2100000000E+08    0.6418858825E+00    0.3105449876E+00    0.7809634744E-04    0.3824547219E-01    0.3728758451E+00
    0.2300000000E+08    0.6418812453E+00    0.3104048312E+00    0.7439943247E-04    0.3825149130E-01    0.3730231361E+00
    0.2500000000E+08    0.6418769045E+00    0.3102762577E+00    0.7116483928E-04    0.3825700385E-01    0.3731579966E+00
    0.2700000000E+08    0.6418728270E+00    0.3101574952E+00    0.6830422390E-04    0.3826208855E-01    0.3732823579E+00
