  Pressure (Pa) 22mC5-400 (mol/kg) 3mC6-400 (mol/kg) 33mC5-400 (mol/kg) 23mC5-400 (mol/kg) C7-400 (mol/kg)
    0.1000000000E+01    0.1593288453E-02    0.4748779758E-02    0.1295816099E-03    0.4662727166E-03    0.1712410375E-02
    0.3000000000E+01    0.4749886494E-02    0.1397681177E-01    0.3811864252E-03    0.1390052669E-02    0.5040499332E-02
    0.5000000000E+01    0.7867149679E-02    0.2286218787E-01    0.6231574013E-03    0.2302331501E-02    0.8245601668E-02
    0.7000000000E+01    0.1094582532E-01    0.3142368220E-01    0.8559941292E-03    0.3203327661E-02    0.1133444503E-01
    0.9000000000E+01    0.1398664183E-01    0.3967872129E-01    0.1080161258E-02    0.4093254067E-02    0.1431327453E-01
    0.1100000000E+02    0.1699030928E-01    0.4764350287E-01    0.1296091561E-02    0.4972318282E-02    0.1718789528E-01
    0.1300000000E+02    0.1995751999E-01    0.5533310232E-01    0.1504188683E-02    0.5840722681E-02    0.1996371047E-01
    0.1500000000E+02    0.2288894910E-01    0.6276156820E-01    0.1704829606E-02    0.6698664612E-02    0.2264575561E-01
    0.1700000000E+02    0.2578525505E-01    0.6994200825E-01    0.1898366862E-02    0.7546336549E-02    0.2523872924E-01
    0.1900000000E+02    0.2864708015E-01    0.7688666685E-01    0.2085130536E-02    0.8383926245E-02    0.2774702072E-01
    0.2100000000E+02    0.3147505101E-01    0.8360699497E-01    0.2265430062E-02    0.9211616873E-02    0.3017473523E-01
    0.2300000000E+02    0.3426977908E-01    0.9011371341E-01    0.2439555861E-02    0.1002958716E-01    0.3252571642E-01
    0.2500000000E+02    0.3703186104E-01    0.9641687010E-01    0.2607780809E-02    0.1083801154E-01    0.3480356693E-01
    0.2700000000E+02    0.3976187929E-01    0.1025258921E+00    0.2770361579E-02    0.1163706025E-01    0.3701166698E-01
    0.2900000000E+02    0.4246040236E-01    0.1084496328E+00    0.2927539862E-02    0.1242689949E-01    0.3915319132E-01
    0.3100000000E+02    0.4512798532E-01    0.1141964149E+00    0.3079543467E-02    0.1320769151E-01    0.4123112457E-01
    0.3300000000E+02    0.4776517017E-01    0.1197740697E+00    0.3226587337E-02    0.1397959476E-01    0.4324827528E-01
    0.3500000000E+02    0.5037248622E-01    0.1251899727E+00    0.3368874466E-02    0.1474276396E-01    0.4520728873E-01
    0.3700000000E+02    0.5295045049E-01    0.1304510764E+00    0.3506596744E-02    0.1549735024E-01    0.4711065862E-01
    0.3900000000E+02    0.5549956802E-01    0.1355639401E+00    0.3639935725E-02    0.1624350125E-01    0.4896073781E-01
    0.4100000000E+02    0.5802033223E-01    0.1405347576E+00    0.3769063337E-02    0.1698136122E-01    0.5075974807E-01
    0.4300000000E+02    0.6051322527E-01    0.1453693817E+00    0.3894142526E-02    0.1771107111E-01    0.5250978918E-01
    0.4500000000E+02    0.6297871832E-01    0.1500733482E+00    0.4015327856E-02    0.1843276864E-01    0.5421284709E-01
    0.4700000000E+02    0.6541727192E-01    0.1546518964E+00    0.4132766054E-02    0.1914658846E-01    0.5587080164E-01
    0.4900000000E+02    0.6782933623E-01    0.1591099888E+00    0.4246596520E-02    0.1985266215E-01    0.5748543348E-01
    0.1000000000E+02    0.1549307551E-01    0.4369642692E-01    0.1189130132E-02    0.4534131180E-02    0.1576326429E-01
    0.3000000000E+02    0.4379802718E-01    0.1113446431E+00    0.3004174774E-02    0.1281841641E-01    0.4019992732E-01
    0.5000000000E+02    0.6902557283E-01    0.1612953438E+00    0.4302200525E-02    0.2020283451E-01    0.5827703432E-01
    0.7000000000E+02    0.9166185461E-01    0.1997004643E+00    0.5253864055E-02    0.2682949776E-01    0.7220136692E-01
    0.9000000000E+02    0.1120950152E+00    0.2301552380E+00    0.5961981868E-02    0.3281187465E-01    0.8326339645E-01
    0.1100000000E+03    0.1306387182E+00    0.2549016103E+00    0.6492721012E-02    0.3824166397E-01    0.9226835177E-01
    0.1300000000E+03    0.1475492174E+00    0.2754103698E+00    0.6890839436E-02    0.4319378348E-01    0.9974482072E-01
    0.1500000000E+03    0.1630379439E+00    0.2926865625E+00    0.7187802033E-02    0.4773004887E-01    0.1060542340E+00
    0.1700000000E+03    0.1772809246E+00    0.3074403900E+00    0.7406409579E-02    0.5190192657E-01    0.1114521516E+00
    0.1900000000E+03    0.1904259228E+00    0.3201879892E+00    0.7563590184E-02    0.5575262087E-01    0.1161244169E+00
    0.2100000000E+03    0.2025979184E+00    0.3313135120E+00    0.7672161855E-02    0.5931867564E-01    0.1202094365E+00
    0.2300000000E+03    0.2139033591E+00    0.3411088014E+00    0.7741988904E-02    0.6263121715E-01    0.1238124244E+00
    0.2500000000E+03    0.2244334941E+00    0.3497995631E+00    0.7780765529E-02    0.6571692835E-01    0.1270148016E+00
    0.2700000000E+03    0.2342670114E+00    0.3575631078E+00    0.7794561498E-02    0.6859881986E-01    0.1298805711E+00
    0.2900000000E+03    0.2434721436E+00    0.3645406712E+00    0.7788211159E-02    0.7129684551E-01    0.1324607453E+00
    0.3100000000E+03    0.2521083621E+00    0.3708461505E+00    0.7765596389E-02    0.7382839773E-01    0.1347964882E+00
    0.3300000000E+03    0.2602277523E+00    0.3765724193E+00    0.7729856030E-02    0.7620870931E-01    0.1369213860E+00
    0.3500000000E+03    0.2678761355E+00    0.3817959679E+00    0.7683543279E-02    0.7845118156E-01    0.1388631173E+00
    0.3700000000E+03    0.2750939919E+00    0.3865803664E+00    0.7628745555E-02    0.8056765414E-01    0.1406446996E+00
    0.3900000000E+03    0.2819172248E+00    0.3909788842E+00    0.7567176882E-02    0.8256862837E-01    0.1422854326E+00
    0.4100000000E+03    0.2883777958E+00    0.3950364972E+00    0.7500249818E-02    0.8446345300E-01    0.1438016210E+00
    0.4300000000E+03    0.2945042569E+00    0.3987914426E+00    0.7429132007E-02    0.8626047980E-01    0.1452071352E+00
    0.4500000000E+03    0.3003221981E+00    0.4022764363E+00    0.7354790994E-02    0.8796719435E-01    0.1465138501E+00
    0.4700000000E+03    0.3058546259E+00    0.4055196362E+00    0.7278030025E-02    0.8959032676E-01    0.1477319922E+00
    0.4900000000E+03    0.3111222846E+00    0.4085454095E+00    0.7199516828E-02    0.9113594560E-01    0.1488704169E+00
    0.1000000000E+03    0.1215858531E+00    0.2431364391E+00    0.6246342574E-02    0.3559081551E-01    0.8798508757E-01
    0.3000000000E+03    0.2478579528E+00    0.3677711851E+00    0.7778725292E-02    0.7258243230E-01    0.1336569159E+00
    0.5000000000E+03    0.3136627579E+00    0.4099834941E+00    0.7159780578E-02    0.9188142295E-01    0.1494121833E+00
    0.7000000000E+03    0.3542934367E+00    0.4312616884E+00    0.6366137224E-02    0.1038103406E+00    0.1574935682E+00
    0.9000000000E+03    0.3819261447E+00    0.4440921570E+00    0.5669631111E-02    0.1119318147E+00    0.1624496779E+00
    0.1100000000E+04    0.4019442275E+00    0.4526730567E+00    0.5095682062E-02    0.1178215486E+00    0.1658196557E+00
    0.1300000000E+04    0.4171112993E+00    0.4588146265E+00    0.4626632602E-02    0.1222887497E+00    0.1682712526E+00
    0.1500000000E+04    0.4289963254E+00    0.4634262607E+00    0.4240736192E-02    0.1257929914E+00    0.1701419241E+00
    0.1700000000E+04    0.4385574090E+00    0.4670150984E+00    0.3919714306E-02    0.1286150183E+00    0.1716209599E+00
    0.1900000000E+04    0.4464130375E+00    0.4698863787E+00    0.3649449314E-02    0.1309361261E+00    0.1728229479E+00
    0.2100000000E+04    0.4529803764E+00    0.4722348575E+00    0.3419269511E-02    0.1328786412E+00    0.1738214167E+00
    0.2300000000E+04    0.4585510118E+00    0.4741906637E+00    0.3221113535E-02    0.1345280970E+00    0.1746657731E+00
    0.2500000000E+04    0.4633348740E+00    0.4758440602E+00    0.3048847156E-02    0.1359460959E+00    0.1753904791E+00
    0.2700000000E+04    0.4674869282E+00    0.4772596280E+00    0.2897753667E-02    0.1371781275E+00    0.1760203285E+00
    0.2900000000E+04    0.4711240402E+00    0.4784847947E+00    0.2764164591E-02    0.1382585097E+00    0.1765736299E+00
    0.3100000000E+04    0.4743359935E+00    0.4795551756E+00    0.2645193732E-02    0.1392136170E+00    0.1770642074E+00
    0.3300000000E+04    0.4771928943E+00    0.4804980355E+00    0.2538544970E-02    0.1400640507E+00    0.1775027014E+00
    0.3500000000E+04    0.4797502747E+00    0.4813346004E+00    0.2442372259E-02    0.1408261354E+00    0.1778974405E+00
    0.3700000000E+04    0.4820526874E+00    0.4820816414E+00    0.2355176649E-02    0.1415129728E+00    0.1782550408E+00
    0.3900000000E+04    0.4841362875E+00    0.4827525848E+00    0.2275729719E-02    0.1421351985E+00    0.1785808272E+00
    0.4100000000E+04    0.4860307186E+00    0.4833583063E+00    0.2203016049E-02    0.1427015363E+00    0.1788791360E+00
    0.4300000000E+04    0.4877605136E+00    0.4839077085E+00    0.2136189541E-02    0.1432192080E+00    0.1791535357E+00
    0.4500000000E+04    0.4893461489E+00    0.4844081490E+00    0.2074539902E-02    0.1436942438E+00    0.1794069913E+00
    0.4700000000E+04    0.4908048481E+00    0.4848657613E+00    0.2017466696E-02    0.1441317175E+00    0.1796419872E+00
    0.4900000000E+04    0.4921512024E+00    0.4852856992E+00    0.1964459058E-02    0.1445359293E+00    0.1798606221E+00
    0.1000000000E+04    0.3926758678E+00    0.4487700079E+00    0.5368155368E-02    0.1150938305E+00    0.1642799774E+00
    0.3000000000E+04    0.4727783876E+00    0.4790374651E+00    0.2703007370E-02    0.1387503199E+00    0.1768260313E+00
    0.5000000000E+04    0.4927862114E+00    0.4854829299E+00    0.1939340664E-02    0.1447267296E+00    0.1799643727E+00
    0.7000000000E+04    0.5018235979E+00    0.4882242114E+00    0.1571410434E-02    0.1474558881E+00    0.1815005234E+00
    0.9000000000E+04    0.5069587625E+00    0.4897119712E+00    0.1349521127E-02    0.1490234512E+00    0.1824505191E+00
    0.1100000000E+05    0.5102652373E+00    0.4906297367E+00    0.1198430296E-02    0.1500436470E+00    0.1831139072E+00
    0.1300000000E+05    0.5125696599E+00    0.4912424451E+00    0.1087492291E-02    0.1507622657E+00    0.1836129223E+00
    0.1500000000E+05    0.5142661324E+00    0.4916739039E+00    0.1001765453E-02    0.1512969215E+00    0.1840075556E+00
    0.1700000000E+05    0.5155662605E+00    0.4919895155E+00    0.9330363181E-03    0.1517109968E+00    0.1843310316E+00
    0.1900000000E+05    0.5165937723E+00    0.4922269752E+00    0.8763854444E-03    0.1520416869E+00    0.1846033980E+00
    0.2100000000E+05    0.5174258190E+00    0.4924094763E+00    0.8286702807E-03    0.1523122691E+00    0.1848375534E+00
    0.2300000000E+05    0.5181129930E+00    0.4925520344E+00    0.7877801426E-03    0.1525380629E+00    0.1850422211E+00
    0.2500000000E+05    0.5186898424E+00    0.4926647757E+00    0.7522393660E-03    0.1527295671E+00    0.1852235411E+00
    0.2700000000E+05    0.5191807594E+00    0.4927547616E+00    0.7209818325E-03    0.1528942210E+00    0.1853859785E+00
    0.2900000000E+05    0.5196034536E+00    0.4928270555E+00    0.6932159570E-03    0.1530374450E+00    0.1855328700E+00
    0.3100000000E+05    0.5199710918E+00    0.4928853754E+00    0.6683402450E-03    0.1531632836E+00    0.1856667672E+00
    0.3300000000E+05    0.5202936652E+00    0.4929325072E+00    0.6458885013E-03    0.1532748168E+00    0.1857896604E+00
    0.3500000000E+05    0.5205788918E+00    0.4929705756E+00    0.6254931444E-03    0.1533744322E+00    0.1859031286E+00
    0.3700000000E+05    0.5208328271E+00    0.4930012263E+00    0.6068599665E-03    0.1534640098E+00    0.1860084437E+00
    0.3900000000E+05    0.5210602885E+00    0.4930257511E+00    0.5897503533E-03    0.1535450505E+00    0.1861066434E+00
    0.4100000000E+05    0.5212651558E+00    0.4930451770E+00    0.5739684916E-03    0.1536187675E+00    0.1861985848E+00
    0.4300000000E+05    0.5214505885E+00    0.4930603285E+00    0.5593519961E-03    0.1536861521E+00    0.1862849829E+00
    0.4500000000E+05    0.5216191855E+00    0.4930718747E+00    0.5457649246E-03    0.1537480226E+00    0.1863664402E+00
    0.4700000000E+05    0.5217731037E+00    0.4930803631E+00    0.5330924959E-03    0.1538050606E+00    0.1864434682E+00
    0.4900000000E+05    0.5219141481E+00    0.4930862452E+00    0.5212370414E-03    0.1538578384E+00    0.1865165051E+00
    0.1000000000E+05    0.5087738641E+00    0.4902205949E+00    0.1267585187E-02    0.1495821505E+00    0.1828082452E+00
    0.3000000000E+05    0.5197934682E+00    0.4928577700E+00    0.6804486405E-03    0.1531023261E+00    0.1856013074E+00
    0.5000000000E+05    0.5219803277E+00    0.4930883287E+00    0.5155890493E-03    0.1538827841E+00    0.1865516469E+00
    0.7000000000E+05    0.5228967476E+00    0.4930575801E+00    0.4303207386E-03    0.1542440893E+00    0.1871143124E+00
    0.9000000000E+05    0.5233932003E+00    0.4929674788E+00    0.3762133984E-03    0.1544591428E+00    0.1875114756E+00
    0.1100000000E+06    0.5237008159E+00    0.4928631701E+00    0.3380344929E-03    0.1546049802E+00    0.1878175477E+00
    0.1300000000E+06    0.5239079473E+00    0.4927581668E+00    0.3092700140E-03    0.1547121214E+00    0.1880661807E+00
    0.1500000000E+06    0.5240555325E+00    0.4926569605E+00    0.2866091810E-03    0.1547952033E+00    0.1882753671E+00
    0.1700000000E+06    0.5241650788E+00    0.4925609594E+00    0.2681688235E-03    0.1548621783E+00    0.1884558254E+00
    0.1900000000E+06    0.5242489387E+00    0.4924704129E+00    0.2527889230E-03    0.1549177661E+00    0.1886144453E+00
    0.2100000000E+06    0.5243146958E+00    0.4923851226E+00    0.2397110203E-03    0.1549649594E+00    0.1887559127E+00
    0.2300000000E+06    0.5243672547E+00    0.4923047277E+00    0.2284156745E-03    0.1550057559E+00    0.1888835565E+00
    0.2500000000E+06    0.5244099219E+00    0.4922288245E+00    0.2185336810E-03    0.1550415450E+00    0.1889998254E+00
    0.2700000000E+06    0.5244450038E+00    0.4921570168E+00    0.2097945098E-03    0.1550733263E+00    0.1891065724E+00
    0.2900000000E+06    0.5244741560E+00    0.4920889365E+00    0.2019948323E-03    0.1551018393E+00    0.1892052329E+00
    0.3100000000E+06    0.5244985957E+00    0.4920242499E+00    0.1949784996E-03    0.1551276444E+00    0.1892969416E+00
    0.3300000000E+06    0.5245192369E+00    0.4919626578E+00    0.1886233560E-03    0.1551511749E+00    0.1893826104E+00
    0.3500000000E+06    0.5245367781E+00    0.4919038940E+00    0.1828322913E-03    0.1551727718E+00    0.1894629834E+00
    0.3700000000E+06    0.5245517617E+00    0.4918477217E+00    0.1775270108E-03    0.1551927077E+00    0.1895386752E+00
    0.3900000000E+06    0.5245646148E+00    0.4917939304E+00    0.1726435990E-03    0.1552112035E+00    0.1896101997E+00
    0.4100000000E+06    0.5245756779E+00    0.4917423324E+00    0.1681292978E-03    0.1552284404E+00    0.1896779908E+00
    0.4300000000E+06    0.5245852255E+00    0.4916927604E+00    0.1639401237E-03    0.1552445687E+00    0.1897424180E+00
    0.4500000000E+06    0.5245934812E+00    0.4916450648E+00    0.1600390793E-03    0.1552597141E+00    0.1898037986E+00
    0.4700000000E+06    0.5246006286E+00    0.4915991112E+00    0.1563947903E-03    0.1552739829E+00    0.1898624072E+00
    0.4900000000E+06    0.5246068199E+00    0.4915547787E+00    0.1529804535E-03    0.1552874657E+00    0.1899184828E+00
    0.1000000000E+06    0.5235634212E+00    0.4929159206E+00    0.3556493740E-03    0.1545382519E+00    0.1876732681E+00
    0.3000000000E+06    0.5244869019E+00    0.4920561885E+00    0.1983970583E-03    0.1551150508E+00    0.1892518948E+00
    0.5000000000E+06    0.5246095975E+00    0.4915331859E+00    0.1513521853E-03    0.1552939369E+00    0.1899456372E+00
    0.7000000000E+06    0.5246369669E+00    0.4911648779E+00    0.1266490955E-03    0.1553962238E+00    0.1903952824E+00
    0.9000000000E+06    0.5246383294E+00    0.4908806881E+00    0.1108695444E-03    0.1554670818E+00    0.1907284768E+00
    0.1100000000E+07    0.5246304251E+00    0.4906492415E+00    0.9969471078E-04    0.1555210524E+00    0.1909932720E+00
    0.1300000000E+07    0.5246188918E+00    0.4904539570E+00    0.9125638362E-04    0.1555645469E+00    0.1912130174E+00
    0.1500000000E+07    0.5246059930E+00    0.4902850170E+00    0.8459848131E-04    0.1556009314E+00    0.1914008352E+00
    0.1700000000E+07    0.5245927347E+00    0.4901361287E+00    0.7917469922E-04    0.1556321840E+00    0.1915648380E+00
    0.1900000000E+07    0.5245795882E+00    0.4900030170E+00    0.7464742947E-04    0.1556595626E+00    0.1917103924E+00
    0.2100000000E+07    0.5245667769E+00    0.4898826442E+00    0.7079540345E-04    0.1556839155E+00    0.1918412338E+00
    0.2300000000E+07    0.5245544019E+00    0.4897727745E+00    0.6746680358E-04    0.1557058412E+00    0.1919600665E+00
    0.2500000000E+07    0.5245425017E+00    0.4896717140E+00    0.6455356544E-04    0.1557257772E+00    0.1920689119E+00
    0.2700000000E+07    0.5245310823E+00    0.4895781488E+00    0.6197641358E-04    0.1557440529E+00    0.1921693202E+00
    0.2900000000E+07    0.5245201325E+00    0.4894910392E+00    0.5967570779E-04    0.1557609227E+00    0.1922625067E+00
    0.3100000000E+07    0.5245096326E+00    0.4894095479E+00    0.5760561004E-04    0.1557765866E+00    0.1923494415E+00
    0.3300000000E+07    0.5244995590E+00    0.4893329911E+00    0.5573023690E-04    0.1557912049E+00    0.1924309116E+00
    0.3500000000E+07    0.5244898871E+00    0.4892608027E+00    0.5402104562E-04    0.1558049082E+00    0.1925075641E+00
    0.3700000000E+07    0.5244805920E+00    0.4891925090E+00    0.5245501229E-04    0.1558178039E+00    0.1925799375E+00
    0.3900000000E+07    0.5244716501E+00    0.4891277095E+00    0.5101333343E-04    0.1558299817E+00    0.1926484848E+00
    0.4100000000E+07    0.5244630389E+00    0.4890660626E+00    0.4968048201E-04    0.1558415172E+00    0.1927135907E+00
    0.4300000000E+07    0.5244547374E+00    0.4890072744E+00    0.4844350922E-04    0.1558524746E+00    0.1927755846E+00
    0.4500000000E+07    0.5244467260E+00    0.4889510906E+00    0.4729151971E-04    0.1558629090E+00    0.1928347507E+00
    0.4700000000E+07    0.5244389869E+00    0.4888972892E+00    0.4621527160E-04    0.1558728680E+00    0.1928913360E+00
    0.4900000000E+07    0.5244315032E+00    0.4888456755E+00    0.4520686768E-04    0.1558823929E+00    0.1929455565E+00
    0.1000000000E+07    0.5246350609E+00    0.4907596246E+00    0.1048543367E-03    0.1554956741E+00    0.1908676285E+00
    0.3000000000E+07    0.5245148277E+00    0.4894496371E+00    0.5861427360E-04    0.1557688945E+00    0.1923067027E+00
    0.5000000000E+07    0.5244278523E+00    0.4888206346E+00    0.4472594667E-04    0.1558870041E+00    0.1929718403E+00
    0.7000000000E+07    0.5243651200E+00    0.4884019119E+00    0.3742820228E-04    0.1559632597E+00    0.1934094366E+00
    0.9000000000E+07    0.5243163115E+00    0.4880873309E+00    0.3276545449E-04    0.1560196704E+00    0.1937361694E+00
    0.1100000000E+08    0.5242764137E+00    0.4878351705E+00    0.2946297882E-04    0.1560644589E+00    0.1939970445E+00
    0.1300000000E+08    0.5242426877E+00    0.4876246613E+00    0.2696906306E-04    0.1561016054E+00    0.1942142298E+00
    0.1500000000E+08    0.5242134843E+00    0.4874439440E+00    0.2500127765E-04    0.1561333418E+00    0.1944002945E+00
    0.1700000000E+08    0.5241877354E+00    0.4872856026E+00    0.2339821331E-04    0.1561610458E+00    0.1945630587E+00
    0.1900000000E+08    0.5241647110E+00    0.4871446887E+00    0.2206010980E-04    0.1561856277E+00    0.1947077201E+00
    0.2100000000E+08    0.5241438899E+00    0.4870177345E+00    0.2092157879E-04    0.1562077206E+00    0.1948379102E+00
    0.2300000000E+08    0.5241248874E+00    0.4869022150E+00    0.1993775326E-04    0.1562277828E+00    0.1949562662E+00
    0.2500000000E+08    0.5241074112E+00    0.4867962346E+00    0.1907669532E-04    0.1562461564E+00    0.1950647641E+00
    0.2700000000E+08    0.5240912344E+00    0.4866983336E+00    0.1831497479E-04    0.1562631040E+00    0.1951649226E+00
