  Pressure (Pa) 22mC5-400 (mol/kg) 3mC6-400 (mol/kg) 33mC5-400 (mol/kg) 23mC5-400 (mol/kg) C7-400 (mol/kg)
    0.1000000000E+01    0.1594041600E-02    0.4702013186E-02    0.6429438964E-04    0.1865971742E-03    0.8478143097E-02
    0.3000000000E+01    0.4756582664E-02    0.1357924299E-01    0.1864025615E-03    0.5568042494E-03    0.2448911401E-01
    0.5000000000E+01    0.7885526038E-02    0.2181721804E-01    0.3006402640E-03    0.9230819013E-03    0.3935279064E-01
    0.7000000000E+01    0.1098141156E-01    0.2948250521E-01    0.4078170836E-03    0.1285493249E-02    0.5318845038E-01
    0.9000000000E+01    0.1404476753E-01    0.3663274175E-01    0.5086315604E-03    0.1644100063E-02    0.6609938281E-01
    0.1100000000E+02    0.1707611101E-01    0.4331808376E-01    0.6036895575E-03    0.1998962798E-02    0.7817548201E-01
    0.1300000000E+02    0.2007594811E-01    0.4958238175E-01    0.6935191208E-03    0.2350140631E-02    0.8949535026E-01
    0.1500000000E+02    0.2304477431E-01    0.5546414116E-01    0.7785825851E-03    0.2697691495E-02    0.1001280173E+00
    0.1700000000E+02    0.2598307469E-01    0.6099731259E-01    0.8592865002E-03    0.3041672107E-02    0.1101343550E+00
    0.1900000000E+02    0.2889132424E-01    0.6621194589E-01    0.9359898214E-03    0.3382138006E-02    0.1195682476E+00
    0.2100000000E+02    0.3176998812E-01    0.7113473458E-01    0.1009010705E-02    0.3719143577E-02    0.1284775673E+00
    0.2300000000E+02    0.3461952187E-01    0.7578947172E-01    0.1078632179E-02    0.4052742088E-02    0.1369049895E+00
    0.2500000000E+02    0.3744037171E-01    0.8019743333E-01    0.1145106898E-02    0.4382985711E-02    0.1448886801E+00
    0.2700000000E+02    0.4023297475E-01    0.8437770265E-01    0.1208661147E-02    0.4709925555E-02    0.1524628754E+00
    0.2900000000E+02    0.4299775922E-01    0.8834744545E-01    0.1269498240E-02    0.5033611692E-02    0.1596583758E+00
    0.3100000000E+02    0.4573514470E-01    0.9212214497E-01    0.1327801394E-02    0.5354093182E-02    0.1665029658E+00
    0.3300000000E+02    0.4844554235E-01    0.9571580304E-01    0.1383736199E-02    0.5671418098E-02    0.1730217750E+00
    0.3500000000E+02    0.5112935508E-01    0.9914111315E-01    0.1437452723E-02    0.5985633554E-02    0.1792375876E+00
    0.3700000000E+02    0.5378697781E-01    0.1024096097E+00    0.1489087325E-02    0.6296785726E-02    0.1851711099E+00
    0.3900000000E+02    0.5641879763E-01    0.1055317974E+00    0.1538764228E-02    0.6604919873E-02    0.1908412018E+00
    0.4100000000E+02    0.5902519399E-01    0.1085172636E+00    0.1586596868E-02    0.6910080366E-02    0.1962650786E+00
    0.4300000000E+02    0.6160653892E-01    0.1113747762E+00    0.1632689078E-02    0.7212310705E-02    0.2014584862E+00
    0.4500000000E+02    0.6416319718E-01    0.1141123694E+00    0.1677136114E-02    0.7511653540E-02    0.2064358545E+00
    0.4700000000E+02    0.6669552644E-01    0.1167374189E+00    0.1720025552E-02    0.7808150694E-02    0.2112104326E+00
    0.4900000000E+02    0.6920387747E-01    0.1192567082E+00    0.1761438079E-02    0.8101843181E-02    0.2157944068E+00
    0.1000000000E+02    0.1556440895E-01    0.4003064831E-01    0.5568454459E-03    0.1821995712E-02    0.7223663108E-01
    0.3000000000E+02    0.4436985094E-01    0.9025826794E-01    0.1298955823E-02    0.5194249990E-02    0.1631229056E+00
    0.5000000000E+02    0.7044916891E-01    0.1204786650E+00    0.1781614003E-02    0.8247650276E-02    0.2180184610E+00
    0.7000000000E+02    0.9417664007E-01    0.1406483377E+00    0.2122978201E-02    0.1102596001E-01    0.2547985796E+00
    0.9000000000E+02    0.1158607329E+00    0.1550587037E+00    0.2374998593E-02    0.1356524888E-01    0.2811778524E+00
    0.1100000000E+03    0.1357579637E+00    0.1658632004E+00    0.2565059651E-02    0.1589551262E-01    0.3010324842E+00
    0.1300000000E+03    0.1540833976E+00    0.1742611060E+00    0.2709548368E-02    0.1804190069E-01    0.3165239812E+00
    0.1500000000E+03    0.1710187050E+00    0.1809732327E+00    0.2819200808E-02    0.2002565804E-01    0.3289531769E+00
    0.1700000000E+03    0.1867184106E+00    0.1864588552E+00    0.2901524450E-02    0.2186485568E-01    0.3391499924E+00
    0.1900000000E+03    0.2013147908E+00    0.1910244386E+00    0.2962022534E-02    0.2357496331E-01    0.3476689405E+00
    0.2100000000E+03    0.2149217487E+00    0.1948822942E+00    0.3004870420E-02    0.2516930221E-01    0.3548946767E+00
    0.2300000000E+03    0.2276379060E+00    0.1981841469E+00    0.3033317746E-02    0.2665940687E-01    0.3611024495E+00
    0.2500000000E+03    0.2395490909E+00    0.2010412995E+00    0.3049942622E-02    0.2805531577E-01    0.3664944421E+00
    0.2700000000E+03    0.2507303552E+00    0.2035372476E+00    0.3056820630E-02    0.2936580726E-01    0.3712225254E+00
    0.2900000000E+03    0.2612476214E+00    0.2057358492E+00    0.3055641989E-02    0.3059859211E-01    0.3754030041E+00
    0.3100000000E+03    0.2711590352E+00    0.2076867736E+00    0.3047795617E-02    0.3176047170E-01    0.3791264609E+00
    0.3300000000E+03    0.2805160856E+00    0.2094292328E+00    0.3034431170E-02    0.3285746891E-01    0.3824645016E+00
    0.3500000000E+03    0.2893645354E+00    0.2109945941E+00    0.3016505890E-02    0.3389493701E-01    0.3854744821E+00
    0.3700000000E+03    0.2977452000E+00    0.2124082466E+00    0.2994820672E-02    0.3487765065E-01    0.3882028887E+00
    0.3900000000E+03    0.3056946022E+00    0.2136909598E+00    0.2970048273E-02    0.3580988244E-01    0.3906877992E+00
    0.4100000000E+03    0.3132455252E+00    0.2148598876E+00    0.2942755657E-02    0.3669546767E-01    0.3929607044E+00
    0.4300000000E+03    0.3204274820E+00    0.2159293212E+00    0.2913421911E-02    0.3753785914E-01    0.3950478747E+00
    0.4500000000E+03    0.3272671159E+00    0.2169112623E+00    0.2882452729E-02    0.3834017401E-01    0.3969714003E+00
    0.4700000000E+03    0.3337885431E+00    0.2178158628E+00    0.2850192228E-02    0.3910523387E-01    0.3987499919E+00
    0.4900000000E+03    0.3400136473E+00    0.2186517682E+00    0.2816932653E-02    0.3983559919E-01    0.4003996041E+00
    0.1000000000E+03    0.1260183976E+00    0.1608217930E+00    0.2476575828E-02    0.1475483569E-01    0.2917587940E+00
    0.3000000000E+03    0.2662756975E+00    0.2067396102E+00    0.3052475418E-02    0.3118800176E-01    0.3773170033E+00
    0.5000000000E+03    0.3430213697E+00    0.2190463172E+00    0.2800007359E-02    0.4018850753E-01    0.4011803979E+00
    0.7000000000E+03    0.3916104960E+00    0.2246717373E+00    0.2452328831E-02    0.4589228937E-01    0.4125088112E+00
    0.9000000000E+03    0.4251828090E+00    0.2278570808E+00    0.2137116442E-02    0.4983697353E-01    0.4191671299E+00
    0.1100000000E+04    0.4497791020E+00    0.2298866992E+00    0.1873492372E-02    0.5272968880E-01    0.4235706693E+00
    0.1300000000E+04    0.4685761180E+00    0.2312808084E+00    0.1657037278E-02    0.5494242060E-01    0.4267108419E+00
    0.1500000000E+04    0.4834076044E+00    0.2322895502E+00    0.1479240756E-02    0.5668996272E-01    0.4290705549E+00
    0.1700000000E+04    0.4954073451E+00    0.2330478238E+00    0.1332177322E-02    0.5810516174E-01    0.4309135530E+00
    0.1900000000E+04    0.5053144378E+00    0.2336346440E+00    0.1209411898E-02    0.5927464576E-01    0.4323962618E+00
    0.2100000000E+04    0.5136314158E+00    0.2340992781E+00    0.1105933729E-02    0.6025733423E-01    0.4336174299E+00
    0.2300000000E+04    0.5207119191E+00    0.2344739889E+00    0.1017885494E-02    0.6109470262E-01    0.4346425246E+00
    0.2500000000E+04    0.5268120404E+00    0.2347807561E+00    0.9422957822E-03    0.6181679529E-01    0.4355166972E+00
    0.2700000000E+04    0.5321217845E+00    0.2350350495E+00    0.8768619884E-03    0.6244591023E-01    0.4362721177E+00
    0.2900000000E+04    0.5367850880E+00    0.2352480590E+00    0.8197850341E-03    0.6299894441E-01    0.4369323421E+00
    0.3100000000E+04    0.5409129775E+00    0.2354280684E+00    0.7696463905E-03    0.6348893543E-01    0.4375150241E+00
    0.3300000000E+04    0.5445924607E+00    0.2355813344E+00    0.7253171442E-03    0.6392610364E-01    0.4380336618E+00
    0.3500000000E+04    0.5478926849E+00    0.2357126659E+00    0.6858906402E-03    0.6431857391E-01    0.4384987578E+00
    0.3700000000E+04    0.5508692924E+00    0.2358258154E+00    0.6506323156E-03    0.6467288633E-01    0.4389186099E+00
    0.3900000000E+04    0.5535675621E+00    0.2359237517E+00    0.6189420554E-03    0.6499436450E-01    0.4392998635E+00
    0.4100000000E+04    0.5560247124E+00    0.2360088514E+00    0.5903257117E-03    0.6528738570E-01    0.4396479058E+00
    0.4300000000E+04    0.5582716175E+00    0.2360830382E+00    0.5643733660E-03    0.6555558221E-01    0.4399671516E+00
    0.4500000000E+04    0.5603341027E+00    0.2361478845E+00    0.5407425979E-03    0.6580199322E-01    0.4402612545E+00
    0.4700000000E+04    0.5622339350E+00    0.2362046866E+00    0.5191454940E-03    0.6602918116E-01    0.4405332652E+00
    0.4900000000E+04    0.5639895896E+00    0.2362545221E+00    0.4993384818E-03    0.6623932159E-01    0.4407857517E+00
    0.1000000000E+04    0.4383615828E+00    0.2289744845E+00    0.1998929540E-02    0.5138656574E-01    0.4215712261E+00
    0.3000000000E+04    0.5389100414E+00    0.2353417581E+00    0.7939248816E-03    0.6325112521E-01    0.4372324507E+00
    0.5000000000E+04    0.5648183738E+00    0.2362771153E+00    0.4900402588E-03    0.6633859072E-01    0.4409053671E+00
    0.7000000000E+04    0.5766682653E+00    0.2365204724E+00    0.3610547497E-03    0.6776412168E-01    0.4426611010E+00
    0.9000000000E+04    0.5834535742E+00    0.2365670093E+00    0.2907653977E-03    0.6858800010E-01    0.4437322254E+00
    0.1100000000E+05    0.5878472040E+00    0.2365398989E+00    0.2466121154E-03    0.6912639793E-01    0.4444735296E+00
    0.1300000000E+05    0.5909231801E+00    0.2364817429E+00    0.2162345453E-03    0.6950677313E-01    0.4450276429E+00
    0.1500000000E+05    0.5931963953E+00    0.2364101565E+00    0.1939788166E-03    0.6979042504E-01    0.4454638167E+00
    0.1700000000E+05    0.5949444832E+00    0.2363332556E+00    0.1769094151E-03    0.7001051130E-01    0.4458200867E+00
    0.1900000000E+05    0.5963303325E+00    0.2362550339E+00    0.1633554596E-03    0.7018654670E-01    0.4461192506E+00
    0.2100000000E+05    0.5974558026E+00    0.2361775262E+00    0.1522971314E-03    0.7033077250E-01    0.4463758956E+00
    0.2300000000E+05    0.5983878517E+00    0.2361017729E+00    0.1430769113E-03    0.7045126065E-01    0.4465998410E+00
    0.2500000000E+05    0.5991723026E+00    0.2360282863E+00    0.1352517185E-03    0.7055355224E-01    0.4467979706E+00
    0.2700000000E+05    0.5998415699E+00    0.2359572895E+00    0.1285119223E-03    0.7064157909E-01    0.4469752731E+00
    0.2900000000E+05    0.6004192292E+00    0.2358888441E+00    0.1226344648E-03    0.7071820962E-01    0.4471354654E+00
    0.3100000000E+05    0.6009228363E+00    0.2358229218E+00    0.1174544527E-03    0.7078558642E-01    0.4472813821E+00
    0.3300000000E+05    0.6013657337E+00    0.2357594449E+00    0.1128472575E-03    0.7084534277E-01    0.4474152291E+00
    0.3500000000E+05    0.6017582418E+00    0.2356983102E+00    0.1087168526E-03    0.7089874591E-01    0.4475387529E+00
    0.3700000000E+05    0.6021084690E+00    0.2356394025E+00    0.1049879926E-03    0.7094679445E-01    0.4476533574E+00
    0.3900000000E+05    0.6024228739E+00    0.2355826034E+00    0.1016008325E-03    0.7099028626E-01    0.4477601864E+00
    0.4100000000E+05    0.6027066643E+00    0.2355277958E+00    0.9850714255E-04    0.7102986660E-01    0.4478601830E+00
    0.4300000000E+05    0.6029640862E+00    0.2354748664E+00    0.9566759184E-04    0.7106606315E-01    0.4479541329E+00
    0.4500000000E+05    0.6031986357E+00    0.2354237078E+00    0.9304976378E-04    0.7109931171E-01    0.4480426972E+00
    0.4700000000E+05    0.6034132177E+00    0.2353742184E+00    0.9062668263E-04    0.7112997545E-01    0.4481264368E+00
    0.4900000000E+05    0.6036102656E+00    0.2353263033E+00    0.8837570366E-04    0.7115835952E-01    0.4482058314E+00
    0.1000000000E+05    0.5858628012E+00    0.2365590966E+00    0.2664311067E-03    0.6888262191E-01    0.4441326405E+00
    0.3000000000E+05    0.6006793729E+00    0.2358555716E+00    0.1199658512E-03    0.7075294268E-01    0.4472100579E+00
    0.5000000000E+05    0.6037028688E+00    0.2353029081E+00    0.8730864762E-04    0.7117177898E-01    0.4482440308E+00
    0.7000000000E+05    0.6049976345E+00    0.2348992324E+00    0.7159351470E-04    0.7136641852E-01    0.4488556901E+00
    0.9000000000E+05    0.6057137315E+00    0.2345835372E+00    0.6197166969E-04    0.7148253765E-01    0.4492877423E+00
    0.1100000000E+06    0.6061667168E+00    0.2343247714E+00    0.5532590347E-04    0.7156140833E-01    0.4496210305E+00
    0.1300000000E+06    0.6064782012E+00    0.2341056730E+00    0.5038955432E-04    0.7161941908E-01    0.4498920367E+00
    0.1500000000E+06    0.6067049582E+00    0.2339157495E+00    0.4653989696E-04    0.7166444307E-01    0.4501202504E+00
    0.1700000000E+06    0.6068770302E+00    0.2337481691E+00    0.4343094600E-04    0.7170076350E-01    0.4503172799E+00
    0.1900000000E+06    0.6070117934E+00    0.2335982411E+00    0.4085327135E-04    0.7173092527E-01    0.4504905881E+00
    0.2100000000E+06    0.6071199900E+00    0.2334626088E+00    0.3867178116E-04    0.7175654353E-01    0.4506452523E+00
    0.2300000000E+06    0.6072086151E+00    0.2333387881E+00    0.3679494861E-04    0.7177869727E-01    0.4507848809E+00
    0.2500000000E+06    0.6072824170E+00    0.2332248898E+00    0.3515828886E-04    0.7179813753E-01    0.4509121297E+00
    0.2700000000E+06    0.6073447307E+00    0.2331194439E+00    0.3371489592E-04    0.7181540491E-01    0.4510290093E+00
    0.2900000000E+06    0.6073979664E+00    0.2330212842E+00    0.3242973268E-04    0.7183089961E-01    0.4511370779E+00
    0.3100000000E+06    0.6074439086E+00    0.2329294701E+00    0.3127603392E-04    0.7184492498E-01    0.4512375679E+00
    0.3300000000E+06    0.6074839064E+00    0.2328432320E+00    0.3023295678E-04    0.7185771574E-01    0.4513314702E+00
    0.3500000000E+06    0.6075189979E+00    0.2327619321E+00    0.2928399797E-04    0.7186945666E-01    0.4514195936E+00
    0.3700000000E+06    0.6075499951E+00    0.2326850362E+00    0.2841589870E-04    0.7188029553E-01    0.4515026069E+00
    0.3900000000E+06    0.6075775419E+00    0.2326120922E+00    0.2761786913E-04    0.7189035212E-01    0.4515810691E+00
    0.4100000000E+06    0.6076021552E+00    0.2325427141E+00    0.2688102789E-04    0.7189972472E-01    0.4516554525E+00
    0.4300000000E+06    0.6076242548E+00    0.2324765699E+00    0.2619798946E-04    0.7190849484E-01    0.4517261595E+00
    0.4500000000E+06    0.6076441849E+00    0.2324133719E+00    0.2556255558E-04    0.7191673075E-01    0.4517935357E+00
    0.4700000000E+06    0.6076622306E+00    0.2323528691E+00    0.2496948094E-04    0.7192449014E-01    0.4518578805E+00
    0.4900000000E+06    0.6076786297E+00    0.2322948412E+00    0.2441429298E-04    0.7193182212E-01    0.4519194543E+00
    0.1000000000E+06    0.6059632343E+00    0.2344483298E+00    0.5837825110E-04    0.7152530786E-01    0.4494638799E+00
    0.3000000000E+06    0.6074217564E+00    0.2329746355E+00    0.3183787027E-04    0.7183807994E-01    0.4511882034E+00
    0.5000000000E+06    0.6076862756E+00    0.2322666938E+00    0.2414968497E-04    0.7193534125E-01    0.4519492747E+00
    0.7000000000E+06    0.6077878928E+00    0.2317965860E+00    0.2014717663E-04    0.7199096278E-01    0.4524433509E+00
    0.9000000000E+06    0.6078377462E+00    0.2314441653E+00    0.1760173031E-04    0.7202948316E-01    0.4528097485E+00
    0.1100000000E+07    0.6078652308E+00    0.2311621855E+00    0.1580414495E-04    0.7205881241E-01    0.4531010447E+00
    0.1300000000E+07    0.6078813004E+00    0.2309271436E+00    0.1444948332E-04    0.7208243984E-01    0.4533428303E+00
    0.1500000000E+07    0.6078909020E+00    0.2307256323E+00    0.1338229542E-04    0.7210219797E-01    0.4535495036E+00
    0.1700000000E+07    0.6078965664E+00    0.2305492760E+00    0.1251400351E-04    0.7211916378E-01    0.4537299740E+00
    0.1900000000E+07    0.6078997078E+00    0.2303924912E+00    0.1178998354E-04    0.7213402215E-01    0.4538901392E+00
    0.2100000000E+07    0.6079011697E+00    0.2302513685E+00    0.1117449507E-04    0.7214723489E-01    0.4540341060E+00
    0.2300000000E+07    0.6079014812E+00    0.2301230640E+00    0.1064304966E-04    0.7215912775E-01    0.4541648494E+00
    0.2500000000E+07    0.6079009879E+00    0.2300054441E+00    0.1017823667E-04    0.7216993888E-01    0.4542845934E+00
    0.2700000000E+07    0.6078999230E+00    0.2298968669E+00    0.9767296565E-05    0.7217984761E-01    0.4543950444E+00
    0.2900000000E+07    0.6078984478E+00    0.2297960423E+00    0.9400638556E-05    0.7218899223E-01    0.4544975402E+00
    0.3100000000E+07    0.6078966767E+00    0.2297019378E+00    0.9070897101E-05    0.7219748163E-01    0.4545931491E+00
    0.3300000000E+07    0.6078946922E+00    0.2296137141E+00    0.8772310228E-05    0.7220540305E-01    0.4546827378E+00
    0.3500000000E+07    0.6078925546E+00    0.2295306802E+00    0.8500297565E-05    0.7221282743E-01    0.4547670189E+00
    0.3700000000E+07    0.6078903087E+00    0.2294522599E+00    0.8251166480E-05    0.7221981325E-01    0.4548465858E+00
    0.3900000000E+07    0.6078879881E+00    0.2293779679E+00    0.8021902793E-05    0.7222640926E-01    0.4549219375E+00
    0.4100000000E+07    0.6078856183E+00    0.2293073918E+00    0.7810018743E-05    0.7223265655E-01    0.4549934978E+00
    0.4300000000E+07    0.6078832186E+00    0.2292401780E+00    0.7613440578E-05    0.7223859003E-01    0.4550616296E+00
    0.4500000000E+07    0.6078808038E+00    0.2291760209E+00    0.7430424131E-05    0.7224423963E-01    0.4551266462E+00
    0.4700000000E+07    0.6078783854E+00    0.2291146549E+00    0.7259490504E-05    0.7224963122E-01    0.4551888196E+00
    0.4900000000E+07    0.6078759721E+00    0.2290558475E+00    0.7099376443E-05    0.7225478728E-01    0.4552483881E+00
    0.1000000000E+07    0.6078533871E+00    0.2312961689E+00    0.1663360886E-04    0.7204502247E-01    0.4529628169E+00
    0.3000000000E+07    0.6078975935E+00    0.2297482064E+00    0.9231545259E-05    0.7219331295E-01    0.4545461473E+00
    0.5000000000E+07    0.6078747696E+00    0.2290273385E+00    0.7023031234E-05    0.7225728323E-01    0.4552772618E+00
    0.7000000000E+07    0.6078519732E+00    0.2285525886E+00    0.5865798946E-05    0.7229854155E-01    0.4557577239E+00
    0.9000000000E+07    0.6078321197E+00    0.2281981100E+00    0.5127755229E-05    0.7232904251E-01    0.4561161123E+00
    0.1100000000E+08    0.6078149120E+00    0.2279151616E+00    0.4605731428E-05    0.7235324792E-01    0.4564020202E+00
    0.1300000000E+08    0.6077998293E+00    0.2276796901E+00    0.4211943830E-05    0.7237331610E-01    0.4566398691E+00
    0.1500000000E+08    0.6077864409E+00    0.2274780432E+00    0.3901511980E-05    0.7239045656E-01    0.4568435017E+00
    0.1700000000E+08    0.6077744203E+00    0.2273017223E+00    0.3648812839E-05    0.7240541558E-01    0.4570215274E+00
    0.1900000000E+08    0.6077635212E+00    0.2271450762E+00    0.3438023466E-05    0.7241868617E-01    0.4571796670E+00
    0.2100000000E+08    0.6077535561E+00    0.2270041562E+00    0.3258780299E-05    0.7243061107E-01    0.4573219160E+00
    0.2300000000E+08    0.6077443796E+00    0.2268760945E+00    0.3103976854E-05    0.7244143822E-01    0.4574511751E+00
    0.2500000000E+08    0.6077358771E+00    0.2267587421E+00    0.2968557418E-05    0.7245135280E-01    0.4575696171E+00
    0.2700000000E+08    0.6077279571E+00    0.2266504474E+00    0.2848814969E-05    0.7246049676E-01    0.4576789116E+00
