  Pressure (Pa) 22mC5-400 (mol/kg) 3mC6-400 (mol/kg) 33mC5-400 (mol/kg) 23mC5-400 (mol/kg) C7-400 (mol/kg)
    0.1000000000E+01    0.1592992853E-02    0.5254347309E-03    0.4519683444E-03    0.3729489800E-03    0.8526403271E-02
    0.3000000000E+01    0.4747276831E-02    0.1534015939E-02    0.1320736502E-02    0.1111431266E-02    0.2489623645E-01
    0.5000000000E+01    0.7860038287E-02    0.2489909821E-02    0.2145566757E-02    0.1840200554E-02    0.4041505375E-01
    0.7000000000E+01    0.1093215065E-01    0.3397155562E-02    0.2929686752E-02    0.2559461110E-02    0.5514799301E-01
    0.9000000000E+01    0.1396446267E-01    0.4259389340E-02    0.3676003355E-02    0.3269411428E-02    0.6915369808E-01
    0.1100000000E+02    0.1695779927E-01    0.5079893367E-02    0.4387142047E-02    0.3970244428E-02    0.8248510876E-01
    0.1300000000E+02    0.1991296235E-01    0.5861637952E-02    0.5065480623E-02    0.4662147654E-02    0.9519013823E-01
    0.1500000000E+02    0.2283073165E-01    0.6607317695E-02    0.5713178166E-02    0.5345303458E-02    0.1073122561E+00
    0.1700000000E+02    0.2571186543E-01    0.7319382763E-02    0.6332200037E-02    0.6019889176E-02    0.1188909923E+00
    0.1900000000E+02    0.2855710124E-01    0.8000065998E-02    0.6924339501E-02    0.6686077302E-02    0.1299623734E+00
    0.2100000000E+02    0.3136715665E-01    0.8651406499E-02    0.7491236517E-02    0.7344035649E-02    0.1405593032E+00
    0.2300000000E+02    0.3414272984E-01    0.9275270195E-02    0.8034394107E-02    0.7993927509E-02    0.1507118936E+00
    0.2500000000E+02    0.3688450034E-01    0.9873367855E-02    0.8555192659E-02    0.8635911800E-02    0.1604477549E+00
    0.2700000000E+02    0.3959312958E-01    0.1044727089E-01    0.9054902474E-02    0.9270143216E-02    0.1697922507E+00
    0.2900000000E+02    0.4226926151E-01    0.1099842528E-01    0.9534694784E-02    0.9896772361E-02    0.1787687219E+00
    0.3100000000E+02    0.4491352320E-01    0.1152816382E-01    0.9995651472E-02    0.1051594589E-01    0.1873986845E+00
    0.3300000000E+02    0.4752652534E-01    0.1203771703E-01    0.1043877366E-01    0.1112780663E-01    0.1957020049E+00
    0.3500000000E+02    0.5010886280E-01    0.1252822275E-01    0.1086498931E-01    0.1173249371E-01    0.2036970549E+00
    0.3700000000E+02    0.5266111513E-01    0.1300073472E-01    0.1127515999E-01    0.1233014266E-01    0.2114008500E+00
    0.3900000000E+02    0.5518384707E-01    0.1345623022E-01    0.1167008689E-01    0.1292088558E-01    0.2188291724E+00
    0.4100000000E+02    0.5767760898E-01    0.1389561688E-01    0.1205051616E-01    0.1350485118E-01    0.2259966807E+00
    0.4300000000E+02    0.6014293732E-01    0.1431973879E-01    0.1241714375E-01    0.1408216493E-01    0.2329170086E+00
    0.4500000000E+02    0.6258035510E-01    0.1472938196E-01    0.1277061969E-01    0.1465294914E-01    0.2396028526E+00
    0.4700000000E+02    0.6499037226E-01    0.1512527922E-01    0.1311155192E-01    0.1521732309E-01    0.2460660515E+00
    0.4900000000E+02    0.6737348612E-01    0.1550811468E-01    0.1344050980E-01    0.1577540309E-01    0.2523176578E+00
    0.1000000000E+02    0.1546595225E-01    0.4674665068E-02    0.4035815883E-02    0.3620955747E-02    0.7590058509E-01
    0.3000000000E+02    0.4359533759E-01    0.1126589235E-01    0.9767463212E-02    0.1020728206E-01    0.1831257384E+00
    0.5000000000E+02    0.6855510635E-01    0.1569483567E-01    0.1360066651E-01    0.1605211842E-01    0.2553673685E+00
    0.7000000000E+02    0.9088717000E-01    0.1887849237E-01    0.1628873812E-01    0.2128220699E-01    0.3074343534E+00
    0.9000000000E+02    0.1110142451E+00    0.2127901942E-01    0.1822426976E-01    0.2599641601E-01    0.3467969475E+00
    0.1100000000E+03    0.1292709587E+00    0.2315474352E-01    0.1963595242E-01    0.3027301317E-01    0.3776344642E+00
    0.1300000000E+03    0.1459257270E+00    0.2466143924E-01    0.2066801715E-01    0.3417478180E-01    0.4024693434E+00
    0.1500000000E+03    0.1611964391E+00    0.2589866277E-01    0.2141690040E-01    0.3775268833E-01    0.4229151286E+00
    0.1700000000E+03    0.1752618927E+00    0.2693303770E-01    0.2194998204E-01    0.4104855664E-01    0.4400525772E+00
    0.1900000000E+03    0.1882702622E+00    0.2781084687E-01    0.2231595969E-01    0.4409704827E-01    0.4546331515E+00
    0.2100000000E+03    0.2003454571E+00    0.2856525397E-01    0.2255097370E-01    0.4692714949E-01    0.4671957872E+00
    0.2300000000E+03    0.2115919583E+00    0.2922065043E-01    0.2268241744E-01    0.4956330232E-01    0.4781372166E+00
    0.2500000000E+03    0.2220985399E+00    0.2979538012E-01    0.2273141201E-01    0.5202627495E-01    0.4877560717E+00
    0.2700000000E+03    0.2319411642E+00    0.3030350705E-01    0.2271447204E-01    0.5433383888E-01    0.4962815134E+00
    0.2900000000E+03    0.2411852570E+00    0.3075599673E-01    0.2264466109E-01    0.5650130099E-01    0.5038923728E+00
    0.3100000000E+03    0.2498875115E+00    0.3116152635E-01    0.2253241352E-01    0.5854192547E-01    0.5107302870E+00
    0.3300000000E+03    0.2580973319E+00    0.3152705308E-01    0.2238613197E-01    0.6046727147E-01    0.5169089174E+00
    0.3500000000E+03    0.2658579968E+00    0.3185822088E-01    0.2221262969E-01    0.6228746526E-01    0.5225205524E+00
    0.3700000000E+03    0.2732076055E+00    0.3215965693E-01    0.2201746338E-01    0.6401142146E-01    0.5276409206E+00
    0.3900000000E+03    0.2801798512E+00    0.3243519116E-01    0.2180518712E-01    0.6564702405E-01    0.5323327573E+00
    0.4100000000E+03    0.2868046595E+00    0.3268802115E-01    0.2157954848E-01    0.6720127550E-01    0.5366484857E+00
    0.4300000000E+03    0.2931087156E+00    0.3292083769E-01    0.2134364164E-01    0.6868042036E-01    0.5406322590E+00
    0.4500000000E+03    0.2991159062E+00    0.3313592157E-01    0.2110002803E-01    0.7009004836E-01    0.5443215349E+00
    0.4700000000E+03    0.3048476881E+00    0.3333521893E-01    0.2085083235E-01    0.7143518083E-01    0.5477483030E+00
    0.4900000000E+03    0.3103234003E+00    0.3352040057E-01    0.2059781939E-01    0.7272034359E-01    0.5509400506E+00
    0.1000000000E+03    0.1203582777E+00    0.2227104389E-01    0.1898515113E-01    0.2818517793E-01    0.3630961783E+00
    0.3000000000E+03    0.2456008703E+00    0.3096416182E-01    0.2259327491E-01    0.5753670899E-01    0.5074002763E+00
    0.5000000000E+03    0.3129707603E+00    0.3360815664E-01    0.2047035003E-01    0.7334173053E-01    0.5524553429E+00
    0.7000000000E+03    0.3559484409E+00    0.3488663696E-01    0.1796573513E-01    0.8343417515E-01    0.5747838328E+00
    0.9000000000E+03    0.3859468334E+00    0.3563781949E-01    0.1579273679E-01    0.9048536480E-01    0.5882213742E+00
    0.1100000000E+04    0.4081085934E+00    0.3613019159E-01    0.1400813490E-01    0.9569939433E-01    0.5972402887E+00
    0.1300000000E+04    0.4251466948E+00    0.3647645408E-01    0.1255360229E-01    0.9971168834E-01    0.6037342288E+00
    0.1500000000E+04    0.4386438870E+00    0.3673223385E-01    0.1136103212E-01    0.1028930771E+00    0.6086457366E+00
    0.1700000000E+04    0.4495906289E+00    0.3692815651E-01    0.1037328844E-01    0.1054756967E+00    0.6124980023E+00
    0.1900000000E+04    0.4586398951E+00    0.3708247066E-01    0.9546038981E-02    0.1076126363E+00    0.6156052961E+00
    0.2100000000E+04    0.4662400121E+00    0.3720672321E-01    0.8845598494E-02    0.1094090393E+00    0.6181680613E+00
    0.2300000000E+04    0.4727090511E+00    0.3730857416E-01    0.8246408939E-02    0.1109395252E+00    0.6203203188E+00
    0.2500000000E+04    0.4782788825E+00    0.3739330283E-01    0.7728957361E-02    0.1122585080E+00    0.6221551609E+00
    0.2700000000E+04    0.4831224611E+00    0.3746466435E-01    0.7278206079E-02    0.1134065886E+00    0.6237393190E+00
    0.2900000000E+04    0.4873713648E+00    0.3752540137E-01    0.6882444268E-02    0.1144146645E+00    0.6251219100E+00
    0.3100000000E+04    0.4911274243E+00    0.3757756275E-01    0.6532454197E-02    0.1153066553E+00    0.6263399095E+00
    0.3300000000E+04    0.4944706457E+00    0.3762270915E-01    0.6220904600E-02    0.1161013601E+00    0.6274216998E+00
    0.3500000000E+04    0.4974647347E+00    0.3766204969E-01    0.5941906344E-02    0.1168137526E+00    0.6283894390E+00
    0.3700000000E+04    0.5001610270E+00    0.3769653519E-01    0.5690684116E-02    0.1174559028E+00    0.6292606857E+00
    0.3900000000E+04    0.5026013380E+00    0.3772692327E-01    0.5463331470E-02    0.1180376453E+00    0.6300495384E+00
    0.4100000000E+04    0.5048200609E+00    0.3775382482E-01    0.5256626248E-02    0.1185670716E+00    0.6307674521E+00
    0.4300000000E+04    0.5068457358E+00    0.3777773761E-01    0.5067890134E-02    0.1190508983E+00    0.6314238325E+00
    0.4500000000E+04    0.5087022378E+00    0.3779907115E-01    0.4894880753E-02    0.1194947459E+00    0.6320264769E+00
    0.4700000000E+04    0.5104096879E+00    0.3781816526E-01    0.4735708018E-02    0.1199033527E+00    0.6325819059E+00
    0.4900000000E+04    0.5119851597E+00    0.3783530419E-01    0.4588768710E-02    0.1202807407E+00    0.6330956153E+00
    0.1000000000E+04    0.3978017070E+00    0.3590735556E-01    0.1485478435E-01    0.9327387770E-01    0.5931322605E+00
    0.3000000000E+04    0.4893055623E+00    0.3755244689E-01    0.6702224314E-02    0.1148738929E+00    0.6257495406E+00
    0.5000000000E+04    0.5127280445E+00    0.3784321680E-01    0.4519451100E-02    0.1204588210E+00    0.6333383113E+00
    0.7000000000E+04    0.5232805486E+00    0.3794099080E-01    0.3529775329E-02    0.1230000306E+00    0.6368353288E+00
    0.9000000000E+04    0.5292509182E+00    0.3797880542E-01    0.2959654516E-02    0.1244520698E+00    0.6388824993E+00
    0.1100000000E+05    0.5330808249E+00    0.3799185470E-01    0.2584691896E-02    0.1253927665E+00    0.6402417924E+00
    0.1300000000E+05    0.5357420569E+00    0.3799304316E-01    0.2316690483E-02    0.1260528771E+00    0.6412178054E+00
    0.1500000000E+05    0.5376965777E+00    0.3798804942E-01    0.2113971603E-02    0.1265424662E+00    0.6419570797E+00
    0.1700000000E+05    0.5391916843E+00    0.3797968217E-01    0.1954236576E-02    0.1269206506E+00    0.6425392109E+00
    0.1900000000E+05    0.5403715673E+00    0.3796944675E-01    0.1824439744E-02    0.1272220149E+00    0.6430113248E+00
    0.2100000000E+05    0.5413259091E+00    0.3795819745E-01    0.1716416356E-02    0.1274681412E+00    0.6434031866E+00
    0.2300000000E+05    0.5421133865E+00    0.3794643937E-01    0.1624780083E-02    0.1276731972E+00    0.6437345664E+00
    0.2500000000E+05    0.5427739879E+00    0.3793447977E-01    0.1545824219E-02    0.1278468707E+00    0.6440191374E+00
    0.2700000000E+05    0.5433358963E+00    0.3792250894E-01    0.1476908093E-02    0.1279960118E+00    0.6442666736E+00
    0.2900000000E+05    0.5438195407E+00    0.3791064565E-01    0.1416095406E-02    0.1281256026E+00    0.6444843585E+00
    0.3100000000E+05    0.5442400884E+00    0.3789896369E-01    0.1361931250E-02    0.1282393544E+00    0.6446775965E+00
    0.3300000000E+05    0.5446090346E+00    0.3788750802E-01    0.1313299324E-02    0.1283400891E+00    0.6448505367E+00
    0.3500000000E+05    0.5449352484E+00    0.3787630478E-01    0.1269327468E-02    0.1284299912E+00    0.6450064205E+00
    0.3700000000E+05    0.5452256818E+00    0.3786536771E-01    0.1229323398E-02    0.1285107788E+00    0.6451478192E+00
    0.3900000000E+05    0.5454858602E+00    0.3785470237E-01    0.1192729888E-02    0.1285838217E+00    0.6452768009E+00
    0.4100000000E+05    0.5457202300E+00    0.3784430882E-01    0.1159092831E-02    0.1286502261E+00    0.6453950485E+00
    0.4300000000E+05    0.5459324095E+00    0.3783418357E-01    0.1128038037E-02    0.1287108950E+00    0.6455039470E+00
    0.4500000000E+05    0.5461253729E+00    0.3782432077E-01    0.1099254091E-02    0.1287665730E+00    0.6456046470E+00
    0.4700000000E+05    0.5463015871E+00    0.3781471311E-01    0.1072479480E-02    0.1288178800E+00    0.6456981127E+00
    0.4900000000E+05    0.5464631154E+00    0.3780535239E-01    0.1047492801E-02    0.1288653359E+00    0.6457851593E+00
    0.1000000000E+05    0.5313549352E+00    0.3798736235E-01    0.2754918121E-02    0.1249677136E+00    0.6396235942E+00
    0.3000000000E+05    0.5440369114E+00    0.3790477866E-01    0.1388258678E-02    0.1281842646E+00    0.6445837494E+00
    0.5000000000E+05    0.5465389266E+00    0.3780076194E-01    0.1035609821E-02    0.1288877598E+00    0.6458264962E+00
    0.7000000000E+05    0.5475909301E+00    0.3771981805E-01    0.8577783601E-03    0.1292120961E+00    0.6464407556E+00
    0.9000000000E+05    0.5481641219E+00    0.3765471750E-01    0.7463703727E-03    0.1294047682E+00    0.6468223063E+00
    0.1100000000E+06    0.5485217578E+00    0.3760047568E-01    0.6683792490E-03    0.1295352820E+00    0.6470889394E+00
    0.1300000000E+06    0.5487644355E+00    0.3755404383E-01    0.6099405452E-03    0.1296310966E+00    0.6472891906E+00
    0.1500000000E+06    0.5489387977E+00    0.3751347532E-01    0.5640890121E-03    0.1297053582E+00    0.6474470770E+00
    0.1700000000E+06    0.5490693794E+00    0.3747746303E-01    0.5268953784E-03    0.1297652004E+00    0.6475759883E+00
    0.1900000000E+06    0.5491702944E+00    0.3744509019E-01    0.4959542280E-03    0.1298148534E+00    0.6476840465E+00
    0.2100000000E+06    0.5492502245E+00    0.3741569022E-01    0.4697004624E-03    0.1298569978E+00    0.6477764990E+00
    0.2300000000E+06    0.5493147955E+00    0.3738876375E-01    0.4470664222E-03    0.1298934221E+00    0.6478569060E+00
    0.2500000000E+06    0.5493678087E+00    0.3736392719E-01    0.4272957217E-03    0.1299253697E+00    0.6479277794E+00
    0.2700000000E+06    0.5494119219E+00    0.3734087965E-01    0.4098356605E-03    0.1299537350E+00    0.6479909493E+00
    0.2900000000E+06    0.5494490475E+00    0.3731938077E-01    0.3942718189E-03    0.1299791794E+00    0.6480477849E+00
    0.3100000000E+06    0.5494805953E+00    0.3729923555E-01    0.3802865975E-03    0.1300022039E+00    0.6480993341E+00
    0.3300000000E+06    0.5495076261E+00    0.3728028363E-01    0.3676319911E-03    0.1300231961E+00    0.6481464145E+00
    0.3500000000E+06    0.5495309532E+00    0.3726239152E-01    0.3561111628E-03    0.1300424608E+00    0.6481896751E+00
    0.3700000000E+06    0.5495512097E+00    0.3724544696E-01    0.3455656454E-03    0.1300602416E+00    0.6482296382E+00
    0.3900000000E+06    0.5495688956E+00    0.3722935462E-01    0.3358662461E-03    0.1300767361E+00    0.6482667301E+00
    0.4100000000E+06    0.5495844107E+00    0.3721403288E-01    0.3269064524E-03    0.1300921061E+00    0.6483013024E+00
    0.4300000000E+06    0.5495980782E+00    0.3719941129E-01    0.3185975649E-03    0.1301064860E+00    0.6483336485E+00
    0.4500000000E+06    0.5496101620E+00    0.3718542865E-01    0.3108650484E-03    0.1301199881E+00    0.6483640150E+00
    0.4700000000E+06    0.5496208796E+00    0.3717203146E-01    0.3036457547E-03    0.1301327074E+00    0.6483926115E+00
    0.4900000000E+06    0.5496304119E+00    0.3715917266E-01    0.2968857838E-03    0.1301447247E+00    0.6484196169E+00
    0.1000000000E+06    0.5483616970E+00    0.3762646321E-01    0.7043009867E-03    0.1294755789E+00    0.6469661079E+00
    0.3000000000E+06    0.5494654455E+00    0.3730914969E-01    0.3870987627E-03    0.1299909677E+00    0.6480741646E+00
    0.5000000000E+06    0.5496347818E+00    0.3715293196E-01    0.2936633110E-03    0.1301504921E+00    0.6484325720E+00
    0.7000000000E+06    0.5496863410E+00    0.3704841574E-01    0.2448797865E-03    0.1302416140E+00    0.6486363898E+00
    0.9000000000E+06    0.5497033858E+00    0.3696976430E-01    0.2138277638E-03    0.1303046864E+00    0.6487759080E+00
    0.1100000000E+07    0.5497068530E+00    0.3690668654E-01    0.1918930691E-03    0.1303526949E+00    0.6488808539E+00
    0.1300000000E+07    0.5497041382E+00    0.3685402608E-01    0.1753627706E-03    0.1303913627E+00    0.6489644393E+00
    0.1500000000E+07    0.5496983903E+00    0.3680882746E-01    0.1623416307E-03    0.1304236938E+00    0.6490336135E+00
    0.1700000000E+07    0.5496911172E+00    0.3676923809E-01    0.1517488957E-03    0.1304514530E+00    0.6490924549E+00
    0.1900000000E+07    0.5496831001E+00    0.3673401971E-01    0.1429177819E-03    0.1304757622E+00    0.6491435496E+00
    0.2100000000E+07    0.5496747658E+00    0.3670230360E-01    0.1354118919E-03    0.1304973778E+00    0.6491886347E+00
    0.2300000000E+07    0.5496663553E+00    0.3667345674E-01    0.1289321679E-03    0.1305168331E+00    0.6492289302E+00
    0.2500000000E+07    0.5496580076E+00    0.3664700355E-01    0.1232659682E-03    0.1305345182E+00    0.6492653243E+00
    0.2700000000E+07    0.5496498025E+00    0.3662257768E-01    0.1182574506E-03    0.1305507265E+00    0.6492984824E+00
    0.2900000000E+07    0.5496417852E+00    0.3659989093E-01    0.1137894748E-03    0.1305656845E+00    0.6493289157E+00
    0.3100000000E+07    0.5496339794E+00    0.3657871245E-01    0.1097720815E-03    0.1305795704E+00    0.6493570247E+00
    0.3300000000E+07    0.5496263959E+00    0.3655885453E-01    0.1061348994E-03    0.1305925269E+00    0.6493831287E+00
    0.3500000000E+07    0.5496190376E+00    0.3654016241E-01    0.1028219912E-03    0.1306046703E+00    0.6494074866E+00
    0.3700000000E+07    0.5496119021E+00    0.3652250706E-01    0.9978826407E-04    0.1306160961E+00    0.6494303108E+00
    0.3900000000E+07    0.5496049842E+00    0.3650577971E-01    0.9699691258E-04    0.1306268842E+00    0.6494517776E+00
    0.4100000000E+07    0.5495982769E+00    0.3648988787E-01    0.9441756172E-04    0.1306371018E+00    0.6494720349E+00
    0.4300000000E+07    0.5495917721E+00    0.3647475222E-01    0.9202489343E-04    0.1306468060E+00    0.6494912081E+00
    0.4500000000E+07    0.5495854613E+00    0.3646030421E-01    0.8979761528E-04    0.1306560459E+00    0.6495094043E+00
    0.4700000000E+07    0.5495793360E+00    0.3644648420E-01    0.8771767469E-04    0.1306648636E+00    0.6495267157E+00
    0.4900000000E+07    0.5495733876E+00    0.3643324000E-01    0.8576965272E-04    0.1306732961E+00    0.6495432221E+00
    0.1000000000E+07    0.5497062020E+00    0.3693667268E-01    0.2020147203E-03    0.1303301237E+00    0.6488316652E+00
    0.3000000000E+07    0.5496378549E+00    0.3658912576E-01    0.1117292430E-03    0.1305727518E+00    0.6493432391E+00
    0.5000000000E+07    0.5495704772E+00    0.3642681925E-01    0.8484089427E-04    0.1306773780E+00    0.6495511955E+00
    0.7000000000E+07    0.5495197372E+00    0.3631989312E-01    0.7077098202E-04    0.1307448507E+00    0.6496814401E+00
    0.9000000000E+07    0.5494795250E+00    0.3624006365E-01    0.6180683882E-04    0.1307947283E+00    0.6497759365E+00
    0.1100000000E+08    0.5494463074E+00    0.3617635767E-01    0.5547160016E-04    0.1308343093E+00    0.6498499273E+00
    0.1300000000E+08    0.5494180346E+00    0.3612335548E-01    0.5069586170E-04    0.1308671242E+00    0.6499106434E+00
    0.1500000000E+08    0.5493934327E+00    0.3607797958E-01    0.4693321739E-04    0.1308951510E+00    0.6499620765E+00
    0.1700000000E+08    0.5493716609E+00    0.3603831368E-01    0.4387188233E-04    0.1309196105E+00    0.6500066596E+00
    0.1900000000E+08    0.5493521360E+00    0.3600308340E-01    0.4131941205E-04    0.1309413089E+00    0.6500459838E+00
    0.2100000000E+08    0.5493344380E+00    0.3597139820E-01    0.3914981454E-04    0.1309608067E+00    0.6500811458E+00
    0.2300000000E+08    0.5493182543E+00    0.3594261125E-01    0.3727672796E-04    0.1309785094E+00    0.6501129331E+00
    0.2500000000E+08    0.5493033460E+00    0.3591623792E-01    0.3563873404E-04    0.1309947199E+00    0.6501419299E+00
    0.2700000000E+08    0.5492895266E+00    0.3589190571E-01    0.3419081331E-04    0.1310096703E+00    0.6501685815E+00
