  Pressure (Pa) 22mC5-400 (mol/kg) 3mC6-400 (mol/kg) 33mC5-400 (mol/kg) 23mC5-400 (mol/kg) C7-400 (mol/kg)
    0.1000000000E+01    0.1593446490E-02    0.2638364437E-02    0.5832314755E-03    0.9326376720E-04    0.3425017508E-02
    0.3000000000E+01    0.4751311173E-02    0.7766262414E-02    0.1716355179E-02    0.2780936876E-03    0.1008275171E-01
    0.5000000000E+01    0.7871112981E-02    0.1270497263E-01    0.2806998831E-02    0.4606976317E-03    0.1649602257E-01
    0.7000000000E+01    0.1095360367E-01    0.1746488568E-01    0.3857380205E-02    0.6411195537E-03    0.2267823559E-01
    0.9000000000E+01    0.1399951497E-01    0.2205564296E-01    0.4869560623E-02    0.8194022370E-03    0.2864183041E-01
    0.1100000000E+02    0.1700955923E-01    0.2648620297E-01    0.5845458766E-02    0.9955873323E-03    0.3439836630E-01
    0.1300000000E+02    0.1998443008E-01    0.3076490081E-01    0.6786863049E-02    0.1169715395E-02    0.3995859880E-01
    0.1500000000E+02    0.2292480300E-01    0.3489950149E-01    0.7695442713E-02    0.1341825921E-02    0.4533254843E-01
    0.1700000000E+02    0.2583133594E-01    0.3889724793E-01    0.8572757795E-02    0.1511957380E-02    0.5052956248E-01
    0.1900000000E+02    0.2870466989E-01    0.4276490409E-01    0.9420268106E-02    0.1680147251E-02    0.5555837071E-01
    0.2100000000E+02    0.3154542938E-01    0.4650879399E-01    0.1023934133E-01    0.1846432050E-02    0.6042713555E-01
    0.2300000000E+02    0.3435422304E-01    0.5013483694E-01    0.1103126035E-01    0.2010847364E-02    0.6514349753E-01
    0.2500000000E+02    0.3713164411E-01    0.5364857942E-01    0.1179722985E-01    0.2173427880E-02    0.6971461635E-01
    0.2700000000E+02    0.3987827087E-01    0.5705522400E-01    0.1253838235E-01    0.2334207410E-02    0.7414720823E-01
    0.2900000000E+02    0.4259466717E-01    0.6035965563E-01    0.1325578365E-01    0.2493218923E-02    0.7844757971E-01
    0.3100000000E+02    0.4528138284E-01    0.6356646555E-01    0.1395043780E-01    0.2650494568E-02    0.8262165848E-01
    0.3300000000E+02    0.4793895412E-01    0.6667997304E-01    0.1462329160E-01    0.2806065700E-02    0.8667502148E-01
    0.3500000000E+02    0.5056790410E-01    0.6970424529E-01    0.1527523875E-01    0.2959962905E-02    0.9061292045E-01
    0.3700000000E+02    0.5316874310E-01    0.7264311557E-01    0.1590712361E-01    0.3112216021E-02    0.9444030540E-01
    0.3900000000E+02    0.5574196907E-01    0.7550019979E-01    0.1651974463E-01    0.3262854166E-02    0.9816184593E-01
    0.4100000000E+02    0.5828806797E-01    0.7827891176E-01    0.1711385755E-01    0.3411905752E-02    0.1017819509E+00
    0.4300000000E+02    0.6080751408E-01    0.8098247709E-01    0.1769017826E-01    0.3559398515E-02    0.1053047864E+00
    0.4500000000E+02    0.6330077042E-01    0.8361394602E-01    0.1824938547E-01    0.3705359526E-02    0.1087342922E+00
    0.4700000000E+02    0.6576828903E-01    0.8617620521E-01    0.1879212319E-01    0.3849815217E-02    0.1120741970E+00
    0.4900000000E+02    0.6821051131E-01    0.8867198855E-01    0.1931900292E-01    0.3992791400E-02    0.1153280325E+00
    0.1000000000E+02    0.1550897670E-01    0.2429041272E-01    0.5361930285E-02    0.9077544232E-03    0.3154529050E-01
    0.3000000000E+02    0.4394170126E-01    0.6197498722E-01    0.1360589366E-01    0.2572071751E-02    0.8055004921E-01
    0.5000000000E+02    0.6942227144E-01    0.8989576682E-01    0.1957667878E-01    0.4063732575E-02    0.1169237272E+00
    0.7000000000E+02    0.9242931307E-01    0.1114441574E+00    0.2402463469E-01    0.5410723098E-02    0.1450461504E+00
    0.9000000000E+02    0.1133409346E+00    0.1285998577E+00    0.2739964229E-01    0.6635152729E-02    0.1674755618E+00
    0.1100000000E+03    0.1324598314E+00    0.1425968387E+00    0.2999008088E-01    0.7754721708E-02    0.1858075149E+00
    0.1300000000E+03    0.1500312498E+00    0.1542446830E+00    0.3199045460E-01    0.8783771299E-02    0.2010894522E+00
    0.1500000000E+03    0.1662560636E+00    0.1640968637E+00    0.3353726028E-01    0.9734048311E-02    0.2140378912E+00
    0.1700000000E+03    0.1813004426E+00    0.1725447820E+00    0.3472935843E-01    0.1061527036E-01    0.2251598383E+00
    0.1900000000E+03    0.1953031025E+00    0.1798731711E+00    0.3564020358E-01    0.1143554976E-01    0.2348243462E+00
    0.2100000000E+03    0.2083808117E+00    0.1862942033E+00    0.3632553173E-01    0.1220171547E-01    0.2433065837E+00
    0.2300000000E+03    0.2206326236E+00    0.1919692823E+00    0.3682838099E-01    0.1291956054E-01    0.2508160012E+00
    0.2500000000E+03    0.2321431651E+00    0.1970234154E+00    0.3718247851E-01    0.1359403446E-01    0.2575149148E+00
    0.2700000000E+03    0.2429852171E+00    0.2015549584E+00    0.3741458916E-01    0.1422939395E-01    0.2635311100E+00
    0.2900000000E+03    0.2532217589E+00    0.2056423824E+00    0.3754618358E-01    0.1482932258E-01    0.2689665985E+00
    0.3100000000E+03    0.2629076011E+00    0.2093490761E+00    0.3759464739E-01    0.1539702620E-01    0.2739038332E+00
    0.3300000000E+03    0.2720907014E+00    0.2127268168E+00    0.3757417371E-01    0.1593530992E-01    0.2784102029E+00
    0.3500000000E+03    0.2808132322E+00    0.2158183234E+00    0.3749643251E-01    0.1644664047E-01    0.2825413395E+00
    0.3700000000E+03    0.2891124523E+00    0.2186591627E+00    0.3737107961E-01    0.1693319729E-01    0.2863435881E+00
    0.3900000000E+03    0.2970214257E+00    0.2212791925E+00    0.3720614873E-01    0.1739691443E-01    0.2898558769E+00
    0.4100000000E+03    0.3045696148E+00    0.2237036683E+00    0.3700835667E-01    0.1783951535E-01    0.2931111531E+00
    0.4300000000E+03    0.3117833757E+00    0.2259541007E+00    0.3678334349E-01    0.1826254181E-01    0.2961374948E+00
    0.4500000000E+03    0.3186863723E+00    0.2280489288E+00    0.3653586307E-01    0.1866737812E-01    0.2989589844E+00
    0.4700000000E+03    0.3252999249E+00    0.2300040515E+00    0.3626993571E-01    0.1905527153E-01    0.3015963989E+00
    0.4900000000E+03    0.3316433055E+00    0.2318332530E+00    0.3598897115E-01    0.1942734948E-01    0.3040677621E+00
    0.1000000000E+03    0.1231079721E+00    0.1359351028E+00    0.2877909793E-01    0.7207079851E-02    0.1770785840E+00
    0.3000000000E+03    0.2581303730E+00    0.2075398459E+00    0.3757985368E-01    0.1511701860E-01    0.2714929762E+00
    0.5000000000E+03    0.3347192061E+00    0.2327044482E+00    0.3584377351E-01    0.1960778088E-01    0.3052461651E+00
    0.7000000000E+03    0.3855451656E+00    0.2457532928E+00    0.3265968932E-01    0.2259039859E-01    0.3230248618E+00
    0.9000000000E+03    0.4221358248E+00    0.2538008945E+00    0.2956273395E-01    0.2473933336E-01    0.3341530933E+00
    0.1100000000E+04    0.4498398789E+00    0.2592839762E+00    0.2685036810E-01    0.2636761159E-01    0.3418435381E+00
    0.1300000000E+04    0.4715620278E+00    0.2632705250E+00    0.2453834671E-01    0.2764527370E-01    0.3475122799E+00
    0.1500000000E+04    0.4890452036E+00    0.2663048575E+00    0.2257669757E-01    0.2867437863E-01    0.3518849909E+00
    0.1700000000E+04    0.5034090956E+00    0.2686944591E+00    0.2090666749E-01    0.2952050883E-01    0.3553737722E+00
    0.1900000000E+04    0.5154096594E+00    0.2706265611E+00    0.1947573908E-01    0.3022795424E-01    0.3582308480E+00
    0.2100000000E+04    0.5255770730E+00    0.2722218902E+00    0.1824050882E-01    0.3082778533E-01    0.3606196701E+00
    0.2300000000E+04    0.5342946143E+00    0.2735618924E+00    0.1716606988E-01    0.3134246966E-01    0.3626510502E+00
    0.2500000000E+04    0.5418463513E+00    0.2747035645E+00    0.1622457456E-01    0.3178866358E-01    0.3644029104E+00
    0.2700000000E+04    0.5484472808E+00    0.2756880215E+00    0.1539379915E-01    0.3217897676E-01    0.3659317270E+00
    0.2900000000E+04    0.5542630727E+00    0.2765456886E+00    0.1465593177E-01    0.3252312835E-01    0.3672794877E+00
    0.3100000000E+04    0.5594233975E+00    0.2772995758E+00    0.1399660819E-01    0.3282872754E-01    0.3684780940E+00
    0.3300000000E+04    0.5640311547E+00    0.2779674158E+00    0.1340416303E-01    0.3310181415E-01    0.3695522423E+00
    0.3500000000E+04    0.5681690050E+00    0.2785631003E+00    0.1286905348E-01    0.3334724128E-01    0.3705213665E+00
    0.3700000000E+04    0.5719040822E+00    0.2790976702E+00    0.1238341622E-01    0.3356895148E-01    0.3714009812E+00
    0.3900000000E+04    0.5752914524E+00    0.2795800138E+00    0.1194072583E-01    0.3377017939E-01    0.3722036313E+00
    0.4100000000E+04    0.5783766898E+00    0.2800173688E+00    0.1153553018E-01    0.3395360281E-01    0.3729395766E+00
    0.4300000000E+04    0.5811978238E+00    0.2804156901E+00    0.1116324418E-01    0.3412145678E-01    0.3736172942E+00
    0.4500000000E+04    0.5837868265E+00    0.2807799224E+00    0.1081998804E-01    0.3427562085E-01    0.3742438541E+00
    0.4700000000E+04    0.5861707642E+00    0.2811142066E+00    0.1050245951E-01    0.3441768656E-01    0.3748252018E+00
    0.4900000000E+04    0.5883726969E+00    0.2814220373E+00    0.1020783233E-01    0.3454901021E-01    0.3753663760E+00
    0.1000000000E+04    0.4368804241E+00    0.2567785144E+00    0.2815472406E-01    0.2560577909E-01    0.3383161851E+00
    0.3000000000E+04    0.5569181970E+00    0.2769343922E+00    0.1431723686E-01    0.3268033783E-01    0.3678957491E+00
    0.5000000000E+04    0.5894116997E+00    0.2815669785E+00    0.1006833333E-01    0.3461101372E-01    0.3756232669E+00
    0.7000000000E+04    0.6042123983E+00    0.2836081174E+00    0.8038373115E-02    0.3549760581E-01    0.3794268639E+00
    0.9000000000E+04    0.6126104316E+00    0.2847398193E+00    0.6832892950E-02    0.3600480029E-01    0.3817672704E+00
    0.1100000000E+05    0.6180013700E+00    0.2854476950E+00    0.6023568676E-02    0.3633306991E-01    0.3833864824E+00
    0.1300000000E+05    0.6217474219E+00    0.2859245414E+00    0.5436308142E-02    0.3656306216E-01    0.3845910311E+00
    0.1500000000E+05    0.6244983333E+00    0.2862621282E+00    0.4986897551E-02    0.3673335074E-01    0.3855324170E+00
    0.1700000000E+05    0.6266024089E+00    0.2865096599E+00    0.4629475126E-02    0.3686467085E-01    0.3862948625E+00
    0.1900000000E+05    0.6282628231E+00    0.2866958498E+00    0.4336826857E-02    0.3696915136E-01    0.3869292713E+00
    0.2100000000E+05    0.6296059406E+00    0.2868385524E+00    0.4091720021E-02    0.3705435680E-01    0.3874683998E+00
    0.2300000000E+05    0.6307144149E+00    0.2869494333E+00    0.3882673003E-02    0.3712524882E-01    0.3879343810E+00
    0.2500000000E+05    0.6316445527E+00    0.2870364229E+00    0.3701716930E-02    0.3718521685E-01    0.3883427665E+00
    0.2700000000E+05    0.6324360197E+00    0.2871050906E+00    0.3543132437E-02    0.3723665528E-01    0.3887048396E+00
    0.2900000000E+05    0.6331175556E+00    0.2871594553E+00    0.3402698198E-02    0.3728130380E-01    0.3890290093E+00
    0.3100000000E+05    0.6337104884E+00    0.2872024848E+00    0.3277223851E-02    0.3732045702E-01    0.3893216860E+00
    0.3300000000E+05    0.6342309750E+00    0.2872364141E+00    0.3164248735E-02    0.3735509844E-01    0.3895878529E+00
    0.3500000000E+05    0.6346914772E+00    0.2872629555E+00    0.3061841285E-02    0.3738598870E-01    0.3898314497E+00
    0.3700000000E+05    0.6351017590E+00    0.2872834408E+00    0.2968461748E-02    0.3741372547E-01    0.3900556379E+00
    0.3900000000E+05    0.6354695784E+00    0.2872989195E+00    0.2882865926E-02    0.3743878492E-01    0.3902629875E+00
    0.4100000000E+05    0.6358011769E+00    0.2873102283E+00    0.2804036248E-02    0.3746155122E-01    0.3904556124E+00
    0.4300000000E+05    0.6361016319E+00    0.2873180414E+00    0.2731131476E-02    0.3748233775E-01    0.3906352696E+00
    0.4500000000E+05    0.6363751162E+00    0.2873229072E+00    0.2663449375E-02    0.3750140278E-01    0.3908034331E+00
    0.4700000000E+05    0.6366250901E+00    0.2873252755E+00    0.2600398584E-02    0.3751896107E-01    0.3909613499E+00
    0.4900000000E+05    0.6368544474E+00    0.2873255182E+00    0.2541477138E-02    0.3753519272E-01    0.3911100836E+00
    0.1000000000E+05    0.6155718882E+00    0.2851311659E+00    0.6392707237E-02    0.3618479902E-01    0.3826425219E+00
    0.3000000000E+05    0.6334239866E+00    0.2871822330E+00    0.3338259202E-02    0.3730149977E-01    0.3891789446E+00
    0.5000000000E+05    0.6369621721E+00    0.2873249412E+00    0.2513428331E-02    0.3754285954E-01    0.3911812973E+00
    0.7000000000E+05    0.6384644414E+00    0.2872550752E+00    0.2091582648E-02    0.3765352646E-01    0.3922899283E+00
    0.9000000000E+05    0.6392927725E+00    0.2871393319E+00    0.1825340302E-02    0.3771905568E-01    0.3930361882E+00
    0.1100000000E+06    0.6398164452E+00    0.2870150624E+00    0.1638076320E-02    0.3776334919E-01    0.3935909862E+00
    0.1300000000E+06    0.6401768182E+00    0.2868931758E+00    0.1497290638E-02    0.3779581723E-01    0.3940290186E+00
    0.1500000000E+06    0.6404396008E+00    0.2867770490E+00    0.1386549992E-02    0.3782095363E-01    0.3943890722E+00
    0.1700000000E+06    0.6406394630E+00    0.2866675234E+00    0.1296540412E-02    0.3784119216E-01    0.3946936752E+00
    0.1900000000E+06    0.6407964170E+00    0.2865645209E+00    0.1221539548E-02    0.3785797379E-01    0.3949569896E+00
    0.2100000000E+06    0.6409228178E+00    0.2864676345E+00    0.1157813434E-02    0.3787221042E-01    0.3951884590E+00
    0.2300000000E+06    0.6410267029E+00    0.2863763597E+00    0.1102808875E-02    0.3788450980E-01    0.3953946746E+00
    0.2500000000E+06    0.6411135251E+00    0.2862901888E+00    0.1054713478E-02    0.3789529412E-01    0.3955804082E+00
    0.2700000000E+06    0.6411871130E+00    0.2862086463E+00    0.1012200661E-02    0.3790486672E-01    0.3957492185E+00
    0.2900000000E+06    0.6412502330E+00    0.2861313018E+00    0.9742742832E-03    0.3791345185E-01    0.3959038264E+00
    0.3100000000E+06    0.6413049337E+00    0.2860577709E+00    0.9401699434E-03    0.3792121927E-01    0.3960463560E+00
    0.3300000000E+06    0.6413527638E+00    0.2859877130E+00    0.9092900559E-03    0.3792830016E-01    0.3961784959E+00
    0.3500000000E+06    0.6413949158E+00    0.2859208269E+00    0.8811598415E-03    0.3793479770E-01    0.3963016092E+00
    0.3700000000E+06    0.6414323226E+00    0.2858568459E+00    0.8553967153E-03    0.3794079432E-01    0.3964168116E+00
    0.3900000000E+06    0.6414657243E+00    0.2857955336E+00    0.8316885053E-03    0.3794635679E-01    0.3965250270E+00
    0.4100000000E+06    0.6414957157E+00    0.2857366802E+00    0.8097776435E-03    0.3795153985E-01    0.3966270290E+00
    0.4300000000E+06    0.6415227800E+00    0.2856800986E+00    0.7894494857E-03    0.3795638887E-01    0.3967234711E+00
    0.4500000000E+06    0.6415473136E+00    0.2856256217E+00    0.7705235439E-03    0.3796094182E-01    0.3968149106E+00
    0.4700000000E+06    0.6415696452E+00    0.2855730996E+00    0.7528468115E-03    0.3796523077E-01    0.3969018262E+00
    0.4900000000E+06    0.6415900490E+00    0.2855223978E+00    0.7362886149E-03    0.3796928302E-01    0.3969846317E+00
    0.1000000000E+06    0.6395811932E+00    0.2870773005E+00    0.1724417093E-02    0.3774309693E-01    0.3933316322E+00
    0.3000000000E+06    0.6412785292E+00    0.2860940819E+00    0.9567850219E-03    0.3791742882E-01    0.3959764867E+00
    0.5000000000E+06    0.6415996017E+00    0.2854976909E+00    0.7283932316E-03    0.3797122783E-01    0.3970246077E+00
    0.7000000000E+06    0.6417301137E+00    0.2850750770E+00    0.6086976477E-03    0.3800195787E-01    0.3976756481E+00
    0.9000000000E+06    0.6417987476E+00    0.2847474783E+00    0.5323321475E-03    0.3802323651E-01    0.3981460051E+00
    0.1100000000E+07    0.6418399669E+00    0.2844797665E+00    0.4782993290E-03    0.3803944018E-01    0.3985133555E+00
    0.1300000000E+07    0.6418668015E+00    0.2842532889E+00    0.4375270315E-03    0.3805249674E-01    0.3988142901E+00
    0.1500000000E+07    0.6418852301E+00    0.2840569544E+00    0.4053764196E-03    0.3806341790E-01    0.3990689119E+00
    0.1700000000E+07    0.6418983644E+00    0.2838836286E+00    0.3791986404E-03    0.3807279801E-01    0.3992894319E+00
    0.1900000000E+07    0.6419079758E+00    0.2837284491E+00    0.3573576504E-03    0.3808101498E-01    0.3994838140E+00
    0.2100000000E+07    0.6419151415E+00    0.2835879522E+00    0.3387816923E-03    0.3808832356E-01    0.3996575361E+00
    0.2300000000E+07    0.6419205522E+00    0.2834595823E+00    0.3227357135E-03    0.3809490348E-01    0.3998145245E+00
    0.2500000000E+07    0.6419246690E+00    0.2833413994E+00    0.3086966936E-03    0.3810088613E-01    0.3999576885E+00
    0.2700000000E+07    0.6419278105E+00    0.2832318962E+00    0.2962810759E-03    0.3810637045E-01    0.4000892423E+00
    0.2900000000E+07    0.6419302032E+00    0.2831298775E+00    0.2852003925E-03    0.3811143273E-01    0.4002109102E+00
    0.3100000000E+07    0.6419320121E+00    0.2830343799E+00    0.2752329959E-03    0.3811613307E-01    0.4003240603E+00
    0.3300000000E+07    0.6419333596E+00    0.2829446154E+00    0.2662054190E-03    0.3812051962E-01    0.4004297964E+00
    0.3500000000E+07    0.6419343384E+00    0.2828599308E+00    0.2579797141E-03    0.3812463152E-01    0.4005290217E+00
    0.3700000000E+07    0.6419350196E+00    0.2827797790E+00    0.2504446317E-03    0.3812850106E-01    0.4006224844E+00
    0.3900000000E+07    0.6419354587E+00    0.2827036969E+00    0.2435093344E-03    0.3813215516E-01    0.4007108113E+00
    0.4100000000E+07    0.6419356994E+00    0.2826312893E+00    0.2370988282E-03    0.3813561649E-01    0.4007945327E+00
    0.4300000000E+07    0.6419357764E+00    0.2825622157E+00    0.2311505837E-03    0.3813890433E-01    0.4008741011E+00
    0.4500000000E+07    0.6419357178E+00    0.2824961812E+00    0.2256119970E-03    0.3814203521E-01    0.4009499056E+00
    0.4700000000E+07    0.6419355462E+00    0.2824329284E+00    0.2204384553E-03    0.3814502342E-01    0.4010222833E+00
    0.4900000000E+07    0.6419352802E+00    0.2823722314E+00    0.2155918431E-03    0.3814788138E-01    0.4010915282E+00
    0.1000000000E+07    0.6418217207E+00    0.2846075439E+00    0.5032420603E-03    0.3803182118E-01    0.3983397215E+00
    0.3000000000E+07    0.6419311722E+00    0.2830813664E+00    0.2800893331E-03    0.3811382490E-01    0.4002684756E+00
    0.5000000000E+07    0.6419351166E+00    0.2823427781E+00    0.2132807090E-03    0.3814926496E-01    0.4011250577E+00
    0.7000000000E+07    0.6419294697E+00    0.2818497879E+00    0.1782341104E-03    0.3817214496E-01    0.4016799116E+00
    0.9000000000E+07    0.6419222872E+00    0.2814789149E+00    0.1558678832E-03    0.3818907029E-01    0.4020904101E+00
    0.1100000000E+08    0.6419151456E+00    0.2811814032E+00    0.1400408937E-03    0.3820250841E-01    0.4024161058E+00
    0.1300000000E+08    0.6419084210E+00    0.2809329157E+00    0.1280977257E-03    0.3821365368E-01    0.4026859824E+00
    0.1500000000E+08    0.6419021828E+00    0.2807195302E+00    0.1186800559E-03    0.3822317575E-01    0.4029163334E+00
    0.1700000000E+08    0.6418964121E+00    0.2805325294E+00    0.1110120862E-03    0.3823148797E-01    0.4031172297E+00
    0.1900000000E+08    0.6418910659E+00    0.2803660902E+00    0.1046145878E-03    0.3823886351E-01    0.4032953304E+00
    0.2100000000E+08    0.6418860975E+00    0.2802161287E+00    0.9917359730E-04    0.3824549231E-01    0.4034552673E+00
    0.2300000000E+08    0.6418814635E+00    0.2800796694E+00    0.9447377627E-04    0.3825151185E-01    0.4036003921E+00
    0.2500000000E+08    0.6418771258E+00    0.2799544771E+00    0.9036189833E-04    0.3825702480E-01    0.4037332080E+00
    0.2700000000E+08    0.6418730512E+00    0.2798388299E+00    0.8672559343E-04    0.3826210988E-01    0.4038556337E+00
