  Pressure (Pa) 22mC5-400 (mol/kg) 3mC6-400 (mol/kg) 33mC5-400 (mol/kg) 23mC5-400 (mol/kg) C7-400 (mol/kg)
    0.1000000000E+01    0.1593752594E-02    0.4212552279E-02    0.3881993685E-03    0.9328167462E-04    0.3417888291E-02
    0.3000000000E+01    0.4754024369E-02    0.1234979546E-01    0.1138899536E-02    0.2782524133E-03    0.1002121107E-01
    0.5000000000E+01    0.7878536080E-02    0.2012470812E-01    0.1857175674E-02    0.4611318951E-03    0.1633191776E-01
    0.7000000000E+01    0.1096793495E-01    0.2756109299E-01    0.2545067677E-02    0.6419579607E-03    0.2236920089E-01
    0.9000000000E+01    0.1402285243E-01    0.3468070969E-01    0.3204441135E-02    0.8207675292E-03    0.2815060690E-01
    0.1100000000E+02    0.1704390471E-01    0.4150348940E-01    0.3837005798E-02    0.9975966270E-03    0.3369220898E-01
    0.1300000000E+02    0.2003169315E-01    0.4804772303E-01    0.4444331745E-02    0.1172480414E-02    0.3900875867E-01
    0.1500000000E+02    0.2298680474E-01    0.5433022664E-01    0.5027863573E-02    0.1345453208E-02    0.4411381902E-01
    0.1700000000E+02    0.2590981249E-01    0.6036648718E-01    0.5588932891E-02    0.1516548514E-02    0.4901988201E-01
    0.1900000000E+02    0.2880127589E-01    0.6617079132E-01    0.6128769344E-02    0.1685799043E-02    0.5373847232E-01
    0.2100000000E+02    0.3166174127E-01    0.7175633961E-01    0.6648510368E-02    0.1853236737E-02    0.5828023926E-01
    0.2300000000E+02    0.3449174222E-01    0.7713534775E-01    0.7149209842E-02    0.2018892794E-02    0.6265503836E-01
    0.2500000000E+02    0.3729179990E-01    0.8231913688E-01    0.7631845780E-02    0.2182797686E-02    0.6687200408E-01
    0.2700000000E+02    0.4006242347E-01    0.8731821398E-01    0.8097327186E-02    0.2344981180E-02    0.7093961463E-01
    0.2900000000E+02    0.4280411036E-01    0.9214234384E-01    0.8546500170E-02    0.2505472364E-02    0.7486574989E-01
    0.3100000000E+02    0.4551734666E-01    0.9680061347E-01    0.8980153429E-02    0.2664299656E-02    0.7865774335E-01
    0.3300000000E+02    0.4820260744E-01    0.1013014900E+00    0.9399023157E-02    0.2821490833E-02    0.8232242872E-01
    0.3500000000E+02    0.5086035701E-01    0.1056528725E+00    0.9803797452E-02    0.2977073044E-02    0.8586618178E-01
    0.3700000000E+02    0.5349104927E-01    0.1098621392E+00    0.1019512029E-01    0.3131072827E-02    0.8929495824E-01
    0.3900000000E+02    0.5609512800E-01    0.1139361894E+00    0.1057359511E-01    0.3283516129E-02    0.9261432772E-01
    0.4100000000E+02    0.5867302709E-01    0.1178814821E+00    0.1093978804E-01    0.3434428320E-02    0.9582950463E-01
    0.4300000000E+02    0.6122517087E-01    0.1217040701E+00    0.1129423082E-01    0.3583834211E-02    0.9894537607E-01
    0.4500000000E+02    0.6375197435E-01    0.1254096320E+00    0.1163742348E-01    0.3731758067E-02    0.1019665271E+00
    0.4700000000E+02    0.6625384348E-01    0.1290035004E+00    0.1196983671E-01    0.3878223623E-02    0.1048972639E+00
    0.4900000000E+02    0.6873117538E-01    0.1324906879E+00    0.1229191408E-01    0.4023254099E-02    0.1077416344E+00
    0.1000000000E+02    0.1553757379E-01    0.3812802458E-01    0.3523973338E-02    0.9094274195E-03    0.3095043212E-01
    0.3000000000E+02    0.4416425489E-01    0.9449166810E-01    0.8765219577E-02    0.2585092245E-02    0.7677807604E-01
    0.5000000000E+02    0.6996076161E-01    0.1341957611E+00    0.1244920851E-01    0.4095238301E-02    0.1091326314E+00
    0.7000000000E+02    0.9335469590E-01    0.1637057213E+00    0.1514254996E-01    0.5464867224E-02    0.1332335633E+00
    0.9000000000E+02    0.1146900733E+00    0.1865201210E+00    0.1715994983E-01    0.6714093993E-02    0.1519073641E+00
    0.1100000000E+03    0.1342468088E+00    0.2046981824E+00    0.1869280015E-01    0.7859286017E-02    0.1668189271E+00
    0.1300000000E+03    0.1522550139E+00    0.2195314631E+00    0.1986561654E-01    0.8913898943E-02    0.1790132665E+00
    0.1500000000E+03    0.1689056433E+00    0.2318713998E+00    0.2076367319E-01    0.9889099020E-02    0.1891798056E+00
    0.1700000000E+03    0.1843585283E+00    0.2423022645E+00    0.2144774253E-01    0.1079423280E-01    0.1977919933E+00
    0.1900000000E+03    0.1987485152E+00    0.2512384609E+00    0.2196251687E-01    0.1163718596E-01    0.2051858812E+00
    0.2100000000E+03    0.2121902075E+00    0.2589821615E+00    0.2234169927E-01    0.1242466059E-01    0.2116066924E+00
    0.2300000000E+03    0.2247816676E+00    0.2657589511E+00    0.2261122892E-01    0.1316239156E-01    0.2172376329E+00
    0.2500000000E+03    0.2366073351E+00    0.2717406867E+00    0.2279140655E-01    0.1385531721E-01    0.2222183781E+00
    0.2700000000E+03    0.2477403472E+00    0.2770606231E+00    0.2289834256E-01    0.1450771494E-01    0.2266573105E+00
    0.2900000000E+03    0.2582443988E+00    0.2818236961E+00    0.2294497208E-01    0.1512331006E-01    0.2306398426E+00
    0.3100000000E+03    0.2681752470E+00    0.2861136813E+00    0.2294178396E-01    0.1570536367E-01    0.2342342140E+00
    0.3300000000E+03    0.2775819339E+00    0.2899982831E+00    0.2289735552E-01    0.1625674421E-01    0.2374956144E+00
    0.3500000000E+03    0.2865077903E+00    0.2935328209E+00    0.2281875191E-01    0.1677998612E-01    0.2404691707E+00
    0.3700000000E+03    0.2949912626E+00    0.2967629434E+00    0.2271182921E-01    0.1727733821E-01    0.2431921488E+00
    0.3900000000E+03    0.3030665989E+00    0.2997266587E+00    0.2258146768E-01    0.1775080379E-01    0.2456955996E+00
    0.4100000000E+03    0.3107644224E+00    0.3024558725E+00    0.2243175346E-01    0.1820217415E-01    0.2480056076E+00
    0.4300000000E+03    0.3181122111E+00    0.3049775685E+00    0.2226612172E-01    0.1863305665E-01    0.2501442498E+00
    0.4500000000E+03    0.3251347036E+00    0.3073147248E+00    0.2208747046E-01    0.1904489847E-01    0.2521303394E+00
    0.4700000000E+03    0.3318542422E+00    0.3094870327E+00    0.2189825183E-01    0.1943900660E-01    0.2539800103E+00
    0.4900000000E+03    0.3382910654E+00    0.3115114652E+00    0.2170054600E-01    0.1981656502E-01    0.2557071795E+00
    0.1000000000E+03    0.1246753617E+00    0.1960948596E+00    0.1797800481E-01    0.7298793289E-02    0.1597575206E+00
    0.3000000000E+03    0.2632782635E+00    0.2840232653E+00    0.2294902957E-01    0.1541834182E-01    0.2324818327E+00
    0.5000000000E+03    0.3414092700E+00    0.3124729028E+00    0.2159907375E-01    0.1999947806E-01    0.2565286613E+00
    0.7000000000E+03    0.3926142208E+00    0.3266512309E+00    0.1943400520E-01    0.2300437874E-01    0.2687561446E+00
    0.9000000000E+03    0.4290526247E+00    0.3351691417E+00    0.1738277180E-01    0.2514447620E-01    0.2762446453E+00
    0.1100000000E+04    0.4563804994E+00    0.3408595666E+00    0.1561365952E-01    0.2675078635E-01    0.2813413986E+00
    0.1300000000E+04    0.4776475788E+00    0.3449318933E+00    0.1412362214E-01    0.2800184403E-01    0.2850557161E+00
    0.1500000000E+04    0.4946647178E+00    0.3479905635E+00    0.1287232068E-01    0.2900368890E-01    0.2878955701E+00
    0.1700000000E+04    0.5085824541E+00    0.3503717478E+00    0.1181677225E-01    0.2982371303E-01    0.2901453983E+00
    0.1900000000E+04    0.5201695107E+00    0.3522775098E+00    0.1091988287E-01    0.3050695662E-01    0.2919773044E+00
    0.2100000000E+04    0.5299599893E+00    0.3538367033E+00    0.1015160770E-01    0.3108472192E-01    0.2935017520E+00
    0.2300000000E+04    0.5383368408E+00    0.3551354177E+00    0.9488123786E-02    0.3157945885E-01    0.2947930163E+00
    0.2500000000E+04    0.5455818741E+00    0.3562333820E+00    0.8910635512E-02    0.3200769260E-01    0.2959029550E+00
    0.2700000000E+04    0.5519070701E+00    0.3571733490E+00    0.8404280923E-02    0.3238185706E-01    0.2968689176E+00
    0.2900000000E+04    0.5574749150E+00    0.3579867327E+00    0.7957243019E-02    0.3271148556E-01    0.2977185173E+00
    0.3100000000E+04    0.5624120127E+00    0.3586971377E+00    0.7560059118E-02    0.3300400817E-01    0.2984726291E+00
    0.3300000000E+04    0.5668184400E+00    0.3593226462E+00    0.7205093264E-02    0.3326529975E-01    0.2991473403E+00
    0.3500000000E+04    0.5707743222E+00    0.3598773446E+00    0.6886135177E-02    0.3350006518E-01    0.2997552586E+00
    0.3700000000E+04    0.5743445480E+00    0.3603723704E+00    0.6598095018E-02    0.3371211571E-01    0.3003064114E+00
    0.3900000000E+04    0.5775822109E+00    0.3608166459E+00    0.6336770085E-02    0.3390457062E-01    0.3008088790E+00
    0.4100000000E+04    0.5805311600E+00    0.3612174030E+00    0.6098665403E-02    0.3408000679E-01    0.3012692491E+00
    0.4300000000E+04    0.5832279184E+00    0.3615805655E+00    0.5880854828E-02    0.3424057113E-01    0.3016929492E+00
    0.4500000000E+04    0.5857031443E+00    0.3619110322E+00    0.5680872726E-02    0.3438806629E-01    0.3020844934E+00
    0.4700000000E+04    0.5879827567E+00    0.3622128891E+00    0.5496628898E-02    0.3452401666E-01    0.3024476687E+00
    0.4900000000E+04    0.5900888128E+00    0.3624895715E+00    0.5326341264E-02    0.3464971988E-01    0.3027856770E+00
    0.1000000000E+04    0.4436255588E+00    0.3382715547E+00    0.1646150967E-01    0.2600090194E-01    0.2790118292E+00
    0.3000000000E+04    0.5600155186E+00    0.3583535687E+00    0.7752934144E-02    0.3286198663E-01    0.2981064093E+00
    0.5000000000E+04    0.5910827669E+00    0.3626193990E+00    0.5245944944E-02    0.3470908243E-01    0.3029461117E+00
    0.7000000000E+04    0.6052628545E+00    0.3644113212E+00    0.4094601259E-02    0.3555928233E-01    0.3053232292E+00
    0.9000000000E+04    0.6133369500E+00    0.3653651934E+00    0.3429825349E-02    0.3604747266E-01    0.3067926191E+00
    0.1100000000E+05    0.6185368820E+00    0.3659389199E+00    0.2992852927E-02    0.3636453273E-01    0.3078163867E+00
    0.1300000000E+05    0.6221603816E+00    0.3663101812E+00    0.2680957850E-02    0.3658733066E-01    0.3085840744E+00
    0.1500000000E+05    0.6248276733E+00    0.3665619586E+00    0.2445395886E-02    0.3675270918E-01    0.3091890236E+00
    0.1700000000E+05    0.6268719678E+00    0.3667380043E+00    0.2260049960E-02    0.3688051824E-01    0.3096830434E+00
    0.1900000000E+05    0.6284880517E+00    0.3668634614E+00    0.2109637967E-02    0.3698239464E-01    0.3100974393E+00
    0.2100000000E+05    0.6297973150E+00    0.3669537409E+00    0.1984600238E-02    0.3706561102E-01    0.3104523685E+00
    0.2300000000E+05    0.6308793032E+00    0.3670187747E+00    0.1878635496E-02    0.3713494661E-01    0.3107614680E+00
    0.2500000000E+05    0.6317882966E+00    0.3670652252E+00    0.1787411733E-02    0.3719367193E-01    0.3110343358E+00
    0.2700000000E+05    0.6325625917E+00    0.3670977107E+00    0.1707846090E-02    0.3724410099E-01    0.3112779496E+00
    0.2900000000E+05    0.6332299753E+00    0.3671195212E+00    0.1637680441E-02    0.3728791752E-01    0.3114975213E+00
    0.3100000000E+05    0.6338110942E+00    0.3671330551E+00    0.1575219833E-02    0.3732637614E-01    0.3116970337E+00
    0.3300000000E+05    0.6343216082E+00    0.3671400958E+00    0.1519165079E-02    0.3736043114E-01    0.3118795907E+00
    0.3500000000E+05    0.6347736083E+00    0.3671419919E+00    0.1468502098E-02    0.3739082140E-01    0.3120476528E+00
    0.3700000000E+05    0.6351765776E+00    0.3671397787E+00    0.1422426669E-02    0.3741812808E-01    0.3122031996E+00
    0.3900000000E+05    0.6355380579E+00    0.3671342612E+00    0.1380292003E-02    0.3744281465E-01    0.3123478449E+00
    0.4100000000E+05    0.6358641220E+00    0.3671260725E+00    0.1341571417E-02    0.3746525538E-01    0.3124829198E+00
    0.4300000000E+05    0.6361597140E+00    0.3671157160E+00    0.1305831234E-02    0.3748575580E-01    0.3126095336E+00
    0.4500000000E+05    0.6364289001E+00    0.3671035949E+00    0.1272710771E-02    0.3750456793E-01    0.3127286196E+00
    0.4700000000E+05    0.6366750547E+00    0.3670900355E+00    0.1241907334E-02    0.3752190148E-01    0.3128409697E+00
    0.4900000000E+05    0.6369010016E+00    0.3670753032E+00    0.1213164804E-02    0.3753793243E-01    0.3129472610E+00
    0.1000000000E+05    0.6161915389E+00    0.3656851502E+00    0.3191167383E-02    0.3622120011E-01    0.3073450349E+00
    0.3000000000E+05    0.6335302416E+00    0.3671271993E+00    0.1605575972E-02    0.3730775105E-01    0.3115995736E+00
    0.5000000000E+05    0.6370071561E+00    0.3670675668E+00    0.1199496870E-02    0.3754550684E-01    0.3129983200E+00
    0.7000000000E+05    0.6384897516E+00    0.3668875891E+00    0.9950151550E-03    0.3765501548E-01    0.3138082363E+00
    0.9000000000E+05    0.6393091654E+00    0.3666998997E+00    0.8669178221E-03    0.3772001931E-01    0.3143710540E+00
    0.1100000000E+06    0.6398279919E+00    0.3665237886E+00    0.7772101405E-03    0.3776402709E-01    0.3147997264E+00
    0.1300000000E+06    0.6401854160E+00    0.3663621847E+00    0.7099578560E-03    0.3779632115E-01    0.3151447546E+00
    0.1500000000E+06    0.6404462596E+00    0.3662143208E+00    0.6571619747E-03    0.3782134306E-01    0.3154328747E+00
    0.1700000000E+06    0.6406447726E+00    0.3660786437E+00    0.6143115846E-03    0.3784150188E-01    0.3156798782E+00
    0.1900000000E+06    0.6408007466E+00    0.3659535818E+00    0.5786454817E-03    0.3785822556E-01    0.3158958398E+00
    0.2100000000E+06    0.6409264110E+00    0.3658377413E+00    0.5483670053E-03    0.3787241861E-01    0.3160875661E+00
    0.2300000000E+06    0.6410297273E+00    0.3657299366E+00    0.5222503832E-03    0.3788468430E-01    0.3162598640E+00
    0.2500000000E+06    0.6411161000E+00    0.3656291715E+00    0.4994270640E-03    0.3789544196E-01    0.3164162505E+00
    0.2700000000E+06    0.6411893259E+00    0.3655346106E+00    0.4792622557E-03    0.3790499308E-01    0.3165593743E+00
    0.2900000000E+06    0.6412521496E+00    0.3654455513E+00    0.4612798786E-03    0.3791356061E-01    0.3166912781E+00
    0.3100000000E+06    0.6413066043E+00    0.3653613988E+00    0.4451149920E-03    0.3792131340E-01    0.3168135701E+00
    0.3300000000E+06    0.6413542277E+00    0.3652816473E+00    0.4304825539E-03    0.3792838198E-01    0.3169275380E+00
    0.3500000000E+06    0.6413962042E+00    0.3652058632E+00    0.4171562767E-03    0.3793486905E-01    0.3170342287E+00
    0.3700000000E+06    0.6414334604E+00    0.3651336730E+00    0.4049539384E-03    0.3794085669E-01    0.3171345048E+00
    0.3900000000E+06    0.6414667319E+00    0.3650647526E+00    0.3937269437E-03    0.3794641137E-01    0.3172290848E+00
    0.4100000000E+06    0.6414966098E+00    0.3649988193E+00    0.3833527542E-03    0.3795158764E-01    0.3173185738E+00
    0.4300000000E+06    0.6415235745E+00    0.3649356254E+00    0.3737293010E-03    0.3795643069E-01    0.3174034858E+00
    0.4500000000E+06    0.6415480202E+00    0.3648749523E+00    0.3647707937E-03    0.3796097836E-01    0.3174842613E+00
    0.4700000000E+06    0.6415702736E+00    0.3648166064E+00    0.3564045327E-03    0.3796526262E-01    0.3175612803E+00
    0.4900000000E+06    0.6415906078E+00    0.3647604155E+00    0.3485684507E-03    0.3796931067E-01    0.3176348733E+00
    0.1000000000E+06    0.6395948373E+00    0.3666100629E+00    0.8185336068E-03    0.3774389851E-01    0.3145982003E+00
    0.3000000000E+06    0.6412803173E+00    0.3654028952E+00    0.4529896505E-03    0.3791752993E-01    0.3167535387E+00
    0.5000000000E+06    0.6416001283E+00    0.3647330795E+00    0.3448322579E-03    0.3797125354E-01    0.3176704766E+00
    0.7000000000E+06    0.6417302362E+00    0.3642695153E+00    0.2882082688E-03    0.3800195900E-01    0.3182569867E+00
    0.9000000000E+06    0.6417986828E+00    0.3639144501E+00    0.2520951322E-03    0.3802322599E-01    0.3186881992E+00
    0.1100000000E+07    0.6418397968E+00    0.3636264527E+00    0.2265464464E-03    0.3803942294E-01    0.3190290450E+00
    0.1300000000E+07    0.6418665644E+00    0.3633840757E+00    0.2072685223E-03    0.3805247510E-01    0.3193107667E+00
    0.1500000000E+07    0.6418849466E+00    0.3631747669E+00    0.1920669521E-03    0.3806339312E-01    0.3195507973E+00
    0.1700000000E+07    0.6418980469E+00    0.3629905408E+00    0.1796890634E-03    0.3807277086E-01    0.3197598551E+00
    0.1900000000E+07    0.6419076320E+00    0.3628259994E+00    0.1693612992E-03    0.3808098594E-01    0.3199449989E+00
    0.2100000000E+07    0.6419147768E+00    0.3626773223E+00    0.1605769720E-03    0.3808829298E-01    0.3201111238E+00
    0.2300000000E+07    0.6419201703E+00    0.3625417053E+00    0.1529886043E-03    0.3809487159E-01    0.3202617626E+00
    0.2500000000E+07    0.6419242725E+00    0.3624170289E+00    0.1463489643E-03    0.3810085311E-01    0.3203995488E+00
    0.2700000000E+07    0.6419274015E+00    0.3623016519E+00    0.1404767507E-03    0.3810633642E-01    0.3205264974E+00
    0.2900000000E+07    0.6419297834E+00    0.3621942776E+00    0.1352356115E-03    0.3811139782E-01    0.3206441844E+00
    0.3100000000E+07    0.6419315826E+00    0.3620938632E+00    0.1305207801E-03    0.3811609735E-01    0.3207538659E+00
    0.3300000000E+07    0.6419329214E+00    0.3619995576E+00    0.1262502631E-03    0.3812048316E-01    0.3208565589E+00
    0.3500000000E+07    0.6419338923E+00    0.3619106574E+00    0.1223588560E-03    0.3812459438E-01    0.3209530983E+00
    0.3700000000E+07    0.6419345664E+00    0.3618265741E+00    0.1187939732E-03    0.3812846329E-01    0.3210441782E+00
    0.3900000000E+07    0.6419349989E+00    0.3617468105E+00    0.1155126768E-03    0.3813211680E-01    0.3211303816E+00
    0.4100000000E+07    0.6419352335E+00    0.3616709429E+00    0.1124795175E-03    0.3813557757E-01    0.3212122028E+00
    0.4300000000E+07    0.6419353049E+00    0.3615986069E+00    0.1096649371E-03    0.3813886489E-01    0.3212900648E+00
    0.4500000000E+07    0.6419352410E+00    0.3615294873E+00    0.1070440691E-03    0.3814199528E-01    0.3213643322E+00
    0.4700000000E+07    0.6419350644E+00    0.3614633093E+00    0.1045958237E-03    0.3814498302E-01    0.3214353215E+00
    0.4900000000E+07    0.6419347936E+00    0.3613998317E+00    0.1023021823E-03    0.3814784053E-01    0.3215033093E+00
    0.1000000000E+07    0.6418215967E+00    0.3637636951E+00    0.2383400603E-03    0.3803180690E-01    0.3188675096E+00
    0.3000000000E+07    0.6419307473E+00    0.3621432575E+00    0.1328179847E-03    0.3811378957E-01    0.3206999574E+00
    0.5000000000E+07    0.6419346278E+00    0.3613690381E+00    0.1012084089E-03    0.3814922389E-01    0.3215362546E+00
    0.7000000000E+07    0.6419289449E+00    0.3608544164E+00    0.8461883188E-04    0.3817210027E-01    0.3220836563E+00
    0.9000000000E+07    0.6419217365E+00    0.3604681221E+00    0.7402776443E-04    0.3818902286E-01    0.3224911158E+00
    0.1100000000E+08    0.6419145744E+00    0.3601586680E+00    0.6653100820E-04    0.3820245873E-01    0.3228157429E+00
    0.1300000000E+08    0.6419078326E+00    0.3599004529E+00    0.6087249318E-04    0.3821360206E-01    0.3230855601E+00
    0.1500000000E+08    0.6419015796E+00    0.3596788693E+00    0.5640956850E-04    0.3822312242E-01    0.3233164124E+00
    0.1700000000E+08    0.6418957958E+00    0.3594847879E+00    0.5277512006E-04    0.3823143311E-01    0.3235181367E+00
    0.1900000000E+08    0.6418904378E+00    0.3593121194E+00    0.4974233531E-04    0.3823880725E-01    0.3236972605E+00
    0.2100000000E+08    0.6418854586E+00    0.3591565982E+00    0.4716259734E-04    0.3824543477E-01    0.3238583375E+00
    0.2300000000E+08    0.6418808148E+00    0.3590151192E+00    0.4493396014E-04    0.3825145311E-01    0.3240046707E+00
    0.2500000000E+08    0.6418764679E+00    0.3588853519E+00    0.4298387382E-04    0.3825696493E-01    0.3241387322E+00
    0.2700000000E+08    0.6418723847E+00    0.3587655020E+00    0.4125912701E-04    0.3826204897E-01    0.3242624205E+00
