  Pressure (Pa) 22mC5-400 (mol/kg) 3mC6-400 (mol/kg) 33mC5-400 (mol/kg) 23mC5-400 (mol/kg) C7-400 (mol/kg)
    0.1000000000E+01    0.1592648259E-02    0.2646014384E-02    0.2597197522E-03    0.6525197141E-03    0.1717450384E-02
    0.3000000000E+01    0.4744209206E-02    0.7832890340E-02    0.7671990313E-03    0.1943749499E-02    0.5084417555E-02
    0.5000000000E+01    0.7851609044E-02    0.1288417575E-01    0.1259239498E-02    0.3216901864E-02    0.8363782276E-02
    0.7000000000E+01    0.1091580623E-01    0.1780515433E-01    0.1736424609E-02    0.4472369047E-02    0.1155895287E-01
    0.9000000000E+01    0.1393773142E-01    0.2260083832E-01    0.2199309404E-02    0.5710531917E-02    0.1467316269E-01
    0.1100000000E+02    0.1691828848E-01    0.2727598574E-01    0.2648422233E-02    0.6931760379E-02    0.1770948119E-01
    0.1300000000E+02    0.1985835544E-01    0.3183511624E-01    0.3084266361E-02    0.8136413764E-02    0.2067082421E-01
    0.1500000000E+02    0.2275878542E-01    0.3628252593E-01    0.3507321452E-02    0.9324841206E-02    0.2355996348E-01
    0.1700000000E+02    0.2562040746E-01    0.4062230095E-01    0.3918044953E-02    0.1049738200E-01    0.2637953540E-01
    0.1900000000E+02    0.2844402742E-01    0.4485833025E-01    0.4316873375E-02    0.1165436594E-01    0.2913204921E-01
    0.2100000000E+02    0.3123042874E-01    0.4899431725E-01    0.4704223490E-02    0.1279611365E-01    0.3181989457E-01
    0.2300000000E+02    0.3398037325E-01    0.5303379086E-01    0.5080493439E-02    0.1392293692E-01    0.3444534864E-01
    0.2500000000E+02    0.3669460186E-01    0.5698011559E-01    0.5446063777E-02    0.1503513897E-01    0.3701058255E-01
    0.2700000000E+02    0.3937383531E-01    0.6083650104E-01    0.5801298430E-02    0.1613301477E-01    0.3951766762E-01
    0.2900000000E+02    0.4201877486E-01    0.6460601071E-01    0.6146545606E-02    0.1721685132E-01    0.4196858091E-01
    0.3100000000E+02    0.4463010289E-01    0.6829157024E-01    0.6482138637E-02    0.1828692789E-01    0.4436521062E-01
    0.3300000000E+02    0.4720848358E-01    0.7189597508E-01    0.6808396769E-02    0.1934351631E-01    0.4670936100E-01
    0.3500000000E+02    0.4975456351E-01    0.7542189764E-01    0.7125625899E-02    0.2038688119E-01    0.4900275695E-01
    0.3700000000E+02    0.5226897219E-01    0.7887189401E-01    0.7434119271E-02    0.2141728019E-01    0.5124704838E-01
    0.3900000000E+02    0.5475232270E-01    0.8224841019E-01    0.7734158123E-02    0.2243496420E-01    0.5344381421E-01
    0.4100000000E+02    0.5720521212E-01    0.8555378803E-01    0.8026012298E-02    0.2344017761E-01    0.5559456616E-01
    0.4300000000E+02    0.5962822216E-01    0.8879027062E-01    0.8309940814E-02    0.2443315848E-01    0.5770075231E-01
    0.4500000000E+02    0.6202191956E-01    0.9196000753E-01    0.8586192403E-02    0.2541413878E-01    0.5976376038E-01
    0.4700000000E+02    0.6438685662E-01    0.9506505961E-01    0.8855006016E-02    0.2638334453E-01    0.6178492089E-01
    0.4900000000E+02    0.6672357164E-01    0.9810740349E-01    0.9116611298E-02    0.2734099606E-01    0.6376551005E-01
    0.1000000000E+02    0.1543312549E-01    0.2495319122E-01    0.2425555290E-02    0.6323240247E-02    0.1620087262E-01
    0.3000000000E+02    0.4332859838E-01    0.6645910656E-01    0.6315528615E-02    0.1775359244E-01    0.4317356653E-01
    0.5000000000E+02    0.6788151037E-01    0.9960565560E-01    0.9244780145E-02    0.2781555631E-01    0.6474097502E-01
    0.7000000000E+02    0.8967972827E-01    0.1267013452E+00    0.1147914250E-01    0.3674972882E-01    0.8239331328E-01
    0.9000000000E+02    0.1091792638E+00    0.1492749063E+00    0.1319809590E-01    0.4474274967E-01    0.9711785334E-01
    0.1100000000E+03    0.1267393177E+00    0.1683790785E+00    0.1452706348E-01    0.5194164069E-01    0.1095947591E+00
    0.1300000000E+03    0.1426467382E+00    0.1847626178E+00    0.1555615271E-01    0.5846381396E-01    0.1203080008E+00
    0.1500000000E+03    0.1571334343E+00    0.1989727233E+00    0.1635158544E-01    0.6440419749E-01    0.1296114198E+00
    0.1700000000E+03    0.1703889973E+00    0.2114186501E+00    0.1696295897E-01    0.6984040006E-01    0.1377697691E+00
    0.1900000000E+03    0.1825699970E+00    0.2224126504E+00    0.1742801834E-01    0.7483651550E-01    0.1449851347E+00
    0.2100000000E+03    0.1938069296E+00    0.2321971431E+00    0.1777588414E-01    0.7944596602E-01    0.1514144732E+00
    0.2300000000E+03    0.2042094801E+00    0.2409632308E+00    0.1802929003E-01    0.8371365583E-01    0.1571815675E+00
    0.2500000000E+03    0.2138705569E+00    0.2488636170E+00    0.1820616696E-01    0.8767762223E-01    0.1623853699E+00
    0.2700000000E+03    0.2228694197E+00    0.2560218063E+00    0.1832078580E-01    0.9137031591E-01    0.1671059449E+00
    0.2900000000E+03    0.2312741305E+00    0.2625387778E+00    0.1838459498E-01    0.9481960382E-01    0.1714087817E+00
    0.3100000000E+03    0.2391434911E+00    0.2684979066E+00    0.1840684339E-01    0.9804956252E-01    0.1753479749E+00
    0.3300000000E+03    0.2465285906E+00    0.2739686480E+00    0.1839504967E-01    0.1010811112E+00    0.1789686062E+00
    0.3500000000E+03    0.2534740494E+00    0.2790093320E+00    0.1835535981E-01    0.1039325211E+00    0.1823085521E+00
    0.3700000000E+03    0.2600190290E+00    0.2836693107E+00    0.1829282249E-01    0.1066198287E+00    0.1853998722E+00
    0.3900000000E+03    0.2661980563E+00    0.2879906253E+00    0.1821160309E-01    0.1091571731E+00    0.1882698885E+00
    0.4100000000E+03    0.2720417012E+00    0.2920093152E+00    0.1811515152E-01    0.1115570735E+00    0.1909420316E+00
    0.4300000000E+03    0.2775771386E+00    0.2957564547E+00    0.1800633475E-01    0.1138306590E+00    0.1934365127E+00
    0.4500000000E+03    0.2828286148E+00    0.2992589819E+00    0.1788754236E-01    0.1159878601E+00    0.1957708599E+00
    0.4700000000E+03    0.2878178397E+00    0.3025403668E+00    0.1776077107E-01    0.1180375683E+00    0.1979603507E+00
    0.4900000000E+03    0.2925643155E+00    0.3056211532E+00    0.1762769288E-01    0.1199877716E+00    0.2000183634E+00
    0.1000000000E+03    0.1181823341E+00    0.1592081878E+00    0.1390502834E-01    0.4843352408E-01    0.1036033451E+00
    0.3000000000E+03    0.2352723716E+00    0.2655834418E+00    0.1840040847E-01    0.9646062437E-01    0.1734208285E+00
    0.5000000000E+03    0.2948520829E+00    0.3070920526E+00    0.1755923620E-01    0.1209278364E+00    0.2010017987E+00
    0.7000000000E+03    0.3313306174E+00    0.3293896837E+00    0.1609870719E-01    0.1359255337E+00    0.2159918659E+00
    0.9000000000E+03    0.3560280914E+00    0.3433696126E+00    0.1473155926E-01    0.1460911209E+00    0.2254968893E+00
    0.1100000000E+04    0.3738618385E+00    0.3529802751E+00    0.1356331727E-01    0.1534398424E+00    0.2321034811E+00
    0.1300000000E+04    0.3873371067E+00    0.3600053852E+00    0.1258176170E-01    0.1589988180E+00    0.2369849400E+00
    0.1500000000E+04    0.3978706603E+00    0.3653709061E+00    0.1175476989E-01    0.1633491309E+00    0.2407527828E+00
    0.1700000000E+04    0.4063255567E+00    0.3696062511E+00    0.1105189282E-01    0.1668449004E+00    0.2437580089E+00
    0.1900000000E+04    0.4132579034E+00    0.3730364669E+00    0.1044834312E-01    0.1697143896E+00    0.2462169537E+00
    0.2100000000E+04    0.4190421926E+00    0.3758723843E+00    0.9924773874E-02    0.1721113738E+00    0.2482704689E+00
    0.2300000000E+04    0.4239397948E+00    0.3782568495E+00    0.9466225687E-02    0.1741432187E+00    0.2500143456E+00
    0.2500000000E+04    0.4281386168E+00    0.3802901485E+00    0.9061098219E-02    0.1758871419E+00    0.2515160841E+00
    0.2700000000E+04    0.4317771735E+00    0.3820447981E+00    0.8700324846E-02    0.1774000858E+00    0.2528246731E+00
    0.2900000000E+04    0.4349597825E+00    0.3835745586E+00    0.8376749360E-02    0.1787249508E+00    0.2539765630E+00
    0.3100000000E+04    0.4377664802E+00    0.3849201456E+00    0.8084664512E-02    0.1798946640E+00    0.2549994593E+00
    0.3300000000E+04    0.4402596812E+00    0.3861129699E+00    0.7819471563E-02    0.1809349129E+00    0.2559148124E+00
    0.3500000000E+04    0.4424887628E+00    0.3871776585E+00    0.7577428146E-02    0.1818660266E+00    0.2567394999E+00
    0.3700000000E+04    0.4444932914E+00    0.3881337970E+00    0.7355460162E-02    0.1827043014E+00    0.2574869920E+00
    0.3900000000E+04    0.4463053375E+00    0.3889971601E+00    0.7151020173E-02    0.1834629511E+00    0.2581681756E+00
    0.4100000000E+04    0.4479511660E+00    0.3897805974E+00    0.6961979800E-02    0.1841528018E+00    0.2587919501E+00
    0.4300000000E+04    0.4494524896E+00    0.3904946834E+00    0.6786547144E-02    0.1847828064E+00    0.2593656643E+00
    0.4500000000E+04    0.4508274115E+00    0.3911482006E+00    0.6623202821E-02    0.1853604322E+00    0.2598954429E+00
    0.4700000000E+04    0.4520911433E+00    0.3917485049E+00    0.6470649955E-02    0.1858919565E+00    0.2603864330E+00
    0.4900000000E+04    0.4532565593E+00    0.3923018042E+00    0.6327774737E-02    0.1863826938E+00    0.2608429935E+00
    0.1000000000E+04    0.3656112565E+00    0.3485808389E+00    0.1412236936E-01    0.1500390149E+00    0.2290703288E+00
    0.3000000000E+04    0.4364058681E+00    0.3842682267E+00    0.8227080690E-02    0.1793274516E+00    0.2545026709E+00
    0.5000000000E+04    0.4538058909E+00    0.3925625074E+00    0.6259660384E-02    0.1866142093E+00    0.2610595460E+00
    0.7000000000E+04    0.4615981136E+00    0.3962523246E+00    0.5228835539E-02    0.1899161472E+00    0.2642518809E+00
    0.9000000000E+04    0.4660008538E+00    0.3983250557E+00    0.4573611525E-02    0.1918037438E+00    0.2662021677E+00
    0.1100000000E+05    0.4688239372E+00    0.3996427659E+00    0.4111214016E-02    0.1930282544E+00    0.2675450825E+00
    0.1300000000E+05    0.4707849394E+00    0.4005476081E+00    0.3762848159E-02    0.1938887496E+00    0.2685409325E+00
    0.1500000000E+05    0.4722245728E+00    0.4012025123E+00    0.3488392782E-02    0.1945277980E+00    0.2693175980E+00
    0.1700000000E+05    0.4733251896E+00    0.4016949350E+00    0.3265025519E-02    0.1950220063E+00    0.2699458115E+00
    0.1900000000E+05    0.4741931332E+00    0.4020760012E+00    0.3078693907E-02    0.1954162258E+00    0.2704681410E+00
    0.2100000000E+05    0.4748945680E+00    0.4023775745E+00    0.2920214554E-02    0.1957384716E+00    0.2709118792E+00
    0.2300000000E+05    0.4754727992E+00    0.4026205319E+00    0.2783300878E-02    0.1960071520E+00    0.2712954096E+00
    0.2500000000E+05    0.4759573495E+00    0.4028191116E+00    0.2663486116E-02    0.1962348655E+00    0.2716316145E+00
    0.2700000000E+05    0.4763690320E+00    0.4029833492E+00    0.2557498144E-02    0.1964305287E+00    0.2719298187E+00
    0.2900000000E+05    0.4767229375E+00    0.4031205156E+00    0.2462878086E-02    0.1966006320E+00    0.2721969573E+00
    0.3100000000E+05    0.4770302721E+00    0.4032360031E+00    0.2377737812E-02    0.1967500136E+00    0.2724383079E+00
    0.3300000000E+05    0.4772995298E+00    0.4033338921E+00    0.2300600307E-02    0.1968823550E+00    0.2726579667E+00
    0.3500000000E+05    0.4775372650E+00    0.4034173241E+00    0.2230291385E-02    0.1970005084E+00    0.2728591679E+00
    0.3700000000E+05    0.4777486154E+00    0.4034887554E+00    0.2165864327E-02    0.1971067178E+00    0.2730445034E+00
    0.3900000000E+05    0.4779376644E+00    0.4035501327E+00    0.2106546240E-02    0.1972027739E+00    0.2732160785E+00
    0.4100000000E+05    0.4781076981E+00    0.4036030170E+00    0.2051699088E-02    0.1972901230E+00    0.2733756230E+00
    0.4300000000E+05    0.4782613900E+00    0.4036486741E+00    0.2000790899E-02    0.1973699467E+00    0.2735245736E+00
    0.4500000000E+05    0.4784009376E+00    0.4036881403E+00    0.1953374141E-02    0.1974432198E+00    0.2736641347E+00
    0.4700000000E+05    0.4785281635E+00    0.4037222712E+00    0.1909069249E-02    0.1975107538E+00    0.2737953249E+00
    0.4900000000E+05    0.4786445916E+00    0.4037517793E+00    0.1867551917E-02    0.1975732301E+00    0.2739190122E+00
    0.1000000000E+05    0.4675518647E+00    0.3990506584E+00    0.4324551797E-02    0.1924747421E+00    0.2669287018E+00
    0.3000000000E+05    0.4768818423E+00    0.4031806885E+00    0.2419223460E-02    0.1966776602E+00    0.2723205767E+00
    0.5000000000E+05    0.4786991658E+00    0.4037649903E+00    0.1847749862E-02    0.1976027551E+00    0.2739782793E+00
    0.7000000000E+05    0.4794502176E+00    0.4038908419E+00    0.1547091719E-02    0.1980300509E+00    0.2749054771E+00
    0.9000000000E+05    0.4798516249E+00    0.4038867288E+00    0.1354797709E-02    0.1982840795E+00    0.2755356263E+00
    0.1100000000E+06    0.4800969143E+00    0.4038351143E+00    0.1218498276E-02    0.1984562176E+00    0.2760080658E+00
    0.1300000000E+06    0.4802596832E+00    0.4037645464E+00    0.1115509830E-02    0.1985826140E+00    0.2763838199E+00
    0.1500000000E+06    0.4803738724E+00    0.4036867471E+00    0.1034211509E-02    0.1986805887E+00    0.2766946723E+00
    0.1700000000E+06    0.4804572334E+00    0.4036070301E+00    0.9679574994E-03    0.1987595451E+00    0.2769591468E+00
    0.1900000000E+06    0.4805199167E+00    0.4035279347E+00    0.9126379170E-03    0.1988250612E+00    0.2771889291E+00
    0.2100000000E+06    0.4805681271E+00    0.4034506908E+00    0.8655575634E-03    0.1988806723E+00    0.2773918387E+00
    0.2300000000E+06    0.4806058598E+00    0.4033758719E+00    0.8248662854E-03    0.1989287374E+00    0.2775733519E+00
    0.2500000000E+06    0.4806357964E+00    0.4033037095E+00    0.7892465769E-03    0.1989708971E+00    0.2777374463E+00
    0.2700000000E+06    0.4806597993E+00    0.4032342530E+00    0.7577315680E-03    0.1990083309E+00    0.2778870978E+00
    0.2900000000E+06    0.4806791994E+00    0.4031674550E+00    0.7295936335E-03    0.1990419115E+00    0.2780245885E+00
    0.3100000000E+06    0.4806949706E+00    0.4031032179E+00    0.7042733797E-03    0.1990723001E+00    0.2781517053E+00
    0.3300000000E+06    0.4807078407E+00    0.4030414196E+00    0.6813327862E-03    0.1991000077E+00    0.2782698722E+00
    0.3500000000E+06    0.4807183636E+00    0.4029819287E+00    0.6604233604E-03    0.1991254365E+00    0.2783802424E+00
    0.3700000000E+06    0.4807269670E+00    0.4029246128E+00    0.6412639360E-03    0.1991489081E+00    0.2784837615E+00
    0.3900000000E+06    0.4807339863E+00    0.4028693428E+00    0.6236248439E-03    0.1991706828E+00    0.2785812149E+00
    0.4100000000E+06    0.4807396875E+00    0.4028159959E+00    0.6073164037E-03    0.1991909744E+00    0.2786732616E+00
    0.4300000000E+06    0.4807442838E+00    0.4027644561E+00    0.5921804070E-03    0.1992099598E+00    0.2787604596E+00
    0.4500000000E+06    0.4807479481E+00    0.4027146155E+00    0.5780837165E-03    0.1992277875E+00    0.2788432856E+00
    0.4700000000E+06    0.4807508215E+00    0.4026663733E+00    0.5649133854E-03    0.1992445826E+00    0.2789221499E+00
    0.4900000000E+06    0.4807530204E+00    0.4026196362E+00    0.5525728899E-03    0.1992604518E+00    0.2789974083E+00
    0.1000000000E+06    0.4799877864E+00    0.4038644691E+00    0.1281442663E-02    0.1983774684E+00    0.2757867534E+00
    0.3000000000E+06    0.4806874883E+00    0.4031350236E+00    0.7166110870E-03    0.1990574699E+00    0.2780893474E+00
    0.5000000000E+06    0.4807538978E+00    0.4025968048E+00    0.5466874196E-03    0.1992680682E+00    0.2790337838E+00
    0.7000000000E+06    0.4807525922E+00    0.4022014315E+00    0.4573702878E-03    0.1993884396E+00    0.2796300854E+00
    0.9000000000E+06    0.4807355448E+00    0.4018900401E+00    0.4002985113E-03    0.1994718082E+00    0.2800653652E+00
    0.1100000000E+07    0.4807143603E+00    0.4016332391E+00    0.3598767794E-03    0.1995353000E+00    0.2804078251E+00
    0.1300000000E+07    0.4806925543E+00    0.4014146846E+00    0.3293530834E-03    0.1995864629E+00    0.2806899419E+00
    0.1500000000E+07    0.4806713336E+00    0.4012244055E+00    0.3052703401E-03    0.1996292596E+00    0.2809297067E+00
    0.1700000000E+07    0.4806511094E+00    0.4010558817E+00    0.2856526070E-03    0.1996660181E+00    0.2811381211E+00
    0.1900000000E+07    0.4806319889E+00    0.4009046176E+00    0.2692785630E-03    0.1996982188E+00    0.2813223997E+00
    0.2100000000E+07    0.4806139575E+00    0.4007673833E+00    0.2553476610E-03    0.1997268601E+00    0.2814875285E+00
    0.2300000000E+07    0.4805969534E+00    0.4006417797E+00    0.2433105878E-03    0.1997526459E+00    0.2816370958E+00
    0.2500000000E+07    0.4805808989E+00    0.4005259761E+00    0.2327763224E-03    0.1997760913E+00    0.2817737698E+00
    0.2700000000E+07    0.4805657141E+00    0.4004185437E+00    0.2234580074E-03    0.1997975837E+00    0.2818995878E+00
    0.2900000000E+07    0.4805513231E+00    0.4003183457E+00    0.2151398334E-03    0.1998174223E+00    0.2820161406E+00
    0.3100000000E+07    0.4805376561E+00    0.4002244627E+00    0.2076559345E-03    0.1998358425E+00    0.2821246939E+00
    0.3300000000E+07    0.4805246501E+00    0.4001361406E+00    0.2008764667E-03    0.1998530330E+00    0.2822262710E+00
    0.3500000000E+07    0.4805122488E+00    0.4000527531E+00    0.1946981500E-03    0.1998691472E+00    0.2823217110E+00
    0.3700000000E+07    0.4805004015E+00    0.3999737745E+00    0.1890376753E-03    0.1998843116E+00    0.2824117106E+00
    0.3900000000E+07    0.4804890635E+00    0.3998987590E+00    0.1838270060E-03    0.1998986317E+00    0.2824968544E+00
    0.4100000000E+07    0.4804781945E+00    0.3998273252E+00    0.1790099622E-03    0.1999121963E+00    0.2825776376E+00
    0.4300000000E+07    0.4804677587E+00    0.3997591447E+00    0.1745396938E-03    0.1999250810E+00    0.2826544837E+00
    0.4500000000E+07    0.4804577241E+00    0.3996939321E+00    0.1703767810E-03    0.1999373507E+00    0.2827277573E+00
    0.4700000000E+07    0.4804480617E+00    0.3996314382E+00    0.1664877877E-03    0.1999490611E+00    0.2827977748E+00
    0.4900000000E+07    0.4804387457E+00    0.3995714442E+00    0.1628441434E-03    0.1999602612E+00    0.2828648122E+00
    0.1000000000E+07    0.4807251643E+00    0.4017560377E+00    0.3785404729E-03    0.1995054454E+00    0.2802456883E+00
    0.3000000000E+07    0.4805444032E+00    0.4002706653E+00    0.2113024312E-03    0.1998267970E+00    0.2820713483E+00
    0.5000000000E+07    0.4804342101E+00    0.3995423232E+00    0.1611065106E-03    0.1999656833E+00    0.2828972904E+00
    0.7000000000E+07    0.4803570501E+00    0.3990541146E+00    0.1347448491E-03    0.2000553470E+00    0.2834363424E+00
    0.9000000000E+07    0.4802977763E+00    0.3986859726E+00    0.1179085773E-03    0.2001216742E+00    0.2838369609E+00
    0.1100000000E+08    0.4802496696E+00    0.3983901835E+00    0.1059879888E-03    0.2001743349E+00    0.2841558201E+00
    0.1300000000E+08    0.4802091916E+00    0.3981428446E+00    0.9698851393E-04    0.2002180100E+00    0.2844206586E+00
    0.1500000000E+08    0.4801742544E+00    0.3979302492E+00    0.8988934908E-04    0.2002553236E+00    0.2846471339E+00
    0.1700000000E+08    0.4801435234E+00    0.3977437998E+00    0.8410722590E-04    0.2002878960E+00    0.2848449541E+00
    0.1900000000E+08    0.4801160945E+00    0.3975777454E+00    0.7928171910E-04    0.2003167975E+00    0.2850205549E+00
    0.2100000000E+08    0.4800913266E+00    0.3974280482E+00    0.7517662670E-04    0.2003427726E+00    0.2851784223E+00
    0.2300000000E+08    0.4800687490E+00    0.3972917636E+00    0.7162990089E-04    0.2003663600E+00    0.2853218083E+00
    0.2500000000E+08    0.4800480055E+00    0.3971666779E+00    0.6852620702E-04    0.2003879622E+00    0.2854531455E+00
    0.2700000000E+08    0.4800288205E+00    0.3970510846E+00    0.6578094478E-04    0.2004078876E+00    0.2855743009E+00
