  Pressure (Pa) 22mC5-400 (mol/kg) 3mC6-400 (mol/kg) 33mC5-400 (mol/kg) 23mC5-400 (mol/kg) C7-400 (mol/kg)
    0.1000000000E+01    0.1592691124E-02    0.1060388836E-02    0.6503435035E-03    0.3728783743E-03    0.1720651928E-02
    0.3000000000E+01    0.4744609011E-02    0.3150603689E-02    0.1927174980E-02    0.1110806982E-02    0.5112586309E-02
    0.5000000000E+01    0.7852757134E-02    0.5201061989E-02    0.3173002432E-02    0.1838496718E-02    0.8440297815E-02
    0.7000000000E+01    0.1091812732E-01    0.7212915809E-02    0.4388757749E-02    0.2556179542E-02    0.1170564476E-01
    0.9000000000E+01    0.1394168110E-01    0.9187272869E-02    0.5575337641E-02    0.3264080336E-02    0.1491041399E-01
    0.1100000000E+02    0.1692435088E-01    0.1112519865E-01    0.6733605253E-02    0.3962417164E-02    0.1805632424E-01
    0.1300000000E+02    0.1986704102E-01    0.1302771840E-01    0.7864391700E-02    0.4651401533E-02    0.2114502942E-01
    0.1500000000E+02    0.2277062886E-01    0.1489581901E-01    0.8968497515E-02    0.5331238637E-02    0.2417812158E-01
    0.1700000000E+02    0.2563596574E-01    0.1673045078E-01    0.1004669402E-01    0.6002127585E-02    0.2715713384E-01
    0.1900000000E+02    0.2846387796E-01    0.1853252915E-01    0.1109972462E-01    0.6664261628E-02    0.3008354306E-01
    0.2100000000E+02    0.3125516766E-01    0.2030293624E-01    0.1212830603E-01    0.7317828375E-02    0.3295877244E-01
    0.2300000000E+02    0.3401061373E-01    0.2204252235E-01    0.1313312947E-01    0.7963009991E-02    0.3578419388E-01
    0.2500000000E+02    0.3673097262E-01    0.2375210744E-01    0.1411486173E-01    0.8599983397E-02    0.3856113032E-01
    0.2700000000E+02    0.3941697916E-01    0.2543248243E-01    0.1507414624E-01    0.9228920455E-02    0.4129085793E-01
    0.2900000000E+02    0.4206934730E-01    0.2708441046E-01    0.1601160405E-01    0.9849988148E-02    0.4397460810E-01
    0.3100000000E+02    0.4468877088E-01    0.2870862815E-01    0.1692783481E-01    0.1046334875E-01    0.4661356944E-01
    0.3300000000E+02    0.4727592430E-01    0.3030584673E-01    0.1782341763E-01    0.1106916000E-01    0.4920888961E-01
    0.3500000000E+02    0.4983146321E-01    0.3187675309E-01    0.1869891195E-01    0.1166757524E-01    0.5176167708E-01
    0.3700000000E+02    0.5235602516E-01    0.3342201087E-01    0.1955485834E-01    0.1225874359E-01    0.5427300277E-01
    0.3900000000E+02    0.5485023021E-01    0.3494226139E-01    0.2039177931E-01    0.1284281007E-01    0.5674390167E-01
    0.4100000000E+02    0.5731468156E-01    0.3643812463E-01    0.2121017998E-01    0.1341991576E-01    0.5917537429E-01
    0.4300000000E+02    0.5974996604E-01    0.3791020005E-01    0.2201054885E-01    0.1399019792E-01    0.6156838815E-01
    0.4500000000E+02    0.6215665476E-01    0.3935906749E-01    0.2279335840E-01    0.1455379012E-01    0.6392387906E-01
    0.4700000000E+02    0.6453530355E-01    0.4078528796E-01    0.2355906578E-01    0.1511082237E-01    0.6624275246E-01
    0.4900000000E+02    0.6688645354E-01    0.4218940436E-01    0.2430811337E-01    0.1566142123E-01    0.6852588465E-01
    0.1000000000E+02    0.1543806932E-01    0.1016072467E-01    0.6157957804E-02    0.3614430875E-02    0.1649062164E-01
    0.3000000000E+02    0.4338313457E-01    0.2789993806E-01    0.1647233615E-01    0.1015762187E-01    0.4529961471E-01
    0.5000000000E+02    0.6805188166E-01    0.4288333843E-01    0.2467652411E-01    0.1593434677E-01    0.6965431394E-01
    0.7000000000E+02    0.9003802417E-01    0.5572097630E-01    0.3126736766E-01    0.2108346843E-01    0.9053925319E-01
    0.9000000000E+02    0.1097967177E+00    0.6685417547E-01    0.3660399123E-01    0.2571144624E-01    0.1086668777E+00
    0.1100000000E+03    0.1276828257E+00    0.7661019881E-01    0.4095163488E-01    0.2990128427E-01    0.1245656554E+00
    0.1300000000E+03    0.1439772049E+00    0.8523694116E-01    0.4450985968E-01    0.3371867819E-01    0.1386360060E+00
    0.1500000000E+03    0.1589051553E+00    0.9292567595E-01    0.4743124384E-01    0.3721632991E-01    0.1511869789E+00
    0.1700000000E+03    0.1726496221E+00    0.9982639536E-01    0.4983409809E-01    0.4043703494E-01    0.1624609926E+00
    0.1900000000E+03    0.1853608061E+00    0.1060584140E+00    0.5181130958E-01    0.4341593010E-01    0.1726509390E+00
    0.2100000000E+03    0.1971632714E+00    0.1117178592E+00    0.5343661579E-01    0.4618215574E-01    0.1819122679E+00
    0.2300000000E+03    0.2081612760E+00    0.1168830661E+00    0.5476913397E-01    0.4876010250E-01    0.1903716919E+00
    0.2500000000E+03    0.2184428223E+00    0.1216185297E+00    0.5585668307E-01    0.5117035871E-01    0.1981335660E+00
    0.2700000000E+03    0.2280827725E+00    0.1259778476E+00    0.5673825466E-01    0.5343043890E-01    0.2052846361E+00
    0.2900000000E+03    0.2371452695E+00    0.1300059395E+00    0.5744587447E-01    0.5555535022E-01    0.2118976243E+00
    0.3100000000E+03    0.2456856390E+00    0.1337407456E+00    0.5800602147E-01    0.5755803723E-01    0.2180339694E+00
    0.3300000000E+03    0.2537518971E+00    0.1372145389E+00    0.5844072094E-01    0.5944973451E-01    0.2237459478E+00
    0.3500000000E+03    0.2613859555E+00    0.1404549523E+00    0.5876839492E-01    0.6124024874E-01    0.2290783317E+00
    0.3700000000E+03    0.2686245942E+00    0.1434857886E+00    0.5900452975E-01    0.6293818599E-01    0.2340696986E+00
    0.3900000000E+03    0.2755002510E+00    0.1463276670E+00    0.5916220444E-01    0.6455113654E-01    0.2387534748E+00
    0.4100000000E+03    0.2820416674E+00    0.1489985415E+00    0.5925251204E-01    0.6608582598E-01    0.2431587744E+00
    0.4300000000E+03    0.2882744217E+00    0.1515141216E+00    0.5928489821E-01    0.6754823977E-01    0.2473110784E+00
    0.4500000000E+03    0.2942213695E+00    0.1538882150E+00    0.5926743496E-01    0.6894372649E-01    0.2512327893E+00
    0.4700000000E+03    0.2999030124E+00    0.1561330093E+00    0.5920704340E-01    0.7027708392E-01    0.2549436863E+00
    0.4900000000E+03    0.3053378064E+00    0.1582593051E+00    0.5910967600E-01    0.7155263128E-01    0.2584613021E+00
    0.1000000000E+03    0.1189548037E+00    0.7188729171E-01    0.3888767858E-01    0.2785667882E-01    0.1168673468E+00
    0.3000000000E+03    0.2414775633E+00    0.1319078667E+00    0.5774291210E-01    0.5657123313E-01    0.2150219166E+00
    0.5000000000E+03    0.3079679082E+00    0.1592810601E+00    0.5904875913E-01    0.7216996027E-01    0.2601525724E+00
    0.7000000000E+03    0.3509197141E+00    0.1753467356E+00    0.5681773158E-01    0.8225605443E-01    0.2868391224E+00
    0.9000000000E+03    0.3812164126E+00    0.1860728233E+00    0.5390274578E-01    0.8937689622E-01    0.3047809898E+00
    0.1100000000E+04    0.4037788848E+00    0.1938185065E+00    0.5104223535E-01    0.9468463497E-01    0.3178231115E+00
    0.1300000000E+04    0.4212291094E+00    0.1997152533E+00    0.4842888059E-01    0.9879336609E-01    0.3278144334E+00
    0.1500000000E+04    0.4351139990E+00    0.2043781229E+00    0.4609337902E-01    0.1020655105E+00    0.3357626154E+00
    0.1700000000E+04    0.4464118319E+00    0.2081723031E+00    0.4401722046E-01    0.1047303392E+00    0.3422674416E+00
    0.1900000000E+04    0.4557735422E+00    0.2113293430E+00    0.4216923398E-01    0.1069404546E+00    0.3477101301E+00
    0.2100000000E+04    0.4636495913E+00    0.2140037174E+00    0.4051777564E-01    0.1088014943E+00    0.3523456072E+00
    0.2300000000E+04    0.4703616917E+00    0.2163027493E+00    0.3903451969E-01    0.1103889261E+00    0.3563513936E+00
    0.2500000000E+04    0.4761456723E+00    0.2183035133E+00    0.3769526642E-01    0.1117580884E+00    0.3598552644E+00
    0.2700000000E+04    0.4811782567E+00    0.2200629080E+00    0.3647972024E-01    0.1129504628E+00    0.3629517554E+00
    0.2900000000E+04    0.4855944099E+00    0.2216239277E+00    0.3537096476E-01    0.1139977386E+00    0.3657124550E+00
    0.3100000000E+04    0.4894989208E+00    0.2230197151E+00    0.3435490295E-01    0.1149245273E+00    0.3681926649E+00
    0.3300000000E+04    0.4929743415E+00    0.2242762636E+00    0.3341975364E-01    0.1157502239E+00    0.3704358485E+00
    0.3500000000E+04    0.4960865524E+00    0.2254142706E+00    0.3255562739E-01    0.1164903107E+00    0.3724766837E+00
    0.3700000000E+04    0.4988887414E+00    0.2264504371E+00    0.3175417942E-01    0.1171572912E+00    0.3743432099E+00
    0.3900000000E+04    0.5014242999E+00    0.2273984003E+00    0.3100832944E-01    0.1177613691E+00    0.3760583674E+00
    0.4100000000E+04    0.5037289640E+00    0.2282694144E+00    0.3031203632E-01    0.1183109502E+00    0.3776411249E+00
    0.4300000000E+04    0.5058324199E+00    0.2290728555E+00    0.2966011716E-01    0.1188130195E+00    0.3791073162E+00
    0.4500000000E+04    0.5077595234E+00    0.2298166033E+00    0.2904810153E-01    0.1192734273E+00    0.3804702732E+00
    0.4700000000E+04    0.5095312375E+00    0.2305073317E+00    0.2847211372E-01    0.1196971089E+00    0.3817413085E+00
    0.4900000000E+04    0.5111653606E+00    0.2311507339E+00    0.2792877707E-01    0.1200882560E+00    0.3829300908E+00
    0.1000000000E+04    0.3932663937E+00    0.1902304853E+00    0.5244753240E-01    0.9221102641E-01    0.3117712634E+00
    0.3000000000E+04    0.4876050144E+00    0.2223407083E+00    0.3485213238E-01    0.1144748769E+00    0.3669846684E+00
    0.5000000000E+04    0.5119356654E+00    0.2314562430E+00    0.2766841470E-01    0.1202727693E+00    0.3834962824E+00
    0.7000000000E+04    0.5228559450E+00    0.2359714477E+00    0.2362101542E-01    0.1229002877E+00    0.3920204499E+00
    0.9000000000E+04    0.5290090364E+00    0.2387136537E+00    0.2094114203E-01    0.1243952335E+00    0.3973901203E+00
    0.1100000000E+05    0.5329421705E+00    0.2405713848E+00    0.1899853600E-01    0.1253601827E+00    0.4011518929E+00
    0.1300000000E+05    0.5356669641E+00    0.2419194382E+00    0.1750667692E-01    0.1260352338E+00    0.4039686414E+00
    0.1500000000E+05    0.5376630865E+00    0.2429450824E+00    0.1631420369E-01    0.1265346062E+00    0.4061764495E+00
    0.1700000000E+05    0.5391866779E+00    0.2437529528E+00    0.1533261262E-01    0.1269194927E+00    0.4079656885E+00
    0.1900000000E+05    0.5403867452E+00    0.2444063738E+00    0.1450621974E-01    0.1272256083E+00    0.4094530719E+00
    0.2100000000E+05    0.5413557751E+00    0.2449460430E+00    0.1379799341E-01    0.1274751940E+00    0.4107145435E+00
    0.2300000000E+05    0.5421541662E+00    0.2453993740E+00    0.1318221316E-01    0.1276828220E+00    0.4118018706E+00
    0.2500000000E+05    0.5428230106E+00    0.2457855431E+00    0.1264037879E-01    0.1278584391E+00    0.4127516835E+00
    0.2700000000E+05    0.5433912247E+00    0.2461183874E+00    0.1215879496E-01    0.1280090681E+00    0.4135907098E+00
    0.2900000000E+05    0.5438797398E+00    0.2464081549E+00    0.1172707584E-01    0.1281398092E+00    0.4143389588E+00
    0.3100000000E+05    0.5443040760E+00    0.2466626041E+00    0.1133718223E-01    0.1282544564E+00    0.4150117403E+00
    0.3300000000E+05    0.5446759819E+00    0.2468877223E+00    0.1098278066E-01    0.1283558913E+00    0.4156209905E+00
    0.3500000000E+05    0.5450045123E+00    0.2470882065E+00    0.1065880421E-01    0.1284463422E+00    0.4161761683E+00
    0.3700000000E+05    0.5452967574E+00    0.2472677956E+00    0.1036114430E-01    0.1285275595E+00    0.4166848774E+00
    0.3900000000E+05    0.5455583470E+00    0.2474295040E+00    0.1008642940E-01    0.1286009378E+00    0.4171533080E+00
    0.4100000000E+05    0.5457938077E+00    0.2475757904E+00    0.9831863249E-02    0.1286676020E+00    0.4175865569E+00
    0.4300000000E+05    0.5460068199E+00    0.2477086806E+00    0.9595104443E-02    0.1287284698E+00    0.4179888631E+00
    0.4500000000E+05    0.5462004063E+00    0.2478298594E+00    0.9374175507E-02    0.1287842973E+00    0.4183637844E+00
    0.4700000000E+05    0.5463770723E+00    0.2479407397E+00    0.9167393227E-02    0.1288357133E+00    0.4187143319E+00
    0.4900000000E+05    0.5465389120E+00    0.2480425158E+00    0.8973314634E-02    0.1288832450E+00    0.4190430731E+00
    0.1000000000E+05    0.5311713322E+00    0.2397232292E+00    0.1990012115E-01    0.1249245680E+00    0.3994194164E+00
    0.3000000000E+05    0.5440991223E+00    0.2465393851E+00    0.1152733074E-01    0.1281989465E+00    0.4146839700E+00
    0.5000000000E+05    0.5466148343E+00    0.2480903134E+00    0.8880643368E-02    0.1289056963E+00    0.4191999675E+00
    0.7000000000E+05    0.5476657058E+00    0.2487504554E+00    0.7465565101E-02    0.1292297863E+00    0.4215944803E+00
    0.9000000000E+05    0.5482356288E+00    0.2490968734E+00    0.6552919989E-02    0.1294217031E+00    0.4231466894E+00
    0.1100000000E+06    0.5485898733E+00    0.2492978290E+00    0.5902645181E-02    0.1295514293E+00    0.4242638548E+00
    0.1300000000E+06    0.5488294423E+00    0.2494203916E+00    0.5409520105E-02    0.1296465208E+00    0.4251214181E+00
    0.1500000000E+06    0.5490010372E+00    0.2494964751E+00    0.5019216267E-02    0.1297201382E+00    0.4258090993E+00
    0.1700000000E+06    0.5491291678E+00    0.2495431290E+00    0.4700488150E-02    0.1297794096E+00    0.4263782303E+00
    0.1900000000E+06    0.5492279059E+00    0.2495702396E+00    0.4433929839E-02    0.1298285557E+00    0.4268606142E+00
    0.2100000000E+06    0.5493058920E+00    0.2495839015E+00    0.4206771951E-02    0.1298702474E+00    0.4272771654E+00
    0.2300000000E+06    0.5493687163E+00    0.2495880541E+00    0.4010224531E-02    0.1299062649E+00    0.4276422908E+00
    0.2500000000E+06    0.5494201507E+00    0.2495853415E+00    0.3838013801E-02    0.1299378450E+00    0.4279662893E+00
    0.2700000000E+06    0.5494628285E+00    0.2495775939E+00    0.3685526700E-02    0.1299658761E+00    0.4282567516E+00
    0.2900000000E+06    0.5494986421E+00    0.2495661107E+00    0.3549285834E-02    0.1299910151E+00    0.4285194152E+00
    0.3100000000E+06    0.5495289848E+00    0.2495518339E+00    0.3426613924E-02    0.1300137592E+00    0.4287587118E+00
    0.3300000000E+06    0.5495549038E+00    0.2495354588E+00    0.3315411915E-02    0.1300344927E+00    0.4289781280E+00
    0.3500000000E+06    0.5495772010E+00    0.2495175067E+00    0.3214007898E-02    0.1300535179E+00    0.4291804513E+00
    0.3700000000E+06    0.5495965000E+00    0.2494983734E+00    0.3121051603E-02    0.1300710761E+00    0.4293679414E+00
    0.3900000000E+06    0.5496132926E+00    0.2494783625E+00    0.3035439075E-02    0.1300873629E+00    0.4295424534E+00
    0.4100000000E+06    0.5496279716E+00    0.2494577096E+00    0.2956257827E-02    0.1301025386E+00    0.4297055267E+00
    0.4300000000E+06    0.5496408544E+00    0.2494365984E+00    0.2882746208E-02    0.1301167362E+00    0.4298584519E+00
    0.4500000000E+06    0.5496521998E+00    0.2494151735E+00    0.2814262829E-02    0.1301300668E+00    0.4300023201E+00
    0.4700000000E+06    0.5496622209E+00    0.2493935493E+00    0.2750263232E-02    0.1301426244E+00    0.4301380616E+00
    0.4900000000E+06    0.5496710947E+00    0.2493718165E+00    0.2690281859E-02    0.1301544888E+00    0.4302664752E+00
    0.1000000000E+06    0.5484314841E+00    0.2492101194E+00    0.6203287512E-02    0.1294921147E+00    0.4237457663E+00
    0.3000000000E+06    0.5495144251E+00    0.2495592732E+00    0.3486396462E-02    0.1300026602E+00    0.4286417476E+00
    0.5000000000E+06    0.5496751485E+00    0.2493609326E+00    0.2661670561E-02    0.1301601829E+00    0.4303281536E+00
    0.7000000000E+06    0.5497217463E+00    0.2491488746E+00    0.2227112815E-02    0.1302501551E+00    0.4313043265E+00
    0.9000000000E+06    0.5497354505E+00    0.2489570204E+00    0.1949125072E-02    0.1303124557E+00    0.4319777301E+00
    0.1100000000E+07    0.5497364636E+00    0.2487863760E+00    0.1752113160E-02    0.1303598990E+00    0.4324862324E+00
    0.1300000000E+07    0.5497318430E+00    0.2486339076E+00    0.1603286589E-02    0.1303981291E+00    0.4328920564E+00
    0.1500000000E+07    0.5497245570E+00    0.2484965227E+00    0.1485836184E-02    0.1304301080E+00    0.4332282586E+00
    0.1700000000E+07    0.5497160068E+00    0.2483716641E+00    0.1390146442E-02    0.1304575755E+00    0.4335143730E+00
    0.1900000000E+07    0.5497069060E+00    0.2482573037E+00    0.1310270448E-02    0.1304816380E+00    0.4337628474E+00
    0.2100000000E+07    0.5496976362E+00    0.2481518396E+00    0.1242308346E-02    0.1305030411E+00    0.4339820737E+00
    0.2300000000E+07    0.5496884069E+00    0.2480539972E+00    0.1183583202E-02    0.1305223109E+00    0.4341779630E+00
    0.2500000000E+07    0.5496793342E+00    0.2479627506E+00    0.1132188936E-02    0.1305398322E+00    0.4343548270E+00
    0.2700000000E+07    0.5496704810E+00    0.2478772648E+00    0.1086726904E-02    0.1305558944E+00    0.4345159026E+00
    0.2900000000E+07    0.5496618794E+00    0.2477968521E+00    0.1046144678E-02    0.1305707211E+00    0.4346636784E+00
    0.3100000000E+07    0.5496535431E+00    0.2477209401E+00    0.1009633261E-02    0.1305844880E+00    0.4348001070E+00
    0.3300000000E+07    0.5496454750E+00    0.2476490476E+00    0.9765592700E-03    0.1305973362E+00    0.4349267470E+00
    0.3500000000E+07    0.5496376715E+00    0.2475807666E+00    0.9464188480E-03    0.1306093802E+00    0.4350448615E+00
    0.3700000000E+07    0.5496301252E+00    0.2475157481E+00    0.9188055306E-03    0.1306207146E+00    0.4351554879E+00
    0.3900000000E+07    0.5496228264E+00    0.2474536912E+00    0.8933873431E-03    0.1306314181E+00    0.4352594877E+00
    0.4100000000E+07    0.5496157647E+00    0.2473943350E+00    0.8698901464E-03    0.1306415572E+00    0.4353575843E+00
    0.4300000000E+07    0.5496089289E+00    0.2473374516E+00    0.8480853153E-03    0.1306511883E+00    0.4354503904E+00
    0.4500000000E+07    0.5496023082E+00    0.2472828409E+00    0.8277804771E-03    0.1306603597E+00    0.4355384295E+00
    0.4700000000E+07    0.5495958916E+00    0.2472303262E+00    0.8088124520E-03    0.1306691134E+00    0.4356221523E+00
    0.4900000000E+07    0.5495896688E+00    0.2471797506E+00    0.7910418031E-03    0.1306774856E+00    0.4357019491E+00
    0.1000000000E+07    0.5497369552E+00    0.2488692188E+00    0.1843089872E-02    0.1303375908E+00    0.4322477240E+00
    0.3000000000E+07    0.5496576777E+00    0.2477583655E+00    0.1027423197E-02    0.1305777275E+00    0.4347332058E+00
    0.5000000000E+07    0.5495866270E+00    0.2471551457E+00    0.7825673456E-03    0.1306815388E+00    0.4357404835E+00
    0.7000000000E+07    0.5495338498E+00    0.2467377056E+00    0.6540268460E-03    0.1307485699E+00    0.4363688102E+00
    0.9000000000E+07    0.5494922873E+00    0.2464175519E+00    0.5719657619E-03    0.1307981611E+00    0.4368232891E+00
    0.1100000000E+08    0.5494580865E+00    0.2461575229E+00    0.5138854148E-03    0.1308375378E+00    0.4371783119E+00
    0.1300000000E+08    0.5494290543E+00    0.2459384235E+00    0.4700520259E-03    0.1308701980E+00    0.4374690983E+00
    0.1500000000E+08    0.5494038418E+00    0.2457490221E+00    0.4354847209E-03    0.1308981029E+00    0.4377150528E+00
    0.1700000000E+08    0.5493815644E+00    0.2455821701E+00    0.4073380010E-03    0.1309224634E+00    0.4379279821E+00
    0.1900000000E+08    0.5493616115E+00    0.2454330320E+00    0.3838538145E-03    0.1309440795E+00    0.4381155950E+00
    0.2100000000E+08    0.5493435446E+00    0.2452981827E+00    0.3638802256E-03    0.1309635077E+00    0.4382831971E+00
    0.2300000000E+08    0.5493270384E+00    0.2451751061E+00    0.3466270674E-03    0.1309811507E+00    0.4384345929E+00
    0.2500000000E+08    0.5493118450E+00    0.2450618993E+00    0.3315320385E-03    0.1309973094E+00    0.4385726021E+00
    0.2700000000E+08    0.5492977709E+00    0.2449570875E+00    0.3181827400E-03    0.1310122143E+00    0.4386993711E+00
