  Pressure (Pa) 22mC5-400 (mol/kg) 3mC6-400 (mol/kg) 33mC5-400 (mol/kg) 23mC5-400 (mol/kg) C7-400 (mol/kg)
    0.1000000000E+01    0.1592628941E-02    0.5243274262E-03    0.1288861182E-03    0.7457278174E-03    0.1021023004E-01
    0.3000000000E+01    0.4744030789E-02    0.1524606275E-02    0.3752481217E-03    0.2221344877E-02    0.2969315633E-01
    0.5000000000E+01    0.7851101276E-02    0.2465189481E-02    0.6074872404E-03    0.3676222672E-02    0.4801902553E-01
    0.7000000000E+01    0.1091478806E-01    0.3351259919E-02    0.8267796590E-03    0.5110804415E-02    0.6528813267E-01
    0.9000000000E+01    0.1393601184E-01    0.4187417511E-02    0.1034169283E-02    0.6525520712E-02    0.8158950096E-01
    0.1100000000E+02    0.1691566731E-01    0.4977758936E-02    0.1230586028E-02    0.7920790010E-02    0.9700242223E-01
    0.1300000000E+02    0.1985462408E-01    0.5725944604E-02    0.1416861151E-02    0.9297019022E-02    0.1115977515E+00
    0.1500000000E+02    0.2275372754E-01    0.6435255218E-02    0.1593740182E-02    0.1065460313E-01    0.1254390002E+00
    0.1700000000E+02    0.2561379967E-01    0.7108639755E-02    0.1761893863E-02    0.1199392679E-01    0.1385832635E+00
    0.1900000000E+02    0.2843563990E-01    0.7748756354E-02    0.1921927455E-02    0.1331536388E-01    0.1510820111E+00
    0.2100000000E+02    0.3122002582E-01    0.8358007305E-02    0.2074388692E-02    0.1461927810E-01    0.1629817632E+00
    0.2300000000E+02    0.3396771397E-01    0.8938569098E-02    0.2219774587E-02    0.1590602328E-01    0.1743246719E+00
    0.2500000000E+02    0.3667944048E-01    0.9492418345E-02    0.2358537306E-02    0.1717594372E-01    0.1851490220E+00
    0.2700000000E+02    0.3935592185E-01    0.1002135420E-01    0.2491089233E-02    0.1842937452E-01    0.1954896648E+00
    0.2900000000E+02    0.4199785550E-01    0.1052701785E-01    0.2617807357E-02    0.1966664189E-01    0.2053783947E+00
    0.3100000000E+02    0.4460592046E-01    0.1101090946E-01    0.2739037098E-02    0.2088806342E-01    0.2148442771E+00
    0.3300000000E+02    0.4718077796E-01    0.1147440299E-01    0.2855095639E-02    0.2209394837E-01    0.2239139352E+00
    0.3500000000E+02    0.4972307200E-01    0.1191875923E-01    0.2966274836E-02    0.2328459796E-01    0.2326118015E+00
    0.3700000000E+02    0.5223342992E-01    0.1234513717E-01    0.3072843782E-02    0.2446030561E-01    0.2409603382E+00
    0.3900000000E+02    0.5471246293E-01    0.1275460412E-01    0.3175051060E-02    0.2562135718E-01    0.2489802325E+00
    0.4100000000E+02    0.5716076660E-01    0.1314814453E-01    0.3273126725E-02    0.2676803125E-01    0.2566905682E+00
    0.4300000000E+02    0.5957892140E-01    0.1352666795E-01    0.3367284066E-02    0.2790059931E-01    0.2641089781E+00
    0.4500000000E+02    0.6196749316E-01    0.1389101598E-01    0.3457721167E-02    0.2901932603E-01    0.2712517797E+00
    0.4700000000E+02    0.6432703351E-01    0.1424196849E-01    0.3544622285E-02    0.3012446941E-01    0.2781340955E+00
    0.4900000000E+02    0.6665808035E-01    0.1458024920E-01    0.3628159095E-02    0.3121628104E-01    0.2847699603E+00
    0.1000000000E+02    0.1543098068E-01    0.4588076952E-02    0.1133695162E-02    0.7225560546E-02    0.8940240499E-01
    0.3000000000E+02    0.4330607982E-01    0.1077159649E-01    0.2679087826E-02    0.2027931387E-01    0.2101624737E+00
    0.5000000000E+02    0.6781308313E-01    0.1474484967E-01    0.3668716364E-02    0.3175726436E-01    0.2879995860E+00
    0.7000000000E+02    0.8953841074E-01    0.1751198322E-01    0.4336997910E-02    0.4193369540E-01    0.3423769133E+00
    0.9000000000E+02    0.1089389324E+00    0.1954897383E-01    0.4799729525E-02    0.5102230509E-01    0.3825300160E+00
    0.1100000000E+03    0.1263758934E+00    0.2111051651E-01    0.5122231365E-02    0.5919207056E-01    0.4134060718E+00
    0.1300000000E+03    0.1421387253E+00    0.2234521963E-01    0.5344882194E-02    0.6657838256E-01    0.4378946922E+00
    0.1500000000E+03    0.1564620872E+00    0.2334562623E-01    0.5494319922E-02    0.7329101469E-01    0.4577972307E+00
    0.1700000000E+03    0.1695382776E+00    0.2417237238E-01    0.5588968425E-02    0.7941992778E-01    0.4742952196E+00
    0.1900000000E+03    0.1815264178E+00    0.2486684543E-01    0.5642025806E-02    0.8503956475E-01    0.4881959706E+00
    0.2100000000E+03    0.1925593450E+00    0.2545825929E-01    0.5663201548E-02    0.9021207429E-01    0.5000699405E+00
    0.2300000000E+03    0.2027488538E+00    0.2596782279E-01    0.5659786800E-02    0.9498976219E-01    0.5103317095E+00
    0.2500000000E+03    0.2121897296E+00    0.2641130515E-01    0.5637345527E-02    0.9941697781E-01    0.5192898528E+00
    0.2700000000E+03    0.2209628864E+00    0.2680067434E-01    0.5600178254E-02    0.1035315818E+00    0.5271788086E+00
    0.2900000000E+03    0.2291378337E+00    0.2714517695E-01    0.5551643130E-02    0.1073660997E+00    0.5341798983E+00
    0.3100000000E+03    0.2367746325E+00    0.2745206983E-01    0.5494384073E-02    0.1109486370E+00    0.5404355748E+00
    0.3300000000E+03    0.2439254611E+00    0.2772712770E-01    0.5430496413E-02    0.1143036114E+00    0.5460593158E+00
    0.3500000000E+03    0.2506358783E+00    0.2797500299E-01    0.5361649381E-02    0.1174523437E+00    0.5511426409E+00
    0.3700000000E+03    0.2569458501E+00    0.2819948566E-01    0.5289178081E-02    0.1204135383E+00    0.5557601823E+00
    0.3900000000E+03    0.2628905895E+00    0.2840369407E-01    0.5214153477E-02    0.1232036756E+00    0.5599734111E+00
    0.4100000000E+03    0.2685012498E+00    0.2859021737E-01    0.5137436257E-02    0.1258373367E+00    0.5638334193E+00
    0.4300000000E+03    0.2738054982E+00    0.2876122305E-01    0.5059718702E-02    0.1283274714E+00    0.5673830230E+00
    0.4500000000E+03    0.2788279945E+00    0.2891853938E-01    0.4981557518E-02    0.1306856227E+00    0.5706583751E+00
    0.4700000000E+03    0.2835907933E+00    0.2906371921E-01    0.4903399777E-02    0.1329221141E+00    0.5736902138E+00
    0.4900000000E+03    0.2881136818E+00    0.2919808986E-01    0.4825603558E-02    0.1350462084E+00    0.5765048409E+00
    0.1000000000E+03    0.1178833119E+00    0.2037816874E-01    0.4975571822E-02    0.5521290019E-01    0.3989137101E+00
    0.3000000000E+03    0.2330200719E+00    0.2730293375E-01    0.5523961887E-02    0.1091872609E+00    0.5373932353E+00
    0.5000000000E+03    0.2902907946E+00    0.2926158476E-01    0.4786932718E-02    0.1360687445E+00    0.5778378999E+00
    0.7000000000E+03    0.3247407123E+00    0.3017174701E-01    0.4075829329E-02    0.1522586145E+00    0.5972242945E+00
    0.9000000000E+03    0.3477716376E+00    0.3069080635E-01    0.3508644815E-02    0.1630952772E+00    0.6086294638E+00
    0.1100000000E+04    0.3642539321E+00    0.3102256735E-01    0.3066930264E-02    0.1708600428E+00    0.6161526955E+00
    0.1300000000E+04    0.3766289787E+00    0.3125065147E-01    0.2720184211E-02    0.1766969534E+00    0.6214938542E+00
    0.1500000000E+04    0.3862582672E+00    0.3141559921E-01    0.2443722613E-02    0.1812442746E+00    0.6254856420E+00
    0.1700000000E+04    0.3939616549E+00    0.3153939758E-01    0.2219596091E-02    0.1848865141E+00    0.6285843273E+00
    0.1900000000E+04    0.4002624589E+00    0.3163497739E-01    0.2035004141E-02    0.1878692050E+00    0.6310609990E+00
    0.2100000000E+04    0.4055104012E+00    0.3171042540E-01    0.1880770943E-02    0.1903564993E+00    0.6330869279E+00
    0.2300000000E+04    0.4099480464E+00    0.3177104909E-01    0.1750231170E-02    0.1924622980E+00    0.6347756739E+00
    0.2500000000E+04    0.4137488950E+00    0.3182047033E-01    0.1638466505E-02    0.1942681048E+00    0.6362055275E+00
    0.2700000000E+04    0.4170403079E+00    0.3186124144E-01    0.1541789397E-02    0.1958337732E+00    0.6374322289E+00
    0.2900000000E+04    0.4199178722E+00    0.3189521020E-01    0.1457392380E-02    0.1972042428E+00    0.6384965500E+00
    0.3100000000E+04    0.4224547169E+00    0.3192374541E-01    0.1383107124E-02    0.1984139086E+00    0.6394290088E+00
    0.3300000000E+04    0.4247077344E+00    0.3194788131E-01    0.1317236502E-02    0.1994895398E+00    0.6402529059E+00
    0.3500000000E+04    0.4267218444E+00    0.3196841292E-01    0.1258435805E-02    0.2004522808E+00    0.6409863415E+00
    0.3700000000E+04    0.4285329817E+00    0.3198596070E-01    0.1205627474E-02    0.2013190535E+00    0.6416435920E+00
    0.3900000000E+04    0.4301702332E+00    0.3200101539E-01    0.1157939016E-02    0.2021035605E+00    0.6422360700E+00
    0.4100000000E+04    0.4316573923E+00    0.3201396983E-01    0.1114657196E-02    0.2028170155E+00    0.6427730096E+00
    0.4300000000E+04    0.4330141095E+00    0.3202514182E-01    0.1075193805E-02    0.2034686831E+00    0.6432619628E+00
    0.4500000000E+04    0.4342567553E+00    0.3203479101E-01    0.1039059776E-02    0.2040662849E+00    0.6437091672E+00
    0.4700000000E+04    0.4353990761E+00    0.3204313137E-01    0.1005845395E-02    0.2046163072E+00    0.6441198198E+00
    0.4900000000E+04    0.4364526991E+00    0.3205034064E-01    0.9752050169E-03    0.2051242386E+00    0.6444982860E+00
    0.1000000000E+04    0.3566437646E+00    0.3087338567E-01    0.3274090081E-02    0.1672737480E+00    0.6127402290E+00
    0.3000000000E+04    0.4212250057E+00    0.3191008582E-01    0.1419101309E-02    0.1978273514E+00    0.6389776642E+00
    0.5000000000E+04    0.4369494015E+00    0.3205356856E-01    0.9607565947E-03    0.2053639090E+00    0.6446766263E+00
    0.7000000000E+04    0.4440016344E+00    0.3208461921E-01    0.7545965509E-03    0.2087863241E+00    0.6472097823E+00
    0.9000000000E+04    0.4479943067E+00    0.3208463616E-01    0.6355393811E-03    0.2107478857E+00    0.6486554640E+00
    0.1100000000E+05    0.4505589313E+00    0.3207359321E-01    0.5568891000E-03    0.2120232983E+00    0.6495965859E+00
    0.1300000000E+05    0.4523429610E+00    0.3205826230E-01    0.5004231315E-03    0.2129213144E+00    0.6502615115E+00
    0.1500000000E+05    0.4536542121E+00    0.3204136813E-01    0.4575395670E-03    0.2135893417E+00    0.6507583468E+00
    0.1700000000E+05    0.4546576470E+00    0.3202411945E-01    0.4236301587E-03    0.2141067070E+00    0.6511450190E+00
    0.1900000000E+05    0.4554495850E+00    0.3200707954E-01    0.3959925985E-03    0.2145199201E+00    0.6514554233E+00
    0.2100000000E+05    0.4560900205E+00    0.3199051207E-01    0.3729310313E-03    0.2148580702E+00    0.6517107461E+00
    0.2300000000E+05    0.4566182595E+00    0.3197453334E-01    0.3533235620E-03    0.2151402934E+00    0.6519249286E+00
    0.2500000000E+05    0.4570611224E+00    0.3195918438E-01    0.3363960219E-03    0.2153797008E+00    0.6521075307E+00
    0.2700000000E+05    0.4574375325E+00    0.3194446730E-01    0.3215954492E-03    0.2155855809E+00    0.6522653334E+00
    0.2900000000E+05    0.4577612205E+00    0.3193036413E-01    0.3085153822E-03    0.2157647006E+00    0.6524032844E+00
    0.3100000000E+05    0.4580423893E+00    0.3191684708E-01    0.2968497111E-03    0.2159221089E+00    0.6525250816E+00
    0.3300000000E+05    0.4582887770E+00    0.3190388415E-01    0.2863630670E-03    0.2160616504E+00    0.6526335461E+00
    0.3500000000E+05    0.4585063584E+00    0.3189144214E-01    0.2768711943E-03    0.2161863057E+00    0.6527308691E+00
    0.3700000000E+05    0.4586998188E+00    0.3187948839E-01    0.2682275705E-03    0.2162984217E+00    0.6528187794E+00
    0.3900000000E+05    0.4588728841E+00    0.3186799167E-01    0.2603140578E-03    0.2163998720E+00    0.6528986600E+00
    0.4100000000E+05    0.4590285537E+00    0.3185692254E-01    0.2530342288E-03    0.2164921710E+00    0.6529716313E+00
    0.4300000000E+05    0.4591692691E+00    0.3184625360E-01    0.2463085104E-03    0.2165765567E+00    0.6530386107E+00
    0.4500000000E+05    0.4592970379E+00    0.3183595945E-01    0.2400705885E-03    0.2166540506E+00    0.6531003571E+00
    0.4700000000E+05    0.4594135252E+00    0.3182601663E-01    0.2342647050E-03    0.2167255038E+00    0.6531575041E+00
    0.4900000000E+05    0.4595201244E+00    0.3181640354E-01    0.2288435980E-03    0.2167916311E+00    0.6532105847E+00
    0.1000000000E+05    0.4494028210E+00    0.3207992738E-01    0.5926394995E-03    0.2114464460E+00    0.6491706151E+00
    0.3000000000E+05    0.4579065880E+00    0.3192353428E-01    0.3025218482E-03    0.2158458548E+00    0.6524660087E+00
    0.5000000000E+05    0.4595700902E+00    0.3181171437E-01    0.2262644904E-03    0.2168228902E+00    0.6532357441E+00
    0.7000000000E+05    0.4602574321E+00    0.3173118850E-01    0.1875962809E-03    0.2172759494E+00    0.6536060944E+00
    0.9000000000E+05    0.4606241624E+00    0.3166859598E-01    0.1633096714E-03    0.2175459410E+00    0.6538331299E+00
    0.1100000000E+06    0.4608476738E+00    0.3161747076E-01    0.1462837617E-03    0.2177291966E+00    0.6539907527E+00
    0.1300000000E+06    0.4609954937E+00    0.3157428409E-01    0.1335150461E-03    0.2178639158E+00    0.6541087997E+00
    0.1500000000E+06    0.4610987780E+00    0.3153691200E-01    0.1234907261E-03    0.2179684345E+00    0.6542018190E+00
    0.1700000000E+06    0.4611738234E+00    0.3150397989E-01    0.1153559017E-03    0.2180527216E+00    0.6542778312E+00
    0.1900000000E+06    0.4612299477E+00    0.3147454806E-01    0.1085865660E-03    0.2181226974E+00    0.6543416596E+00
    0.2100000000E+06    0.4612728450E+00    0.3144794607E-01    0.1028414515E-03    0.2181821182E+00    0.6543963994E+00
    0.2300000000E+06    0.4613061802E+00    0.3142367899E-01    0.9788758903E-04    0.2182334924E+00    0.6544441391E+00
    0.2500000000E+06    0.4613324118E+00    0.3140137113E-01    0.9355983750E-04    0.2182785656E+00    0.6544863459E+00
    0.2700000000E+06    0.4613532464E+00    0.3138073061E-01    0.8973747110E-04    0.2183185940E+00    0.6545240853E+00
    0.2900000000E+06    0.4613699023E+00    0.3136152621E-01    0.8632993481E-04    0.2183545075E+00    0.6545581522E+00
    0.3100000000E+06    0.4613832705E+00    0.3134357161E-01    0.8326780837E-04    0.2183870108E+00    0.6545891536E+00
    0.3300000000E+06    0.4613940165E+00    0.3132671451E-01    0.8049686921E-04    0.2184166489E+00    0.6546175624E+00
    0.3500000000E+06    0.4614026457E+00    0.3131082885E-01    0.7797407255E-04    0.2184438511E+00    0.6546437535E+00
    0.3700000000E+06    0.4614095484E+00    0.3129580906E-01    0.7566475786E-04    0.2184689604E+00    0.6546680284E+00
    0.3900000000E+06    0.4614150303E+00    0.3128156590E-01    0.7354066305E-04    0.2184922549E+00    0.6546906329E+00
    0.4100000000E+06    0.4614193334E+00    0.3126802321E-01    0.7157848427E-04    0.2185139629E+00    0.6547117698E+00
    0.4300000000E+06    0.4614226515E+00    0.3125511553E-01    0.6975881271E-04    0.2185342735E+00    0.6547316082E+00
    0.4500000000E+06    0.4614251415E+00    0.3124278615E-01    0.6806533705E-04    0.2185533451E+00    0.6547502903E+00
    0.4700000000E+06    0.4614269314E+00    0.3123098560E-01    0.6648423670E-04    0.2185713117E+00    0.6547679369E+00
    0.4900000000E+06    0.4614281266E+00    0.3121967053E-01    0.6500371407E-04    0.2185882873E+00    0.6547846512E+00
    0.1000000000E+06    0.4607483181E+00    0.3164186495E-01    0.1541279428E-03    0.2176453304E+00    0.6539182224E+00
    0.3000000000E+06    0.4613769514E+00    0.3135240289E-01    0.8475938606E-04    0.2183711482E+00    0.6545740038E+00
    0.5000000000E+06    0.4614285290E+00    0.3121418291E-01    0.6429794438E-04    0.2185964345E+00    0.6547926871E+00
    0.7000000000E+06    0.4614202721E+00    0.3112262114E-01    0.5361334596E-04    0.2187251625E+00    0.6549207826E+00
    0.9000000000E+06    0.4613989570E+00    0.3105408860E-01    0.4681228327E-04    0.2188142635E+00    0.6550105346E+00
    0.1100000000E+07    0.4613747690E+00    0.3099931821E-01    0.4200823892E-04    0.2188820772E+00    0.6550793170E+00
    0.1300000000E+07    0.4613506702E+00    0.3095370749E-01    0.3838796543E-04    0.2189366903E+00    0.6551349440E+00
    0.1500000000E+07    0.4613276034E+00    0.3091463406E-01    0.3553632571E-04    0.2189823482E+00    0.6551815748E+00
    0.1700000000E+07    0.4613058367E+00    0.3088046126E-01    0.3321658538E-04    0.2190215450E+00    0.6552216773E+00
    0.1900000000E+07    0.4612853920E+00    0.3085009879E-01    0.3128268856E-04    0.2190558667E+00    0.6552568328E+00
    0.2100000000E+07    0.4612662004E+00    0.3082278382E-01    0.2963904531E-04    0.2190863823E+00    0.6552881134E+00
    0.2300000000E+07    0.4612481634E+00    0.3079796170E-01    0.2822015001E-04    0.2191138457E+00    0.6553162788E+00
    0.2500000000E+07    0.4612311775E+00    0.3077521653E-01    0.2697942639E-04    0.2191388080E+00    0.6553418864E+00
    0.2700000000E+07    0.4612151443E+00    0.3075422845E-01    0.2588273992E-04    0.2191616841E+00    0.6553653572E+00
    0.2900000000E+07    0.4611999737E+00    0.3073474616E-01    0.2490443353E-04    0.2191827940E+00    0.6553870166E+00
    0.3100000000E+07    0.4611855853E+00    0.3071656866E-01    0.2402480389E-04    0.2192023896E+00    0.6554071214E+00
    0.3300000000E+07    0.4611719078E+00    0.3069953262E-01    0.2322843822E-04    0.2192206725E+00    0.6554258777E+00
    0.3500000000E+07    0.4611588778E+00    0.3068350359E-01    0.2250308532E-04    0.2192378069E+00    0.6554434531E+00
    0.3700000000E+07    0.4611464395E+00    0.3066836951E-01    0.2183886921E-04    0.2192539280E+00    0.6554599862E+00
    0.3900000000E+07    0.4611345437E+00    0.3065403604E-01    0.2122772918E-04    0.2192691485E+00    0.6554755926E+00
    0.4100000000E+07    0.4611231464E+00    0.3064042298E-01    0.2066301286E-04    0.2192835634E+00    0.6554903696E+00
    0.4300000000E+07    0.4611122086E+00    0.3062746162E-01    0.2013917555E-04    0.2192972533E+00    0.6555044003E+00
    0.4500000000E+07    0.4611016957E+00    0.3061509261E-01    0.1965155417E-04    0.2193102876E+00    0.6555177557E+00
    0.4700000000E+07    0.4610915766E+00    0.3060326435E-01    0.1919619528E-04    0.2193227259E+00    0.6555304973E+00
    0.4900000000E+07    0.4610818233E+00    0.3059193169E-01    0.1876972221E-04    0.2193346203E+00    0.6555426785E+00
    0.1000000000E+07    0.4613869615E+00    0.3102533548E-01    0.4422502108E-04    0.2188501957E+00    0.6550469355E+00
    0.3000000000E+07    0.4611926864E+00    0.3072550529E-01    0.2445333271E-04    0.2191927675E+00    0.6553972495E+00
    0.5000000000E+07    0.4610770759E+00    0.3058643861E-01    0.1856639439E-04    0.2193403779E+00    0.6555485739E+00
    0.7000000000E+07    0.4609963908E+00    0.3049504682E-01    0.1548629301E-04    0.2194355329E+00    0.6556458799E+00
    0.9000000000E+07    0.4609344721E+00    0.3042690927E-01    0.1352406903E-04    0.2195058555E+00    0.6557176160E+00
    0.1100000000E+08    0.4608842368E+00    0.3037258368E-01    0.1213738343E-04    0.2195616504E+00    0.6557744111E+00
    0.1300000000E+08    0.4608419722E+00    0.3032741598E-01    0.1109209486E-04    0.2196079004E+00    0.6558214035E+00
    0.1500000000E+08    0.4608054925E+00    0.3028876715E-01    0.1026857694E-04    0.2196473975E+00    0.6558614702E+00
    0.1700000000E+08    0.4607734028E+00    0.3025499569E-01    0.9598572798E-05    0.2196818636E+00    0.6558963839E+00
    0.1900000000E+08    0.4607447586E+00    0.3022501087E-01    0.9039953519E-05    0.2197124364E+00    0.6559273145E+00
    0.2100000000E+08    0.4607188908E+00    0.3019805099E-01    0.8565138513E-05    0.2197399065E+00    0.6559550745E+00
    0.2300000000E+08    0.4606953079E+00    0.3017356313E-01    0.8155223071E-05    0.2197648458E+00    0.6559802509E+00
    0.2500000000E+08    0.4606736386E+00    0.3015113320E-01    0.7796762994E-05    0.2197876815E+00    0.6560032818E+00
    0.2700000000E+08    0.4606535951E+00    0.3013044309E-01    0.7479903938E-05    0.2198087409E+00    0.6560245027E+00
