  Pressure (Pa) 22mC5-400 (mol/kg) 3mC6-400 (mol/kg) 33mC5-400 (mol/kg) 23mC5-400 (mol/kg) C7-400 (mol/kg)
    0.1000000000E+01    0.1592996853E-02    0.2645400649E-02    0.4545072205E-03    0.3729499162E-03    0.1717053672E-02
    0.3000000000E+01    0.4747312308E-02    0.7827527820E-02    0.1342590033E-02    0.1111439569E-02    0.5080951118E-02
    0.5000000000E+01    0.7860135416E-02    0.1286970876E-01    0.2203679566E-02    0.1840223287E-02    0.8354430110E-02
    0.7000000000E+01    0.1093233831E-01    0.1777760519E-01    0.3038824924E-02    0.2559505031E-02    0.1154114297E-01
    0.9000000000E+01    0.1396476848E-01    0.2255657660E-01    0.3849021863E-02    0.3269483002E-02    0.1464454721E-01
    0.1100000000E+02    0.1695824966E-01    0.2721170014E-01    0.4635216192E-02    0.3970349842E-02    0.1766791831E-01
    0.1300000000E+02    0.1991358262E-01    0.3174778897E-01    0.5398306916E-02    0.4662292827E-02    0.2061436163E-01
    0.1500000000E+02    0.2283154599E-01    0.3616940925E-01    0.6139149139E-02    0.5345494052E-02    0.2348682327E-01
    0.1700000000E+02    0.2571289699E-01    0.4048089578E-01    0.6858556755E-02    0.6020130608E-02    0.2628810017E-01
    0.1900000000E+02    0.2855837217E-01    0.4468636645E-01    0.7557304934E-02    0.6686374755E-02    0.2902084946E-01
    0.2100000000E+02    0.3136868811E-01    0.4878973572E-01    0.8236132434E-02    0.7344394081E-02    0.3168759709E-01
    0.2300000000E+02    0.3414454211E-01    0.5279472697E-01    0.8895743742E-02    0.7994351660E-02    0.3429074583E-01
    0.2500000000E+02    0.3688661279E-01    0.5670488408E-01    0.9536811067E-02    0.8636406204E-02    0.3683258271E-01
    0.2700000000E+02    0.3959556073E-01    0.6052358210E-01    0.1015997619E-01    0.9270712210E-02    0.3931528591E-01
    0.2900000000E+02    0.4227202909E-01    0.6425403722E-01    0.1076585219E-01    0.9897420091E-02    0.4174093115E-01
    0.3100000000E+02    0.4491664413E-01    0.6789931598E-01    0.1135502504E-01    0.1051667632E-01    0.4411149770E-01
    0.3300000000E+02    0.4753001581E-01    0.7146234394E-01    0.1192805514E-01    0.1112862354E-01    0.4642887387E-01
    0.3500000000E+02    0.5011273828E-01    0.7494591364E-01    0.1248547867E-01    0.1173340073E-01    0.4869486222E-01
    0.3700000000E+02    0.5266539041E-01    0.7835269212E-01    0.1302780891E-01    0.1233114325E-01    0.5091118438E-01
    0.3900000000E+02    0.5518853627E-01    0.8168522790E-01    0.1355553750E-01    0.1292198305E-01    0.5307948553E-01
    0.4100000000E+02    0.5768272558E-01    0.8494595748E-01    0.1406913551E-01    0.1350604867E-01    0.5520133861E-01
    0.4300000000E+02    0.6014849420E-01    0.8813721146E-01    0.1456905457E-01    0.1408346546E-01    0.5727824825E-01
    0.4500000000E+02    0.6258636456E-01    0.9126122020E-01    0.1505572788E-01    0.1465435560E-01    0.5931165446E-01
    0.4700000000E+02    0.6499684603E-01    0.9432011921E-01    0.1552957108E-01    0.1521883821E-01    0.6130293603E-01
    0.4900000000E+02    0.6738043539E-01    0.9731595411E-01    0.1599098321E-01    0.1577702950E-01    0.6325341381E-01
    0.1000000000E+02    0.1546632712E-01    0.2489931255E-01    0.4245062104E-02    0.3621043485E-02    0.1616603896E-01
    0.3000000000E+02    0.4359827978E-01    0.6608713759E-01    0.1106249090E-01    0.1020797066E-01    0.4293297917E-01
    0.5000000000E+02    0.6856229741E-01    0.9879083836E-01    0.1621714797E-01    0.1605380142E-01    0.6421374893E-01
    0.7000000000E+02    0.9089966926E-01    0.1254135157E+00    0.2017340774E-01    0.2128513233E-01    0.8155971975E-01
    0.9000000000E+02    0.1110326966E+00    0.1475263784E+00    0.2324142766E-01    0.2600073445E-01    0.9598566690E-01
    0.1100000000E+03    0.1292957262E+00    0.1662003920E+00    0.2563639847E-01    0.3027880994E-01    0.1081835838E+00
    0.1300000000E+03    0.1459569842E+00    0.1821909292E+00    0.2751223839E-01    0.3418209761E-01    0.1186417599E+00
    0.1500000000E+03    0.1612342301E+00    0.1960462165E+00    0.2898181083E-01    0.3776153361E-01    0.1277147341E+00
    0.1700000000E+03    0.1753061738E+00    0.2081739101E+00    0.3012960089E-01    0.4105892120E-01    0.1356662520E+00
    0.1900000000E+03    0.1883209302E+00    0.2188835278E+00    0.3101995996E-01    0.4410890803E-01    0.1426966515E+00
    0.2100000000E+03    0.2004023693E+00    0.2284143719E+00    0.3170263574E-01    0.4694047112E-01    0.1489608892E+00
    0.2300000000E+03    0.2116549465E+00    0.2369544219E+00    0.3221658068E-01    0.4957804653E-01    0.1545807402E+00
    0.2500000000E+03    0.2221674202E+00    0.2446534319E+00    0.3259263489E-01    0.5204239879E-01    0.1596532578E+00
    0.2700000000E+03    0.2320157441E+00    0.2516322056E+00    0.3285545404E-01    0.5435129735E-01    0.1642567662E+00
    0.2900000000E+03    0.2412653401E+00    0.2579892931E+00    0.3302491897E-01    0.5652004818E-01    0.1684551881E+00
    0.3100000000E+03    0.2499729012E+00    0.2638059067E+00    0.3311718223E-01    0.5856191539E-01    0.1723012227E+00
    0.3300000000E+03    0.2581878334E+00    0.2691495872E+00    0.3314545589E-01    0.6048845860E-01    0.1758387157E+00
    0.3500000000E+03    0.2659534191E+00    0.2740769759E+00    0.3312061186E-01    0.6230980493E-01    0.1791044528E+00
    0.3700000000E+03    0.2733077623E+00    0.2786359368E+00    0.3305164431E-01    0.6403487012E-01    0.1821295322E+00
    0.3900000000E+03    0.2802845619E+00    0.2828672007E+00    0.3294602971E-01    0.6567153944E-01    0.1849404282E+00
    0.4100000000E+03    0.2869137491E+00    0.2868056519E+00    0.3281000943E-01    0.6722681674E-01    0.1875598249E+00
    0.4300000000E+03    0.2932220158E+00    0.2904813460E+00    0.3264881366E-01    0.6870694803E-01    0.1900072741E+00
    0.4500000000E+03    0.2992332546E+00    0.2939203213E+00    0.3246683997E-01    0.7011752450E-01    0.1922997214E+00
    0.4700000000E+03    0.3049689287E+00    0.2971452515E+00    0.3226779692E-01    0.7146356896E-01    0.1944519289E+00
    0.4900000000E+03    0.3104483834E+00    0.3001759748E+00    0.3205482012E-01    0.7274960866E-01    0.1964768179E+00
    0.1000000000E+03    0.1203798553E+00    0.1572401686E+00    0.2451227235E-01    0.2819022806E-01    0.1023288266E+00
    0.3000000000E+03    0.2456836312E+00    0.2609606536E+00    0.3307981394E-01    0.5755608328E-01    0.1704193293E+00
    0.5000000000E+03    0.3130975603E+00    0.3016240411E+00    0.3194395339E-01    0.7337142138E-01    0.1974451225E+00
    0.7000000000E+03    0.3561050811E+00    0.3236810947E+00    0.2945877855E-01    0.8347086112E-01    0.2122734880E+00
    0.9000000000E+03    0.3861239310E+00    0.3376478688E+00    0.2701783836E-01    0.9052685002E-01    0.2217655996E+00
    0.1100000000E+04    0.4082998834E+00    0.3473390120E+00    0.2487992348E-01    0.9574421197E-01    0.2284209867E+00
    0.1300000000E+04    0.4253478856E+00    0.3544837416E+00    0.2305701294E-01    0.9975883316E-01    0.2333773454E+00
    0.1500000000E+04    0.4388519691E+00    0.3599836717E+00    0.2150713475E-01    0.1029418439E+00    0.2372302160E+00
    0.1700000000E+04    0.4498034497E+00    0.3643567150E+00    0.2018255671E-01    0.1055255809E+00    0.2403230090E+00
    0.1900000000E+04    0.4588558898E+00    0.3679223612E+00    0.1904155183E-01    0.1076632708E+00    0.2428683629E+00
    0.2100000000E+04    0.4664580272E+00    0.3708887981E+00    0.1805020696E-01    0.1094601535E+00    0.2450053478E+00
    0.2300000000E+04    0.4729282269E+00    0.3733977153E+00    0.1718159347E-01    0.1109909172E+00    0.2468289548E+00
    0.2500000000E+04    0.4784985723E+00    0.3755490175E+00    0.1641443411E-01    0.1123100259E+00    0.2484063992E+00
    0.2700000000E+04    0.4833421757E+00    0.3774152457E+00    0.1573186867E-01    0.1134581174E+00    0.2497866568E+00
    0.2900000000E+04    0.4875907316E+00    0.3790503929E+00    0.1512045169E-01    0.1144661166E+00    0.2510063060E+00
    0.3100000000E+04    0.4913461593E+00    0.3804955066E+00    0.1456937611E-01    0.1153579638E+00    0.2520932499E+00
    0.3300000000E+04    0.4946885321E+00    0.3817823701E+00    0.1406988211E-01    0.1161524740E+00    0.2530691664E+00
    0.3500000000E+04    0.4976816073E+00    0.3829359901E+00    0.1361480907E-01    0.1168646329E+00    0.2539511678E+00
    0.3700000000E+04    0.5003767609E+00    0.3839763213E+00    0.1319825518E-01    0.1175065200E+00    0.2547529543E+00
    0.3900000000E+04    0.5028158393E+00    0.3849194880E+00    0.1281531768E-01    0.1180879771E+00    0.2554856319E+00
    0.4100000000E+04    0.5050332604E+00    0.3857786659E+00    0.1246189308E-01    0.1186171016E+00    0.2561583050E+00
    0.4300000000E+04    0.5070575834E+00    0.3865647304E+00    0.1213452257E-01    0.1191006145E+00    0.2567785124E+00
    0.4500000000E+04    0.5089126987E+00    0.3872867406E+00    0.1183027125E-01    0.1195441401E+00    0.2573525536E+00
    0.4700000000E+04    0.5106187393E+00    0.3879523052E+00    0.1154663319E-01    0.1199524194E+00    0.2578857358E+00
    0.4900000000E+04    0.5121927887E+00    0.3885678632E+00    0.1128145615E-01    0.1203294766E+00    0.2583825646E+00
    0.1000000000E+04    0.3979865402E+00    0.3428920729E+00    0.2590792749E-01    0.9331717887E-01    0.2253586221E+00
    0.3000000000E+04    0.4895246440E+00    0.3797945340E+00    0.1483796084E-01    0.1149252805E+00    0.2515648878E+00
    0.5000000000E+04    0.5129349598E+00    0.3888586367E+00    0.1115519960E-01    0.1205073910E+00    0.2586185721E+00
    0.7000000000E+04    0.5234736904E+00    0.3930344775E+00    0.9258490758E-02    0.1230453922E+00    0.2621258786E+00
    0.9000000000E+04    0.5294321756E+00    0.3954463372E+00    0.8067627034E-02    0.1244946589E+00    0.2642965288E+00
    0.1100000000E+05    0.5332521067E+00    0.3970172080E+00    0.7234363665E-02    0.1254330265E+00    0.2658042752E+00
    0.1300000000E+05    0.5359049120E+00    0.3981200780E+00    0.6610403440E-02    0.1260911686E+00    0.2669292678E+00
    0.1500000000E+05    0.5378522241E+00    0.3989352407E+00    0.6121029374E-02    0.1265790731E+00    0.2678105862E+00
    0.1700000000E+05    0.5393410841E+00    0.3995607425E+00    0.5724107009E-02    0.1269557974E+00    0.2685258050E+00
    0.1900000000E+05    0.5405154899E+00    0.4000545720E+00    0.5393876239E-02    0.1272558811E+00    0.2691219333E+00
    0.2100000000E+05    0.5414649794E+00    0.4004532585E+00    0.5113600668E-02    0.1275008726E+00    0.2696292861E+00
    0.2300000000E+05    0.5422481190E+00    0.4007809743E+00    0.4871878697E-02    0.1277049142E+00    0.2700683840E+00
    0.2500000000E+05    0.5429048118E+00    0.4010543588E+00    0.4660642162E-02    0.1278776733E+00    0.2704536681E+00
    0.2700000000E+05    0.5434631736E+00    0.4012852444E+00    0.4474001120E-02    0.1280259847E+00    0.2707956301E+00
    0.2900000000E+05    0.5439435805E+00    0.4014822760E+00    0.4307542552E-02    0.1281548180E+00    0.2711020986E+00
    0.3100000000E+05    0.5443611567E+00    0.4016519171E+00    0.4157886407E-02    0.1282678745E+00    0.2713790480E+00
    0.3300000000E+05    0.5447273621E+00    0.4017990969E+00    0.4022394437E-02    0.1283679678E+00    0.2716311273E+00
    0.3500000000E+05    0.5450510372E+00    0.4019276396E+00    0.3898973372E-02    0.1284572758E+00    0.2718620151E+00
    0.3700000000E+05    0.5453391099E+00    0.4020405574E+00    0.3785938339E-02    0.1285375108E+00    0.2720746657E+00
    0.3900000000E+05    0.5455970852E+00    0.4021402546E+00    0.3681915890E-02    0.1286100381E+00    0.2722714830E+00
    0.4100000000E+05    0.5458293925E+00    0.4022286734E+00    0.3585773751E-02    0.1286759596E+00    0.2724544452E+00
    0.4300000000E+05    0.5460396355E+00    0.4023073994E+00    0.3496569009E-02    0.1287361752E+00    0.2726251978E+00
    0.4500000000E+05    0.5462307757E+00    0.4023777396E+00    0.3413509273E-02    0.1287914264E+00    0.2727851222E+00
    0.4700000000E+05    0.5464052693E+00    0.4024407807E+00    0.3335923149E-02    0.1288423305E+00    0.2729353878E+00
    0.4900000000E+05    0.5465651699E+00    0.4024974336E+00    0.3263237494E-02    0.1288894054E+00    0.2730769923E+00
    0.1000000000E+05    0.5315309879E+00    0.3963069025E+00    0.7618080176E-02    0.1250090877E+00    0.2651109002E+00
    0.3000000000E+05    0.5441594345E+00    0.4015701822E+00    0.4230793787E-02    0.1282131251E+00    0.2712439464E+00
    0.5000000000E+05    0.5466401997E+00    0.4025236096E+00    0.3228575654E-02    0.1289116463E+00    0.2731448193E+00
    0.7000000000E+05    0.5476799052E+00    0.4028476509E+00    0.2702728308E-02    0.1292331029E+00    0.2742030677E+00
    0.9000000000E+05    0.5482447779E+00    0.4029714925E+00    0.2366741357E-02    0.1294238266E+00    0.2749180439E+00
    0.1100000000E+06    0.5485962807E+00    0.4030110651E+00    0.2128696383E-02    0.1295529038E+00    0.2754510553E+00
    0.1300000000E+06    0.5488341821E+00    0.4030096400E+00    0.1948866812E-02    0.1296475996E+00    0.2758728121E+00
    0.1500000000E+06    0.5490046808E+00    0.4029865546E+00    0.1806925183E-02    0.1297209563E+00    0.2762201166E+00
    0.1700000000E+06    0.5491320486E+00    0.4029515062E+00    0.1691255020E-02    0.1297800457E+00    0.2765143857E+00
    0.1900000000E+06    0.5492302325E+00    0.4029097580E+00    0.1594675890E-02    0.1298290591E+00    0.2767691049E+00
    0.2100000000E+06    0.5493078019E+00    0.4028643325E+00    0.1512480470E-02    0.1298706507E+00    0.2769932793E+00
    0.2300000000E+06    0.5493703042E+00    0.4028170372E+00    0.1441438066E-02    0.1299065906E+00    0.2771932025E+00
    0.2500000000E+06    0.5494214839E+00    0.4027689847E+00    0.1379248431E-02    0.1299381090E+00    0.2773734358E+00
    0.2700000000E+06    0.5494639565E+00    0.4027208718E+00    0.1324223677E-02    0.1299660902E+00    0.2775373845E+00
    0.2900000000E+06    0.5494996020E+00    0.4026731394E+00    0.1275093669E-02    0.1299911881E+00    0.2776876547E+00
    0.3100000000E+06    0.5495298050E+00    0.4026260656E+00    0.1230881986E-02    0.1300138979E+00    0.2778262827E+00
    0.3300000000E+06    0.5495556065E+00    0.4025798228E+00    0.1190824089E-02    0.1300346024E+00    0.2779548886E+00
    0.3500000000E+06    0.5495778038E+00    0.4025345143E+00    0.1154311721E-02    0.1300536027E+00    0.2780747811E+00
    0.3700000000E+06    0.5495970170E+00    0.4024901971E+00    0.1120854140E-02    0.1300711395E+00    0.2781870323E+00
    0.3900000000E+06    0.5496137353E+00    0.4024468970E+00    0.1090050490E-02    0.1300874076E+00    0.2782925304E+00
    0.4100000000E+06    0.5496283495E+00    0.4024046190E+00    0.1061569710E-02    0.1301025669E+00    0.2783920196E+00
    0.4300000000E+06    0.5496411753E+00    0.4023633543E+00    0.1035135665E-02    0.1301167500E+00    0.2784861292E+00
    0.4500000000E+06    0.5496524703E+00    0.4023230845E+00    0.1010515980E-02    0.1301300676E+00    0.2785753958E+00
    0.4700000000E+06    0.5496624466E+00    0.4022837853E+00    0.9875135175E-03    0.1301426136E+00    0.2786602806E+00
    0.4900000000E+06    0.5496712803E+00    0.4022454288E+00    0.9659598013E-03    0.1301544676E+00    0.2787411828E+00
    0.1000000000E+06    0.5484390778E+00    0.4029982615E+00    0.2238619268E-02    0.1294938702E+00    0.2752017255E+00
    0.3000000000E+06    0.5495153121E+00    0.4026495074E+00    0.1252425035E-02    0.1300028154E+00    0.2777583144E+00
    0.5000000000E+06    0.5496753157E+00    0.4022265947E+00    0.9556801242E-03    0.1301601569E+00    0.2787802509E+00
    0.7000000000E+06    0.5497216792E+00    0.4018919027E+00    0.7996592908E-03    0.1302500652E+00    0.2794174908E+00
    0.9000000000E+06    0.5497352725E+00    0.4016192989E+00    0.6999458614E-03    0.1303123326E+00    0.2798790056E+00
    0.1100000000E+07    0.5497362218E+00    0.4013899717E+00    0.6293124801E-03    0.1303597548E+00    0.2802400846E+00
    0.1300000000E+07    0.5497315595E+00    0.4011921626E+00    0.5759690323E-03    0.1303979698E+00    0.2805362831E+00
    0.1500000000E+07    0.5497242439E+00    0.4010182501E+00    0.5338780263E-03    0.1304299369E+00    0.2807871722E+00
    0.1700000000E+07    0.5497156715E+00    0.4008630569E+00    0.4995882410E-03    0.1304573948E+00    0.2810046577E+00
    0.1900000000E+07    0.5497065531E+00    0.4007229179E+00    0.4709662759E-03    0.1304814490E+00    0.2811965145E+00
    0.2100000000E+07    0.5496972689E+00    0.4005951476E+00    0.4466136157E-03    0.1305028449E+00    0.2813680957E+00
    0.2300000000E+07    0.5496880276E+00    0.4004777205E+00    0.4255705644E-03    0.1305221084E+00    0.2815232422E+00
    0.2500000000E+07    0.5496789445E+00    0.4003690717E+00    0.4071539302E-03    0.1305396239E+00    0.2816648018E+00
    0.2700000000E+07    0.5496700822E+00    0.4002679675E+00    0.3908624860E-03    0.1305556808E+00    0.2817949440E+00
    0.2900000000E+07    0.5496614724E+00    0.4001734179E+00    0.3763191265E-03    0.1305705026E+00    0.2819153589E+00
    0.3100000000E+07    0.5496531289E+00    0.4000846161E+00    0.3632340037E-03    0.1305842649E+00    0.2820273885E+00
    0.3300000000E+07    0.5496450542E+00    0.4000008966E+00    0.3513802078E-03    0.1305971088E+00    0.2821321162E+00
    0.3500000000E+07    0.5496372446E+00    0.3999217031E+00    0.3405772430E-03    0.1306091487E+00    0.2822304286E+00
    0.3700000000E+07    0.5496296927E+00    0.3998465666E+00    0.3306795106E-03    0.1306204793E+00    0.2823230608E+00
    0.3900000000E+07    0.5496223887E+00    0.3997750875E+00    0.3215680991E-03    0.1306311791E+00    0.2824106290E+00
    0.4100000000E+07    0.5496153221E+00    0.3997069228E+00    0.3131448167E-03    0.1306413147E+00    0.2824936542E+00
    0.4300000000E+07    0.5496084818E+00    0.3996417757E+00    0.3053277756E-03    0.1306509424E+00    0.2825725816E+00
    0.4500000000E+07    0.5496018567E+00    0.3995793878E+00    0.2980480739E-03    0.1306601106E+00    0.2826477940E+00
    0.4700000000E+07    0.5495954360E+00    0.3995195325E+00    0.2912472663E-03    0.1306688612E+00    0.2827196232E+00
    0.4900000000E+07    0.5495892093E+00    0.3994620104E+00    0.2848754118E-03    0.1306772304E+00    0.2827883585E+00
    0.1000000000E+07    0.5497367415E+00    0.4015000849E+00    0.6619267226E-03    0.1303374562E+00    0.2800693469E+00
    0.3000000000E+07    0.5496572670E+00    0.4001283430E+00    0.3696097191E-03    0.1305775067E+00    0.2819723489E+00
    0.5000000000E+07    0.5495861656E+00    0.3994340682E+00    0.2818366784E-03    0.1306812821E+00    0.2828216466E+00
    0.7000000000E+07    0.5495333578E+00    0.3989637377E+00    0.2357333526E-03    0.1307482879E+00    0.2833729997E+00
    0.9000000000E+07    0.5494917727E+00    0.3986070080E+00    0.2062861409E-03    0.1307978589E+00    0.2837814900E+00
    0.1100000000E+08    0.5494575535E+00    0.3983192963E+00    0.1854353674E-03    0.1308372185E+00    0.2841059312E+00
    0.1300000000E+08    0.5494285059E+00    0.3980780538E+00    0.1696933306E-03    0.1308698638E+00    0.2843749891E+00
    0.1500000000E+08    0.5494032800E+00    0.3978702666E+00    0.1572749215E-03    0.1308977554E+00    0.2846047965E+00
    0.1700000000E+08    0.5493809907E+00    0.3976877328E+00    0.1471601036E-03    0.1309221038E+00    0.2848053331E+00
    0.1900000000E+08    0.5493610270E+00    0.3975249459E+00    0.1387185261E-03    0.1309437088E+00    0.2849832028E+00
    0.2100000000E+08    0.5493429503E+00    0.3973780282E+00    0.1315370781E-03    0.1309631268E+00    0.2851430020E+00
    0.2300000000E+08    0.5493264351E+00    0.3972441449E+00    0.1253323332E-03    0.1309807602E+00    0.2852880582E+00
    0.2500000000E+08    0.5493112333E+00    0.3971211606E+00    0.1199025625E-03    0.1309969098E+00    0.2854208579E+00
    0.2700000000E+08    0.5492971514E+00    0.3970074258E+00    0.1150997903E-03    0.1310118062E+00    0.2855433079E+00
