  Pressure (Pa) 22mC5-400 (mol/kg) 3mC6-400 (mol/kg) 33mC5-400 (mol/kg) 23mC5-400 (mol/kg) C7-400 (mol/kg)
    0.1000000000E+01    0.1593528265E-02    0.5215704253E-03    0.3851823501E-03    0.1865371128E-03    0.1354240427E-01
    0.3000000000E+01    0.4752029807E-02    0.1501533610E-02    0.1113561258E-02    0.5562715521E-03    0.3899465309E-01
    0.5000000000E+01    0.7873062168E-02    0.2405439789E-02    0.1791348040E-02    0.9216235860E-03    0.6248120159E-01
    0.7000000000E+01    0.1095733408E-01    0.3241819942E-02    0.2424144623E-02    0.1282676088E-02    0.8422217980E-01
    0.9000000000E+01    0.1400553626E-01    0.4017974839E-02    0.3016727929E-02    0.1639509826E-02    0.1044059990E+00
    0.1100000000E+02    0.1701834197E-01    0.4740189068E-02    0.3573196185E-02    0.1992203527E-02    0.1231948675E+00
    0.1300000000E+02    0.1999640757E-01    0.5413901900E-02    0.4097085318E-02    0.2340833942E-02    0.1407291945E+00
    0.1500000000E+02    0.2294037304E-01    0.6043844790E-02    0.4591462315E-02    0.2685475905E-02    0.1571311338E+00
    0.1700000000E+02    0.2585086249E-01    0.6634152895E-02    0.5059000671E-02    0.3026202397E-02    0.1725074587E+00
    0.1900000000E+02    0.2872848465E-01    0.7188456148E-02    0.5502041802E-02    0.3363084599E-02    0.1869519096E+00
    0.2100000000E+02    0.3157383332E-01    0.7709954137E-02    0.5922645345E-02    0.3696191946E-02    0.2005471249E+00
    0.2300000000E+02    0.3438748785E-01    0.8201478050E-02    0.6322630643E-02    0.4025592187E-02    0.2133662376E+00
    0.2500000000E+02    0.3717001357E-01    0.8665542223E-02    0.6703611124E-02    0.4351351425E-02    0.2254742046E+00
    0.2700000000E+02    0.3992196218E-01    0.9104387263E-02    0.7067022974E-02    0.4673534178E-02    0.2369289192E+00
    0.2900000000E+02    0.4264387220E-01    0.9520016318E-02    0.7414149165E-02    0.4992203418E-02    0.2477821459E+00
    0.3100000000E+02    0.4533626934E-01    0.9914225732E-02    0.7746139685E-02    0.5307420618E-02    0.2580803113E+00
    0.3300000000E+02    0.4799966689E-01    0.1028863106E-01    0.8064028652E-02    0.5619245801E-02    0.2678651753E+00
    0.3500000000E+02    0.5063456607E-01    0.1064468927E-01    0.8368748862E-02    0.5927737577E-02    0.2771744032E+00
    0.3700000000E+02    0.5324145636E-01    0.1098371772E-01    0.8661144195E-02    0.6232953189E-02    0.2860420561E+00
    0.3900000000E+02    0.5582081591E-01    0.1130691053E-01    0.8941980248E-02    0.6534948547E-02    0.2944990126E+00
    0.4100000000E+02    0.5837311180E-01    0.1161535263E-01    0.9211953468E-02    0.6833778273E-02    0.3025733315E+00
    0.4300000000E+02    0.6089880039E-01    0.1191003197E-01    0.9471699048E-02    0.7129495731E-02    0.3102905674E+00
    0.4500000000E+02    0.6339832761E-01    0.1219185016E-01    0.9721797747E-02    0.7422153070E-02    0.3176740440E+00
    0.4700000000E+02    0.6587212927E-01    0.1246163165E-01    0.9962781829E-02    0.7711801252E-02    0.3247450926E+00
    0.4900000000E+02    0.6832063134E-01    0.1272013186E-01    0.1019514023E-01    0.7998490091E-02    0.3315232604E+00
    0.1000000000E+02    0.1551632226E-01    0.4385466524E-02    0.3299243457E-02    0.1816369339E-02    0.1139655608E+00
    0.3000000000E+02    0.4399372751E-01    0.9719693548E-02    0.7581969218E-02    0.5150239738E-02    0.2529978991E+00
    0.5000000000E+02    0.6953552552E-01    0.1284537043E-01    0.1030822687E-01    0.8140740017E-02    0.3348081803E+00
    0.7000000000E+02    0.9260188885E-01    0.1489927889E-01    0.1220961277E-01    0.1084168215E-01    0.3887908958E+00
    0.9000000000E+02    0.1135598674E+00    0.1635203429E-01    0.1359748041E-01    0.1329598976E-01    0.4271322544E+00
    0.1100000000E+03    0.1327058292E+00    0.1743378284E-01    0.1463325286E-01    0.1553832184E-01    0.4558000627E+00
    0.1300000000E+03    0.1502817332E+00    0.1827043046E-01    0.1541257991E-01    0.1759697526E-01    0.4780636915E+00
    0.1500000000E+03    0.1664871165E+00    0.1893667482E-01    0.1599765052E-01    0.1949528639E-01    0.4958655139E+00
    0.1700000000E+03    0.1814880549E+00    0.1947964589E-01    0.1643163124E-01    0.2125267873E-01    0.5104327742E+00
    0.1900000000E+03    0.1954239468E+00    0.1993055411E-01    0.1674591893E-01    0.2288545618E-01    0.5225793201E+00
    0.2100000000E+03    0.2084127138E+00    0.2031089129E-01    0.1696414021E-01    0.2440741107E-01    0.5328663627E+00
    0.2300000000E+03    0.2205548288E+00    0.2063594171E-01    0.1710452979E-01    0.2583029527E-01    0.5416935794E+00
    0.2500000000E+03    0.2319364713E+00    0.2091687327E-01    0.1718143380E-01    0.2716418902E-01    0.5493534163E+00
    0.2700000000E+03    0.2426320191E+00    0.2116203629E-01    0.1720630865E-01    0.2841779240E-01    0.5560648465E+00
    0.2900000000E+03    0.2527060356E+00    0.2137779969E-01    0.1718841176E-01    0.2959865768E-01    0.5619951186E+00
    0.3100000000E+03    0.2622148669E+00    0.2156910589E-01    0.1713529518E-01    0.3071337610E-01    0.5672742045E+00
    0.3300000000E+03    0.2712079353E+00    0.2173984916E-01    0.1705316797E-01    0.3176772909E-01    0.5720046558E+00
    0.3500000000E+03    0.2797287941E+00    0.2189313945E-01    0.1694716804E-01    0.3276681167E-01    0.5762684863E+00
    0.3700000000E+03    0.2878159942E+00    0.2203149049E-01    0.1682156989E-01    0.3371513380E-01    0.5801320783E+00
    0.3900000000E+03    0.2955038001E+00    0.2215695605E-01    0.1667994577E-01    0.3461670407E-01    0.5836497447E+00
    0.4100000000E+03    0.3028227852E+00    0.2227123061E-01    0.1652529239E-01    0.3547509936E-01    0.5868663589E+00
    0.4300000000E+03    0.3098003295E+00    0.2237572458E-01    0.1636013156E-01    0.3629352300E-01    0.5898193239E+00
    0.4500000000E+03    0.3164610376E+00    0.2247162143E-01    0.1618659100E-01    0.3707485371E-01    0.5925400686E+00
    0.4700000000E+03    0.3228270925E+00    0.2255992158E-01    0.1600646970E-01    0.3782168696E-01    0.5950551972E+00
    0.4900000000E+03    0.3289185551E+00    0.2264147642E-01    0.1582129115E-01    0.3853636999E-01    0.5973873827E+00
    0.1000000000E+03    0.1233431106E+00    0.1692980573E-01    0.1415236730E-01    0.1444175353E-01    0.4424293235E+00
    0.3000000000E+03    0.2575278616E+00    0.2147624552E-01    0.1716583993E-01    0.3016390650E-01    0.5647090999E+00
    0.5000000000E+03    0.3318670669E+00    0.2267995637E-01    0.1572721709E-01    0.3888232827E-01    0.5984910582E+00
    0.7000000000E+03    0.3800563432E+00    0.2322731499E-01    0.1380461938E-01    0.4453897325E-01    0.6144862818E+00
    0.9000000000E+03    0.4140733256E+00    0.2353553848E-01    0.1206149883E-01    0.4853548023E-01    0.6238622882E+00
    0.1100000000E+04    0.4394253210E+00    0.2373064215E-01    0.1059663351E-01    0.5151651329E-01    0.6300426276E+00
    0.1300000000E+04    0.4590557613E+00    0.2386362679E-01    0.9387166657E-02    0.5382672313E-01    0.6344326053E+00
    0.1500000000E+04    0.4746992783E+00    0.2395900512E-01    0.8388536643E-02    0.5566928171E-01    0.6377169972E+00
    0.1700000000E+04    0.4874506974E+00    0.2402999059E-01    0.7558777099E-02    0.5717246099E-01    0.6402699363E+00
    0.1900000000E+04    0.4980372286E+00    0.2408431811E-01    0.6863453487E-02    0.5842148777E-01    0.6423133659E+00
    0.2100000000E+04    0.5069615032E+00    0.2412680672E-01    0.6275497007E-02    0.5947528629E-01    0.6439873999E+00
    0.2300000000E+04    0.5145822473E+00    0.2416060911E-01    0.5773893694E-02    0.6037592285E-01    0.6453849154E+00
    0.2500000000E+04    0.5211623659E+00    0.2418787060E-01    0.5342335778E-02    0.6115423622E-01    0.6465699465E+00
    0.2700000000E+04    0.5268989050E+00    0.2421009908E-01    0.4968104114E-02    0.6183334657E-01    0.6475880956E+00
    0.2900000000E+04    0.5319424183E+00    0.2422838356E-01    0.4641204668E-02    0.6243092402E-01    0.6484727329E+00
    0.3100000000E+04    0.5364098775E+00    0.2424352891E-01    0.4353718422E-02    0.6296070122E-01    0.6492488487E+00
    0.3300000000E+04    0.5403935101E+00    0.2425614190E-01    0.4099315873E-02    0.6343350889E-01    0.6499355342E+00
    0.3500000000E+04    0.5439669891E+00    0.2426668795E-01    0.3872894380E-02    0.6385800128E-01    0.6505476290E+00
    0.3700000000E+04    0.5471898563E+00    0.2427552950E-01    0.3670306055E-02    0.6424117468E-01    0.6510968452E+00
    0.3900000000E+04    0.5501107409E+00    0.2428295258E-01    0.3488152271E-02    0.6458874477E-01    0.6515925520E+00
    0.4100000000E+04    0.5527697392E+00    0.2428918566E-01    0.3323627284E-02    0.6490542559E-01    0.6520423351E+00
    0.4300000000E+04    0.5552001984E+00    0.2429441318E-01    0.3174398293E-02    0.6519513888E-01    0.6524524030E+00
    0.4500000000E+04    0.5574300731E+00    0.2429878549E-01    0.3038512681E-02    0.6546117311E-01    0.6528278868E+00
    0.4700000000E+04    0.5594829679E+00    0.2430242618E-01    0.2914325721E-02    0.6570630582E-01    0.6531730649E+00
    0.4900000000E+04    0.5613789478E+00    0.2430543773E-01    0.2800443781E-02    0.6593289873E-01    0.6534915336E+00
    0.1000000000E+04    0.4276101151E+00    0.2364312483E-01    0.1129465441E-01    0.5012690020E-01    0.6272392078E+00
    0.3000000000E+04    0.5342418934E+00    0.2423630683E-01    0.4492962982E-02    0.6270355243E-01    0.6488730470E+00
    0.5000000000E+04    0.5622735567E+00    0.2430673486E-01    0.2746989084E-02    0.6603988582E-01    0.6536417221E+00
    0.7000000000E+04    0.5750242734E+00    0.2431445910E-01    0.2006487250E-02    0.6757106361E-01    0.6557848065E+00
    0.9000000000E+04    0.5822770770E+00    0.2430600619E-01    0.1604698645E-02    0.6844979150E-01    0.6570183274E+00
    0.1100000000E+05    0.5869468456E+00    0.2429242710E-01    0.1353549402E-02    0.6902059781E-01    0.6578269120E+00
    0.1300000000E+05    0.5902009808E+00    0.2427730932E-01    0.1181580252E-02    0.6942188746E-01    0.6584015205E+00
    0.1500000000E+05    0.5925967057E+00    0.2426200991E-01    0.1056142552E-02    0.6971992397E-01    0.6588330065E+00
    0.1700000000E+05    0.5944331901E+00    0.2424707684E-01    0.9603191927E-03    0.6995039118E-01    0.6591702690E+00
    0.1900000000E+05    0.5958852656E+00    0.2423272756E-01    0.8845039176E-03    0.7013420504E-01    0.6594420348E+00
    0.2100000000E+05    0.5970618721E+00    0.2421903442E-01    0.8228482610E-03    0.7028443774E-01    0.6596663249E+00
    0.2300000000E+05    0.5980343958E+00    0.2420600369E-01    0.7715909793E-03    0.7040968087E-01    0.6598550370E+00
    0.2500000000E+05    0.5988515511E+00    0.2419361172E-01    0.7282037698E-03    0.7051581498E-01    0.6600163549E+00
    0.2700000000E+05    0.5995477112E+00    0.2418182210E-01    0.6909240555E-03    0.7060700179E-01    0.6601560998E+00
    0.2900000000E+05    0.6001478190E+00    0.2417059409E-01    0.6584850050E-03    0.7068627029E-01    0.6602785306E+00
    0.3100000000E+05    0.6006704107E+00    0.2415988681E-01    0.6299521909E-03    0.7075587813E-01    0.6603868382E+00
    0.3300000000E+05    0.6011295470E+00    0.2414966114E-01    0.6046208446E-03    0.7081754299E-01    0.6604834626E+00
    0.3500000000E+05    0.6015360861E+00    0.2413988065E-01    0.5819490291E-03    0.7087259523E-01    0.6605703032E+00
    0.3700000000E+05    0.6018985454E+00    0.2413051184E-01    0.5615128963E-03    0.7092208152E-01    0.6606488616E+00
    0.3900000000E+05    0.6022236997E+00    0.2412152416E-01    0.5429759572E-03    0.7096683685E-01    0.6607203418E+00
    0.4100000000E+05    0.6025170048E+00    0.2411288985E-01    0.5260674991E-03    0.7100753562E-01    0.6607857204E+00
    0.4300000000E+05    0.6027829033E+00    0.2410458374E-01    0.5105671198E-03    0.7104472862E-01    0.6608457990E+00
    0.4500000000E+05    0.6030250493E+00    0.2409658300E-01    0.4962934465E-03    0.7107887021E-01    0.6609012415E+00
    0.4700000000E+05    0.6032464758E+00    0.2408886693E-01    0.4830957722E-03    0.7111033860E-01    0.6609526031E+00
    0.4900000000E+05    0.6034497210E+00    0.2408141672E-01    0.4708477651E-03    0.7113945126E-01    0.6610003518E+00
    0.1000000000E+05    0.5848406624E+00    0.2429955169E-01    0.1466130560E-02    0.6876252818E-01    0.6574603051E+00
    0.3000000000E+05    0.6004178381E+00    0.2416517786E-01    0.6437788324E-03    0.7072216386E-01    0.6603342825E+00
    0.5000000000E+05    0.6035452080E+00    0.2407778591E-01    0.4650458692E-03    0.7115320975E-01    0.6610229979E+00
    0.7000000000E+05    0.6048784693E+00    0.2401570360E-01    0.3799128605E-03    0.7135237552E-01    0.6613573075E+00
    0.9000000000E+05    0.6056146147E+00    0.2396769251E-01    0.3280832694E-03    0.7147085224E-01    0.6615629361E+00
    0.1100000000E+06    0.6060800269E+00    0.2392857576E-01    0.2924154758E-03    0.7155118438E-01    0.6617058045E+00
    0.1300000000E+06    0.6064000665E+00    0.2389557992E-01    0.2659905942E-03    0.7161020131E-01    0.6618127338E+00
    0.1500000000E+06    0.6066331372E+00    0.2386705154E-01    0.2454230134E-03    0.7165596790E-01    0.6618968726E+00
    0.1700000000E+06    0.6068101029E+00    0.2384192670E-01    0.2288382454E-03    0.7169286393E-01    0.6619654988E+00
    0.1900000000E+06    0.6069487987E+00    0.2381948084E-01    0.2151047116E-03    0.7172348830E-01    0.6620230017E+00
    0.2100000000E+06    0.6070602446E+00    0.2379919840E-01    0.2034940837E-03    0.7174948877E-01    0.6620722039E+00
    0.2300000000E+06    0.6071516133E+00    0.2378069953E-01    0.1935137946E-03    0.7177196527E-01    0.6621150133E+00
    0.2500000000E+06    0.6072277727E+00    0.2376369629E-01    0.1848173320E-03    0.7179168288E-01    0.6621527714E+00
    0.2700000000E+06    0.6072921416E+00    0.2374796527E-01    0.1771529703E-03    0.7180919205E-01    0.6621864534E+00
    0.2900000000E+06    0.6073471904E+00    0.2373332960E-01    0.1703328896E-03    0.7182490007E-01    0.6622167868E+00
    0.3100000000E+06    0.6073947485E+00    0.2371964691E-01    0.1642137534E-03    0.7183911557E-01    0.6622443278E+00
    0.3300000000E+06    0.6074361989E+00    0.2370680086E-01    0.1586840382E-03    0.7185207724E-01    0.6622695094E+00
    0.3500000000E+06    0.6074726059E+00    0.2369469521E-01    0.1536555091E-03    0.7186397297E-01    0.6622926748E+00
    0.3700000000E+06    0.6075048024E+00    0.2368324940E-01    0.1490573275E-03    0.7187495296E-01    0.6623141001E+00
    0.3900000000E+06    0.6075334487E+00    0.2367239534E-01    0.1448318823E-03    0.7188513895E-01    0.6623340103E+00
    0.4100000000E+06    0.6075590752E+00    0.2366207497E-01    0.1409317801E-03    0.7189463079E-01    0.6623525909E+00
    0.4300000000E+06    0.6075821127E+00    0.2365223835E-01    0.1373176307E-03    0.7190351129E-01    0.6623699965E+00
    0.4500000000E+06    0.6076029146E+00    0.2364284225E-01    0.1339563921E-03    0.7191184980E-01    0.6623863570E+00
    0.4700000000E+06    0.6076217734E+00    0.2363384899E-01    0.1308201153E-03    0.7191970489E-01    0.6624017829E+00
    0.4900000000E+06    0.6076389336E+00    0.2362522551E-01    0.1278849787E-03    0.7192712646E-01    0.6624163683E+00
    0.1000000000E+06    0.6058709727E+00    0.2394723135E-01    0.3087842128E-03    0.7151442863E-01    0.6616400654E+00
    0.3000000000E+06    0.6073718107E+00    0.2372637693E-01    0.1671933036E-03    0.7183217809E-01    0.6622308769E+00
    0.5000000000E+06    0.6076469421E+00    0.2362104319E-01    0.1264863342E-03    0.7193068828E-01    0.6624233716E+00
    0.7000000000E+06    0.6077540656E+00    0.2355125135E-01    0.1053520425E-03    0.7198695804E-01    0.6625341775E+00
    0.9000000000E+06    0.6078074681E+00    0.2349899948E-01    0.9193381635E-04    0.7202589635E-01    0.6626108315E+00
    0.1100000000E+07    0.6078375001E+00    0.2345723077E-01    0.8246925185E-04    0.7205552566E-01    0.6626690055E+00
    0.1300000000E+07    0.6078555209E+00    0.2342244061E-01    0.7534340694E-04    0.7207938294E-01    0.6627156893E+00
    0.1500000000E+07    0.6078666831E+00    0.2339263195E-01    0.6973403815E-04    0.7209932495E-01    0.6627545754E+00
    0.1700000000E+07    0.6078736355E+00    0.2336655825E-01    0.6517306857E-04    0.7211644252E-01    0.6627878402E+00
    0.1900000000E+07    0.6078778651E+00    0.2334338900E-01    0.6137207130E-04    0.7213142913E-01    0.6628168696E+00
    0.2100000000E+07    0.6078802634E+00    0.2332254304E-01    0.5814245397E-04    0.7214475224E-01    0.6628425981E+00
    0.2300000000E+07    0.6078813928E+00    0.2330359778E-01    0.5535507205E-04    0.7215674148E-01    0.6628656849E+00
    0.2500000000E+07    0.6078816225E+00    0.2328623628E-01    0.5291815347E-04    0.7216763783E-01    0.6628866115E+00
    0.2700000000E+07    0.6078812032E+00    0.2327021478E-01    0.5076447267E-04    0.7217762265E-01    0.6629057398E+00
    0.2900000000E+07    0.6078803095E+00    0.2325534173E-01    0.4884351970E-04    0.7218683582E-01    0.6629233489E+00
    0.3100000000E+07    0.6078790659E+00    0.2324146392E-01    0.4711651837E-04    0.7219538741E-01    0.6629396579E+00
    0.3300000000E+07    0.6078775631E+00    0.2322845685E-01    0.4555314492E-04    0.7220336561E-01    0.6629548424E+00
    0.3500000000E+07    0.6078758679E+00    0.2321621799E-01    0.4412930167E-04    0.7221084214E-01    0.6629690447E+00
    0.3700000000E+07    0.6078740303E+00    0.2320466193E-01    0.4282556713E-04    0.7221787609E-01    0.6629823820E+00
    0.3900000000E+07    0.6078720881E+00    0.2319371671E-01    0.4162609255E-04    0.7222451672E-01    0.6629949520E+00
    0.4100000000E+07    0.6078700705E+00    0.2318332118E-01    0.4051780046E-04    0.7223080552E-01    0.6630068368E+00
    0.4300000000E+07    0.6078679997E+00    0.2317342295E-01    0.3948979241E-04    0.7223677777E-01    0.6630181060E+00
    0.4500000000E+07    0.6078658931E+00    0.2316397674E-01    0.3853290419E-04    0.7224246370E-01    0.6630288193E+00
    0.4700000000E+07    0.6078637643E+00    0.2315494320E-01    0.3763936705E-04    0.7224788943E-01    0.6630390281E+00
    0.4900000000E+07    0.6078616239E+00    0.2314628789E-01    0.3680254640E-04    0.7225307766E-01    0.6630487771E+00
    0.1000000000E+07    0.6078244758E+00    0.2347707302E-01    0.8683529279E-04    0.7204159664E-01    0.6626416803E+00
    0.3000000000E+07    0.6078797251E+00    0.2324828679E-01    0.4795783831E-04    0.7219118836E-01    0.6629316541E+00
    0.5000000000E+07    0.6078605521E+00    0.2314209247E-01    0.3640359045E-04    0.7225558901E-01    0.6630534916E+00
    0.7000000000E+07    0.6078397858E+00    0.2307228217E-01    0.3036089087E-04    0.7229708663E-01    0.6631309740E+00
    0.9000000000E+07    0.6078212836E+00    0.2302022549E-01    0.2651207715E-04    0.7232774684E-01    0.6631877293E+00
    0.1100000000E+08    0.6078050646E+00    0.2297871616E-01    0.2379248468E-04    0.7235206874E-01    0.6632324698E+00
    0.1300000000E+08    0.6077907490E+00    0.2294420129E-01    0.2174261446E-04    0.7237222725E-01    0.6632693719E+00
    0.1500000000E+08    0.6077779801E+00    0.2291466593E-01    0.2012774661E-04    0.7238944064E-01    0.6633007590E+00
    0.1700000000E+08    0.6077664746E+00    0.2288885655E-01    0.1881397138E-04    0.7240446029E-01    0.6633280566E+00
    0.1900000000E+08    0.6077560135E+00    0.2286594014E-01    0.1771864618E-04    0.7241778240E-01    0.6633522017E+00
    0.2100000000E+08    0.6077464272E+00    0.2284533491E-01    0.1678767135E-04    0.7242975184E-01    0.6633738429E+00
    0.2300000000E+08    0.6077375830E+00    0.2282661851E-01    0.1598396728E-04    0.7244061806E-01    0.6633934477E+00
    0.2500000000E+08    0.6077293756E+00    0.2280947463E-01    0.1528116586E-04    0.7245056731E-01    0.6634113642E+00
    0.2700000000E+08    0.6077217199E+00    0.2279366022E-01    0.1465994058E-04    0.7245974232E-01    0.6634278585E+00
