  Pressure (Pa) 22mC5-400 (mol/kg) 3mC6-400 (mol/kg) 33mC5-400 (mol/kg) 23mC5-400 (mol/kg) C7-400 (mol/kg)
    0.1000000000E+01    0.2122861415E-02    0.4214172349E-02    0.6467222039E-04    0.4659387130E-03    0.3419196758E-02
    0.3000000000E+01    0.6319660649E-02    0.1236367309E-01    0.1895651841E-03    0.1387087707E-02    0.1003242017E-01
    0.5000000000E+01    0.1045248320E-01    0.2016143679E-01    0.3088258401E-03    0.2294207205E-02    0.1636158561E-01
    0.7000000000E+01    0.1452279448E-01    0.2762975035E-01    0.4227916718E-03    0.3187618463E-02    0.2242466260E-01
    0.9000000000E+01    0.1853201537E-01    0.3478905683E-01    0.5317730800E-03    0.4067632977E-02    0.2823813513E-01
    0.1100000000E+02    0.2248152389E-01    0.4165814219E-01    0.6360561059E-03    0.4934552852E-02    0.3381715218E-01
    0.1300000000E+02    0.2637265684E-01    0.4825429993E-01    0.7359048282E-03    0.5788671151E-02    0.3917566016E-01
    0.1500000000E+02    0.3020671130E-01    0.5459347632E-01    0.8315634807E-03    0.6630272234E-02    0.4432651999E-01
    0.1700000000E+02    0.3398494609E-01    0.6069039915E-01    0.9232583260E-03    0.7459632074E-02    0.4928161068E-01
    0.1900000000E+02    0.3770858319E-01    0.6655869190E-01    0.1011199320E-02    0.8277018568E-02    0.5405192137E-01
    0.2100000000E+02    0.4137880904E-01    0.7221097533E-01    0.1095581590E-02    0.9082691827E-02    0.5864763309E-01
    0.2300000000E+02    0.4499677588E-01    0.7765895806E-01    0.1176586757E-02    0.9876904458E-02    0.6307819176E-01
    0.2500000000E+02    0.4856360292E-01    0.8291351752E-01    0.1254384113E-02    0.1065990183E-01    0.6735237338E-01
    0.2700000000E+02    0.5208037754E-01    0.8798477243E-01    0.1329131677E-02    0.1143192235E-01    0.7147834238E-01
    0.2900000000E+02    0.5554815641E-01    0.9288214778E-01    0.1400977145E-02    0.1219319766E-01    0.7546370403E-01
    0.3100000000E+02    0.5896796655E-01    0.9761443330E-01    0.1470058741E-02    0.1294395294E-01    0.7931555150E-01
    0.3300000000E+02    0.6234080641E-01    0.1021898361E+00    0.1536505983E-02    0.1368440707E-01    0.8304050827E-01
    0.3500000000E+02    0.6566764678E-01    0.1066160282E+00    0.1600440382E-02    0.1441477290E-01    0.8664476639E-01
    0.3700000000E+02    0.6894943181E-01    0.1109001892E+00    0.1661976063E-02    0.1513525743E-01    0.9013412106E-01
    0.3900000000E+02    0.7218707989E-01    0.1150490456E+00    0.1721220335E-02    0.1584606201E-01    0.9351400192E-01
    0.4100000000E+02    0.7538148451E-01    0.1190689055E+00    0.1778274207E-02    0.1654738252E-01    0.9678950147E-01
    0.4300000000E+02    0.7853351514E-01    0.1229656911E+00    0.1833232858E-02    0.1723940960E-01    0.9996540079E-01
    0.4500000000E+02    0.8164401797E-01    0.1267449673E+00    0.1886186059E-02    0.1792232876E-01    0.1030461931E+00
    0.4700000000E+02    0.8471381674E-01    0.1304119686E+00    0.1937218566E-02    0.1859632061E-01    0.1060361049E+00
    0.4900000000E+02    0.8774371345E-01    0.1339716232E+00    0.1986410473E-02    0.1926156099E-01    0.1089391158E+00
    0.1000000000E+02    0.2051414918E-01    0.3825876311E-01    0.5844848972E-03    0.4502711220E-02    0.3105605220E-01
    0.3000000000E+02    0.5726399451E-01    0.9526840075E-01    0.1435855136E-02    0.1256987648E-01    0.7740589253E-01
    0.5000000000E+02    0.8924394339E-01    0.1357126572E+00    0.2010340037E-02    0.1959095306E-01    0.1103592139E+00
    0.7000000000E+02    0.1173334955E+00    0.1658943979E+00    0.2408694581E-02    0.2575876591E-01    0.1350039660E+00
    0.9000000000E+02    0.1422077641E+00    0.1892787944E+00    0.2688438975E-02    0.3122133623E-01    0.1541394769E+00
    0.1100000000E+03    0.1643936124E+00    0.2079287577E+00    0.2885086927E-02    0.3609418607E-01    0.1694335041E+00
    0.1300000000E+03    0.1843082641E+00    0.2231491021E+00    0.3021846537E-02    0.4046880163E-01    0.1819417068E+00
    0.1500000000E+03    0.2022864497E+00    0.2358054930E+00    0.3114541135E-02    0.4441858388E-01    0.1923649702E+00
    0.1700000000E+03    0.2185998700E+00    0.2464948648E+00    0.3174314814E-02    0.4800311500E-01    0.2011869594E+00
    0.1900000000E+03    0.2334713959E+00    0.2556421938E+00    0.3209217641E-02    0.5127127140E-01    0.2087522652E+00
    0.2100000000E+03    0.2470855944E+00    0.2635582611E+00    0.3225183100E-02    0.5426353105E-01    0.2153130692E+00
    0.2300000000E+03    0.2595966419E+00    0.2704755965E+00    0.3226656341E-02    0.5701370840E-01    0.2210581951E+00
    0.2500000000E+03    0.2711343517E+00    0.2765716499E+00    0.3217012035E-02    0.5955027581E-01    0.2261318451E+00
    0.2700000000E+03    0.2818088199E+00    0.2819841884E+00    0.3198840296E-02    0.6189738210E-01    0.2306460558E+00
    0.2900000000E+03    0.2917140458E+00    0.2868218026E+00    0.3174147071E-02    0.6407564627E-01    0.2346892009E+00
    0.3100000000E+03    0.3009307810E+00    0.2911712420E+00    0.3144497463E-02    0.6610278223E-01    0.2383319309E+00
    0.3300000000E+03    0.3095287933E+00    0.2951026435E+00    0.3111120030E-02    0.6799409511E-01    0.2416314080E+00
    0.3500000000E+03    0.3175686801E+00    0.2986733266E+00    0.3074983845E-02    0.6976287893E-01    0.2446343818E+00
    0.3700000000E+03    0.3251033336E+00    0.3019305930E+00    0.3036856171E-02    0.7142073784E-01    0.2473794598E+00
    0.3900000000E+03    0.3321791326E+00    0.3049138238E+00    0.2997346130E-02    0.7297784749E-01    0.2498988076E+00
    0.4100000000E+03    0.3388369198E+00    0.3076560708E+00    0.2956938104E-02    0.7444316926E-01    0.2522194406E+00
    0.4300000000E+03    0.3451128070E+00    0.3101852785E+00    0.2916017517E-02    0.7582462689E-01    0.2543642161E+00
    0.4500000000E+03    0.3510388437E+00    0.3125252342E+00    0.2874890890E-02    0.7712925311E-01    0.2563526052E+00
    0.4700000000E+03    0.3566435753E+00    0.3146963130E+00    0.2833801555E-02    0.7836331194E-01    0.2582012977E+00
    0.4900000000E+03    0.3619525108E+00    0.3167160687E+00    0.2792942058E-02    0.7953240142E-01    0.2599246826E+00
    0.1000000000E+03    0.1536084577E+00    0.1991009948E+00    0.2795483510E-02    0.3372527456E-01    0.1621901696E+00
    0.3000000000E+03    0.2964038800E+00    0.2890528214E+00    0.3159858156E-02    0.6510709733E-01    0.2365567697E+00
    0.5000000000E+03    0.3645032948E+00    0.3176740326E+00    0.2772647245E-02    0.8009417151E-01    0.2607433482E+00
    0.7000000000E+03    0.4044560473E+00    0.3316895487E+00    0.2401233585E-02    0.8889897215E-01    0.2728385306E+00
    0.9000000000E+03    0.4307331942E+00    0.3399795403E+00    0.2106588982E-02    0.9469787639E-01    0.2801417578E+00
    0.1100000000E+04    0.4493278766E+00    0.3454416907E+00    0.1877040907E-02    0.9880700067E-01    0.2850530147E+00
    0.1300000000E+04    0.4631763542E+00    0.3493022874E+00    0.1696034917E-02    0.1018714626E+00    0.2885953726E+00
    0.1500000000E+04    0.4738877332E+00    0.3521691041E+00    0.1550682463E-02    0.1042449594E+00    0.2912795017E+00
    0.1700000000E+04    0.4824178653E+00    0.3543775163E+00    0.1431801749E-02    0.1061376939E+00    0.2933891750E+00
    0.1900000000E+04    0.4893703131E+00    0.3561276338E+00    0.1332923688E-02    0.1076824577E+00    0.2950948899E+00
    0.2100000000E+04    0.4951449286E+00    0.3575461897E+00    0.1249443732E-02    0.1089672637E+00    0.2965053717E+00
    0.2300000000E+04    0.5000170823E+00    0.3587173119E+00    0.1178029527E-02    0.1100527528E+00    0.2976932897E+00
    0.2500000000E+04    0.5041825876E+00    0.3596990145E+00    0.1116225437E-02    0.1109820654E+00    0.2987090993E+00
    0.2700000000E+04    0.5077844818E+00    0.3605325845E+00    0.1062189598E-02    0.1117867294E+00    0.2995889526E+00
    0.2900000000E+04    0.5109296754E+00    0.3612481936E+00    0.1014517367E-02    0.1124903203E+00    0.3003594484E+00
    0.3100000000E+04    0.5136996732E+00    0.3618683952E+00    0.9721209771E-03    0.1131108195E+00    0.3010406042E+00
    0.3300000000E+04    0.5161576939E+00    0.3624103800E+00    0.9341461342E-03    0.1136621804E+00    0.3016477809E+00
    0.3500000000E+04    0.5183535225E+00    0.3628874765E+00    0.8999132363E-03    0.1141553965E+00    0.3021929686E+00
    0.3700000000E+04    0.5203268965E+00    0.3633101747E+00    0.8688752769E-03    0.1145992465E+00    0.3026856675E+00
    0.3900000000E+04    0.5221099173E+00    0.3636868410E+00    0.8405872308E-03    0.1150008255E+00    0.3031335055E+00
    0.4100000000E+04    0.5237287994E+00    0.3640242278E+00    0.8146834698E-03    0.1153659300E+00    0.3035426804E+00
    0.4300000000E+04    0.5252051596E+00    0.3643278431E+00    0.7908608795E-03    0.1156993420E+00    0.3039182818E+00
    0.4500000000E+04    0.5265569821E+00    0.3646022239E+00    0.7688660798E-03    0.1160050419E+00    0.3042645298E+00
    0.4700000000E+04    0.5277993505E+00    0.3648511394E+00    0.7484856400E-03    0.1162863694E+00    0.3045849542E+00
    0.4900000000E+04    0.5289450095E+00    0.3650777469E+00    0.7295385057E-03    0.1165461479E+00    0.3048825311E+00
    0.1000000000E+04    0.4407639634E+00    0.3429662896E+00    0.1984776999E-02    0.9691382046E-01    0.2828149418E+00
    0.3000000000E+04    0.5123572596E+00    0.3615690407E+00    0.9927177711E-03    0.1128100043E+00    0.3007101421E+00
    0.5000000000E+04    0.5294850254E+00    0.3651835340E+00    0.7205532178E-03    0.1166687213E+00    0.3050235568E+00
    0.7000000000E+04    0.5371488788E+00    0.3665984767E+00    0.5882479050E-03    0.1184193448E+00    0.3070964304E+00
    0.9000000000E+04    0.5414877773E+00    0.3673001964E+00    0.5076069619E-03    0.1194239912E+00    0.3083623923E+00
    0.1100000000E+05    0.5442766864E+00    0.3676904558E+00    0.4522192572E-03    0.1200784495E+00    0.3092381493E+00
    0.1300000000E+05    0.5462185906E+00    0.3679206861E+00    0.4112754454E-03    0.1205402231E+00    0.3098920478E+00
    0.1500000000E+05    0.5476474351E+00    0.3680597748E+00    0.3794685166E-03    0.1208844828E+00    0.3104060580E+00
    0.1700000000E+05    0.5487421320E+00    0.3681431523E+00    0.3538609105E-03    0.1211516881E+00    0.3108252785E+00
    0.1900000000E+05    0.5496071428E+00    0.3681906942E+00    0.3326820001E-03    0.1213655706E+00    0.3111767680E+00
    0.2100000000E+05    0.5503075413E+00    0.3682142953E+00    0.3147943237E-03    0.1215409812E+00    0.3114778498E+00
    0.2300000000E+05    0.5508859701E+00    0.3682214397E+00    0.2994301189E-03    0.1216876957E+00    0.3117401882E+00
    0.2500000000E+05    0.5513715345E+00    0.3682170271E+00    0.2860502753E-03    0.1218124167E+00    0.3119719606E+00
    0.2700000000E+05    0.5517847762E+00    0.3682043699E+00    0.2742638124E-03    0.1219198960E+00    0.3121790923E+00
    0.2900000000E+05    0.5521406050E+00    0.3681857678E+00    0.2637794502E-03    0.1220135980E+00    0.3123659970E+00
    0.3100000000E+05    0.5524501040E+00    0.3681628526E+00    0.2543751948E-03    0.1220961095E+00    0.3125360397E+00
    0.3300000000E+05    0.5527216820E+00    0.3681368040E+00    0.2458785299E-03    0.1221694017E+00    0.3126918378E+00
    0.3500000000E+05    0.5529618338E+00    0.3681084879E+00    0.2381531086E-03    0.1222350042E+00    0.3128354625E+00
    0.3700000000E+05    0.5531756549E+00    0.3680785485E+00    0.2310895683E-03    0.1222941219E+00    0.3129685783E+00
    0.3900000000E+05    0.5533671984E+00    0.3680474701E+00    0.2245990416E-03    0.1223477178E+00    0.3130925404E+00
    0.4100000000E+05    0.5535397290E+00    0.3680156200E+00    0.2186084755E-03    0.1223965708E+00    0.3132084654E+00
    0.4300000000E+05    0.5536959048E+00    0.3679832789E+00    0.2130571930E-03    0.1224413180E+00    0.3133172833E+00
    0.4500000000E+05    0.5538379122E+00    0.3679506627E+00    0.2078943254E-03    0.1224824856E+00    0.3134197761E+00
    0.4700000000E+05    0.5539675661E+00    0.3679179377E+00    0.2030768663E-03    0.1225205123E+00    0.3135166069E+00
    0.4900000000E+05    0.5540863850E+00    0.3678852329E+00    0.1985681777E-03    0.1225557668E+00    0.3136083425E+00
    0.1000000000E+05    0.5430191740E+00    0.3675218785E+00    0.4776223386E-03    0.1197822822E+00    0.3088355271E+00
    0.3000000000E+05    0.5523005679E+00    0.3681747669E+00    0.2589540704E-03    0.1220561173E+00    0.3124529477E+00
    0.5000000000E+05    0.5541421395E+00    0.3678689201E+00    0.1964196229E-03    0.1225724540E+00    0.3136524547E+00
    0.7000000000E+05    0.5549144739E+00    0.3675584333E+00    0.1639412210E-03    0.1228162222E+00    0.3143565876E+00
    0.9000000000E+05    0.5553331777E+00    0.3672870487E+00    0.1432993994E-03    0.1229637267E+00    0.3148514834E+00
    0.1100000000E+06    0.5555927916E+00    0.3670515453E+00    0.1287239333E-03    0.1230651797E+00    0.3152319099E+00
    0.1300000000E+06    0.5557677111E+00    0.3668450416E+00    0.1177389739E-03    0.1231406347E+00    0.3155404358E+00
    0.1500000000E+06    0.5558924198E+00    0.3666617273E+00    0.1090837396E-03    0.1231997809E+00    0.3157997161E+00
    0.1700000000E+06    0.5559850404E+00    0.3664971593E+00    0.1020402362E-03    0.1232479190E+00    0.3160232023E+00
    0.1900000000E+06    0.5560559849E+00    0.3663479761E+00    0.9616583301E-04    0.1232882154E+00    0.3162195192E+00
    0.2100000000E+06    0.5561116475E+00    0.3662116095E+00    0.9117096588E-04    0.1233226901E+00    0.3163945210E+00
    0.2300000000E+06    0.5561561647E+00    0.3660860669E+00    0.8685724735E-04    0.1233526995E+00    0.3165523602E+00
    0.2500000000E+06    0.5561923259E+00    0.3659697774E+00    0.8308363095E-04    0.1233791920E+00    0.3166960877E+00
    0.2700000000E+06    0.5562220774E+00    0.3658614837E+00    0.7974674695E-04    0.1234028534E+00    0.3168280093E+00
    0.2900000000E+06    0.5562468166E+00    0.3657601653E+00    0.7676889275E-04    0.1234241937E+00    0.3169499102E+00
    0.3100000000E+06    0.5562675711E+00    0.3656649835E+00    0.7409039015E-04    0.1234436010E+00    0.3170631999E+00
    0.3300000000E+06    0.5562851128E+00    0.3655752411E+00    0.7166454987E-04    0.1234613769E+00    0.3171690109E+00
    0.3500000000E+06    0.5563000317E+00    0.3654903523E+00    0.6945425384E-04    0.1234777597E+00    0.3172682665E+00
    0.3700000000E+06    0.5563127859E+00    0.3654098210E+00    0.6742957520E-04    0.1234929407E+00    0.3173617293E+00
    0.3900000000E+06    0.5563237364E+00    0.3653332227E+00    0.6556608324E-04    0.1235070756E+00    0.3174500364E+00
    0.4100000000E+06    0.5563331710E+00    0.3652601921E+00    0.6384361202E-04    0.1235202924E+00    0.3175337254E+00
    0.4300000000E+06    0.5563413218E+00    0.3651904121E+00    0.6224534994E-04    0.1235326978E+00    0.3176132544E+00
    0.4500000000E+06    0.5563483778E+00    0.3651236061E+00    0.6075715589E-04    0.1235443813E+00    0.3176890163E+00
    0.4700000000E+06    0.5563544943E+00    0.3650595313E+00    0.5936703832E-04    0.1235554188E+00    0.3177613511E+00
    0.4900000000E+06    0.5563598001E+00    0.3649979733E+00    0.5806475319E-04    0.1235658753E+00    0.3178305548E+00
    0.1000000000E+06    0.5554768161E+00    0.3671652529E+00    0.1354495537E-03    0.1230185955E+00    0.3150526737E+00
    0.3000000000E+06    0.5562576387E+00    0.3657118539E+00    0.7539539878E-04    0.1234341184E+00    0.3170075551E+00
    0.5000000000E+06    0.5563621832E+00    0.3649680778E+00    0.5744374569E-04    0.1235709033E+00    0.3178640649E+00
    0.7000000000E+06    0.5563859140E+00    0.3644656980E+00    0.4802585709E-04    0.1236511712E+00    0.3184188069E+00
    0.9000000000E+06    0.5563875100E+00    0.3640858594E+00    0.4201421723E-04    0.1237076175E+00    0.3188297214E+00
    0.1100000000E+07    0.5563811762E+00    0.3637803321E+00    0.3775926969E-04    0.1237510379E+00    0.3191561926E+00
    0.1300000000E+07    0.5563717093E+00    0.3635247276E+00    0.3454779188E-04    0.1237862759E+00    0.3194270609E+00
    0.1500000000E+07    0.5563610417E+00    0.3633049891E+00    0.3201493429E-04    0.1238159081E+00    0.3196585296E+00
    0.1700000000E+07    0.5563500354E+00    0.3631122714E+00    0.2995229870E-04    0.1238414643E+00    0.3198606136E+00
    0.1900000000E+07    0.5563390971E+00    0.3629406458E+00    0.2823114041E-04    0.1238639252E+00    0.3200399374E+00
    0.2100000000E+07    0.5563284212E+00    0.3627859440E+00    0.2676710486E-04    0.1238839569E+00    0.3202011112E+00
    0.2300000000E+07    0.5563180971E+00    0.3626451231E+00    0.2550232994E-04    0.1239020318E+00    0.3203474726E+00
    0.2500000000E+07    0.5563081606E+00    0.3625158940E+00    0.2439563917E-04    0.1239184971E+00    0.3204815157E+00
    0.2700000000E+07    0.5562986188E+00    0.3623964911E+00    0.2341683257E-04    0.1239336153E+00    0.3206051535E+00
    0.2900000000E+07    0.5562894642E+00    0.3622855238E+00    0.2254319493E-04    0.1239475897E+00    0.3207198854E+00
    0.3100000000E+07    0.5562806816E+00    0.3621818775E+00    0.2175727127E-04    0.1239605809E+00    0.3208269083E+00
    0.3300000000E+07    0.5562722521E+00    0.3620846450E+00    0.2104539978E-04    0.1239727179E+00    0.3209271932E+00
    0.3500000000E+07    0.5562641559E+00    0.3619930779E+00    0.2039671531E-04    0.1239841060E+00    0.3210215383E+00
    0.3700000000E+07    0.5562563727E+00    0.3619065517E+00    0.1980245494E-04    0.1239948320E+00    0.3211106079E+00
    0.3900000000E+07    0.5562488832E+00    0.3618245397E+00    0.1925546310E-04    0.1240049686E+00    0.3211949608E+00
    0.4100000000E+07    0.5562416689E+00    0.3617465938E+00    0.1874983196E-04    0.1240145773E+00    0.3212750714E+00
    0.4300000000E+07    0.5562347125E+00    0.3616723295E+00    0.1828063530E-04    0.1240237101E+00    0.3213513461E+00
    0.4500000000E+07    0.5562279980E+00    0.3616014144E+00    0.1784372869E-04    0.1240324120E+00    0.3214241354E+00
    0.4700000000E+07    0.5562215103E+00    0.3615335591E+00    0.1743559705E-04    0.1240407217E+00    0.3214937440E+00
    0.4900000000E+07    0.5562152358E+00    0.3614685104E+00    0.1705323715E-04    0.1240486731E+00    0.3215604382E+00
    0.1000000000E+07    0.5563849307E+00    0.3639256667E+00    0.3972358846E-04    0.1237305768E+00    0.3190012941E+00
    0.3000000000E+07    0.5562850275E+00    0.3622328464E+00    0.2214019814E-04    0.1239541995E+00    0.3207742952E+00
    0.5000000000E+07    0.5562121744E+00    0.3614369676E+00    0.1687090001E-04    0.1240525239E+00    0.3215927667E+00
    0.7000000000E+07    0.5561595391E+00    0.3609109844E+00    0.1410531994E-04    0.1241163144E+00    0.3221308118E+00
    0.9000000000E+07    0.5561185515E+00    0.3605174381E+00    0.1233972418E-04    0.1241636164E+00    0.3225322979E+00
    0.1100000000E+08    0.5560850284E+00    0.3602028511E+00    0.1108997741E-04    0.1242012264E+00    0.3228526966E+00
    0.1300000000E+08    0.5560566799E+00    0.3599407613E+00    0.1014668273E-04    0.1242324490E+00    0.3231193222E+00
    0.1500000000E+08    0.5560321254E+00    0.3597161212E+00    0.9402703656E-05    0.1242591424E+00    0.3233476571E+00
    0.1700000000E+08    0.5560104705E+00    0.3595195502E+00    0.8796838295E-05    0.1242824561E+00    0.3235473312E+00
    0.1900000000E+08    0.5559911029E+00    0.3593448037E+00    0.8291274550E-05    0.1243031508E+00    0.3237247442E+00
    0.2100000000E+08    0.5559735858E+00    0.3591875144E+00    0.7861236459E-05    0.1243217562E+00    0.3238843657E+00
    0.2300000000E+08    0.5559575963E+00    0.3590445075E+00    0.7489728645E-05    0.1243386558E+00    0.3240294415E+00
    0.2500000000E+08    0.5559428894E+00    0.3589134029E+00    0.7164656397E-05    0.1243541365E+00    0.3241624026E+00
    0.2700000000E+08    0.5559292744E+00    0.3587923697E+00    0.6877148953E-05    0.1243684183E+00    0.3242851175E+00
