  Pressure (Pa) 22mC5-400 (mol/kg) 3mC6-400 (mol/kg) 33mC5-400 (mol/kg) 23mC5-400 (mol/kg) C7-400 (mol/kg)
    0.1000000000E+01    0.2122584677E-02    0.1047766890E-02    0.1931427935E-03    0.4658780021E-03    0.1020162458E-01
    0.3000000000E+01    0.6317219775E-02    0.3041720685E-02    0.5612850876E-03    0.1386552224E-02    0.2962054291E-01
    0.5000000000E+01    0.1044583765E-01    0.4910830740E-02    0.9070514557E-03    0.2292749282E-02    0.4782953803E-01
    0.7000000000E+01    0.1451002626E-01    0.6666462157E-02    0.1232389329E-02    0.3184817313E-02    0.6493857663E-01
    0.9000000000E+01    0.1851132274E-01    0.8318641234E-02    0.1539017717E-02    0.4063093307E-02    0.8104468176E-01
    0.1100000000E+02    0.2245121536E-01    0.9876246946E-02    0.1828460178E-02    0.4927903545E-02    0.9623378315E-01
    0.1300000000E+02    0.2633114548E-01    0.1134717048E-01    0.2102072220E-02    0.5779564026E-02    0.1105822590E+00
    0.1500000000E+02    0.3015250937E-01    0.1273844885E-01    0.2361064225E-02    0.6618380863E-02    0.1241582273E+00
    0.1700000000E+02    0.3391665994E-01    0.1405637747E-01    0.2606520703E-02    0.7444650670E-02    0.1370226340E+00
    0.1900000000E+02    0.3762490845E-01    0.1530660527E-01    0.2839416553E-02    0.8258660922E-02    0.1492301720E+00
    0.2100000000E+02    0.4127852606E-01    0.1649421563E-01    0.3060630864E-02    0.9060690310E-02    0.1608300643E+00
    0.2300000000E+02    0.4487874537E-01    0.1762379542E-01    0.3270958664E-02    0.9851009070E-02    0.1718667305E+00
    0.2500000000E+02    0.4842676184E-01    0.1869949419E-01    0.3471120979E-02    0.1062987930E-01    0.1823803596E+00
    0.2700000000E+02    0.5192373524E-01    0.1972507503E-01    0.3661773471E-02    0.1139755527E-01    0.1924074016E+00
    0.2900000000E+02    0.5537079089E-01    0.2070395857E-01    0.3843513884E-02    0.1215428370E-01    0.2019809930E+00
    0.3100000000E+02    0.5876902098E-01    0.2163926108E-01    0.4016888488E-02    0.1290030404E-01    0.2111313248E+00
    0.3300000000E+02    0.6211948579E-01    0.2253382753E-01    0.4182397676E-02    0.1363584876E-01    0.2198859631E+00
    0.3500000000E+02    0.6542321479E-01    0.2339026055E-01    0.4340500834E-02    0.1436114358E-01    0.2282701282E+00
    0.3700000000E+02    0.6868120781E-01    0.2421094564E-01    0.4491620604E-02    0.1507640768E-01    0.2363069389E+00
    0.3900000000E+02    0.7189443606E-01    0.2499807340E-01    0.4636146611E-02    0.1578185403E-01    0.2440176274E+00
    0.4100000000E+02    0.7506384317E-01    0.2575365900E-01    0.4774438748E-02    0.1647768950E-01    0.2514217277E+00
    0.4300000000E+02    0.7819034616E-01    0.2647955939E-01    0.4906830064E-02    0.1716411516E-01    0.2585372424E+00
    0.4500000000E+02    0.8127483634E-01    0.2717748859E-01    0.5033629323E-02    0.1784132642E-01    0.2653807895E+00
    0.4700000000E+02    0.8431818026E-01    0.2784903111E-01    0.5155123266E-02    0.1850951327E-01    0.2719677336E+00
    0.4900000000E+02    0.8732122051E-01    0.2849565400E-01    0.5271578623E-02    0.1916886047E-01    0.2783123017E+00
    0.1000000000E+02    0.2048885337E-01    0.9108751090E-02    0.1685798819E-02    0.4497161659E-02    0.8874887666E-01
    0.3000000000E+02    0.5707594213E-01    0.2117687364E-01    0.3931214622E-02    0.1252861769E-01    0.2066072854E+00
    0.5000000000E+02    0.8880788372E-01    0.2881004956E-01    0.5327995157E-02    0.1949527554E-01    0.2813978552E+00
    0.7000000000E+02    0.1166133531E+00    0.3407242551E-01    0.6244021925E-02    0.2560074750E-01    0.3331270827E+00
    0.9000000000E+02    0.1411963463E+00    0.3791918275E-01    0.6857933539E-02    0.3099939183E-01    0.3710633308E+00
    0.1100000000E+03    0.1631003280E+00    0.4085311363E-01    0.7269291465E-02    0.3581037395E-01    0.4000907622E+00
    0.1300000000E+03    0.1827516235E+00    0.4316410414E-01    0.7538977585E-02    0.4012717818E-01    0.4230284858E+00
    0.1500000000E+03    0.2004894721E+00    0.4503104708E-01    0.7706709189E-02    0.4402419595E-01    0.4416181482E+00
    0.1700000000E+03    0.2165872846E+00    0.4657032751E-01    0.7799628554E-02    0.4756138581E-01    0.4569940983E+00
    0.1900000000E+03    0.2312679621E+00    0.4786093297E-01    0.7836930445E-02    0.5078763169E-01    0.4699270439E+00
    0.2100000000E+03    0.2447151231E+00    0.4895835852E-01    0.7832544363E-02    0.5374320434E-01    0.4809590688E+00
    0.2300000000E+03    0.2570814590E+00    0.4990273666E-01    0.7796781652E-02    0.5646159300E-01    0.4904826269E+00
    0.2500000000E+03    0.2684950378E+00    0.5072380932E-01    0.7737394641E-02    0.5897088765E-01    0.4987888847E+00
    0.2700000000E+03    0.2790641221E+00    0.5144408615E-01    0.7660283448E-02    0.6129483519E-01    0.5060984492E+00
    0.2900000000E+03    0.2888808935E+00    0.5208091678E-01    0.7569982166E-02    0.6345365613E-01    0.5125815437E+00
    0.3100000000E+03    0.2980243634E+00    0.5264788911E-01    0.7470001717E-02    0.6546468276E-01    0.5183716302E+00
    0.3300000000E+03    0.3065626698E+00    0.5315579629E-01    0.7363076712E-02    0.6734286282E-01    0.5235748363E+00
    0.3500000000E+03    0.3145549073E+00    0.5361331993E-01    0.7251346328E-02    0.6910116071E-01    0.5282766209E+00
    0.3700000000E+03    0.3220525969E+00    0.5402752234E-01    0.7136488821E-02    0.7075087977E-01    0.5325465784E+00
    0.3900000000E+03    0.3291008761E+00    0.5440420706E-01    0.7019822849E-02    0.7230192329E-01    0.5364419616E+00
    0.4100000000E+03    0.3357394695E+00    0.5474818729E-01    0.6902384646E-02    0.7376300737E-01    0.5400103049E+00
    0.4300000000E+03    0.3420034868E+00    0.5506348842E-01    0.6784987361E-02    0.7514183588E-01    0.5432914051E+00
    0.4500000000E+03    0.3479240820E+00    0.5535350273E-01    0.6668267093E-02    0.7644524498E-01    0.5463188367E+00
    0.4700000000E+03    0.3535290018E+00    0.5562110916E-01    0.6552718848E-02    0.7767932347E-01    0.5491211238E+00
    0.4900000000E+03    0.3588430448E+00    0.5586876673E-01    0.6438724838E-02    0.7884951341E-01    0.5517226566E+00
    0.1000000000E+03    0.1524542267E+00    0.3947871371E-01    0.7084487861E-02    0.3347198455E-01    0.3864812668E+00
    0.3000000000E+03    0.2935323011E+00    0.5237240428E-01    0.7521015115E-02    0.6447665875E-01    0.5155560283E+00
    0.5000000000E+03    0.3613980270E+00    0.5598578684E-01    0.6382404876E-02    0.7941219509E-01    0.5529548130E+00
    0.7000000000E+03    0.4015738822E+00    0.5766310481E-01    0.5377130741E-02    0.8826581885E-01    0.5708811474E+00
    0.9000000000E+03    0.4281673295E+00    0.5862024265E-01    0.4604527266E-02    0.9413407712E-01    0.5814434303E+00
    0.1100000000E+04    0.4470661579E+00    0.5923272918E-01    0.4015490969E-02    0.9830993188E-01    0.5884245546E+00
    0.1300000000E+04    0.4611804617E+00    0.5965442242E-01    0.3559314042E-02    0.1014327381E+00    0.5933915128E+00
    0.1500000000E+04    0.4721172073E+00    0.5995987601E-01    0.3198879367E-02    0.1038557119E+00    0.5971117966E+00
    0.1700000000E+04    0.4808368533E+00    0.6018952160E-01    0.2908478090E-02    0.1057900608E+00    0.6000060619E+00
    0.1900000000E+04    0.4879488016E+00    0.6036714227E-01    0.2670315868E-02    0.1073698546E+00    0.6023243691E+00
    0.2100000000E+04    0.4938582913E+00    0.6050761674E-01    0.2471896034E-02    0.1086842864E+00    0.6042248069E+00
    0.2300000000E+04    0.4988452181E+00    0.6062071452E-01    0.2304275918E-02    0.1097949892E+00    0.6058122729E+00
    0.2500000000E+04    0.5031090644E+00    0.6071310576E-01    0.2160931381E-02    0.1107459082E+00    0.6071591426E+00
    0.2700000000E+04    0.5067958045E+00    0.6078949346E-01    0.2037014060E-02    0.1115692156E+00    0.6083169870E+00
    0.2900000000E+04    0.5100146925E+00    0.6085328437E-01    0.1928858619E-02    0.1122890010E+00    0.6093235603E+00
    0.3100000000E+04    0.5128491083E+00    0.6090700365E-01    0.1833650137E-02    0.1129236574E+00    0.6102071454E+00
    0.3300000000E+04    0.5153637770E+00    0.6095256045E-01    0.1749195507E-02    0.1134874689E+00    0.6109893548E+00
    0.3500000000E+04    0.5176097015E+00    0.6099142323E-01    0.1673763543E-02    0.1139916964E+00    0.6116869919E+00
    0.3700000000E+04    0.5196276103E+00    0.6102473876E-01    0.1605971245E-02    0.1144453360E+00    0.6123133210E+00
    0.3900000000E+04    0.5214504162E+00    0.6105341465E-01    0.1544701629E-02    0.1148556611E+00    0.6128789551E+00
    0.4100000000E+04    0.5231050028E+00    0.6107817789E-01    0.1489043477E-02    0.1152286152E+00    0.6133924880E+00
    0.4300000000E+04    0.5246135423E+00    0.6109961703E-01    0.1438246569E-02    0.1155691021E+00    0.6138609544E+00
    0.4500000000E+04    0.5259944826E+00    0.6111821321E-01    0.1391687983E-02    0.1158812042E+00    0.6142901690E+00
    0.4700000000E+04    0.5272632966E+00    0.6113436319E-01    0.1348846441E-02    0.1161683466E+00    0.6146849807E+00
    0.4900000000E+04    0.5284330580E+00    0.6114839680E-01    0.1309282562E-02    0.1164334250E+00    0.6150494657E+00
    0.1000000000E+04    0.4383542413E+00    0.5895721248E-01    0.4290539314E-02    0.9638427561E-01    0.5852561689E+00
    0.3000000000E+04    0.5114755435E+00    0.6088127160E-01    0.1879785507E-02    0.1126159959E+00    0.6097792446E+00
    0.5000000000E+04    0.5289843355E+00    0.6115470807E-01    0.1290610980E-02    0.1165584748E+00    0.6152214355E+00
    0.7000000000E+04    0.5368000841E+00    0.6121792866E-01    0.1022822766E-02    0.1183425059E+00    0.6176827227E+00
    0.9000000000E+04    0.5412171947E+00    0.6122231908E-01    0.8666004865E-03    0.1193643589E+00    0.6191089223E+00
    0.1100000000E+05    0.5440528866E+00    0.6120533352E-01    0.7625381972E-03    0.1200291111E+00    0.6200502688E+00
    0.1300000000E+05    0.5460256523E+00    0.6117978961E-01    0.6873281604E-03    0.1204976761E+00    0.6207238830E+00
    0.1500000000E+05    0.5474763044E+00    0.6115090409E-01    0.6299005661E-03    0.1208467351E+00    0.6212332296E+00
    0.1700000000E+05    0.5485872139E+00    0.6112102645E-01    0.5842899765E-03    0.1211175086E+00    0.6216340911E+00
    0.1900000000E+05    0.5494647564E+00    0.6109127539E-01    0.5469792094E-03    0.1213341493E+00    0.6219592989E+00
    0.2100000000E+05    0.5501751433E+00    0.6106219263E-01    0.5157502037E-03    0.1215117582E+00    0.6222294882E+00
    0.2300000000E+05    0.5507617330E+00    0.6103403247E-01    0.4891291422E-03    0.1216602689E+00    0.6224583103E+00
    0.2500000000E+05    0.5512541023E+00    0.6100690019E-01    0.4660950018E-03    0.1217864877E+00    0.6226551738E+00
    0.2700000000E+05    0.5516731151E+00    0.6098082208E-01    0.4459159219E-03    0.1218952372E+00    0.6228267858E+00
    0.2900000000E+05    0.5520339091E+00    0.6095578244E-01    0.4280522274E-03    0.1219900320E+00    0.6229780633E+00
    0.3100000000E+05    0.5523477325E+00    0.6093174377E-01    0.4120963174E-03    0.1220734953E+00    0.6231126983E+00
    0.3300000000E+05    0.5526231169E+00    0.6090865807E-01    0.3977339720E-03    0.1221476253E+00    0.6232335202E+00
    0.3500000000E+05    0.5528666501E+00    0.6088647311E-01    0.3847186275E-03    0.1222139719E+00    0.6233427363E+00
    0.3700000000E+05    0.5530834993E+00    0.6086513606E-01    0.3728537914E-03    0.1222737561E+00    0.6234420955E+00
    0.3900000000E+05    0.5532777740E+00    0.6084459543E-01    0.3619807247E-03    0.1223279531E+00    0.6235330028E+00
    0.4100000000E+05    0.5534527835E+00    0.6082480214E-01    0.3519696266E-03    0.1223773517E+00    0.6236166009E+00
    0.4300000000E+05    0.5536112222E+00    0.6080571001E-01    0.3427132061E-03    0.1224225969E+00    0.6236938294E+00
    0.4500000000E+05    0.5537553057E+00    0.6078727593E-01    0.3341219130E-03    0.1224642214E+00    0.6237654684E+00
    0.4700000000E+05    0.5538868730E+00    0.6076945990E-01    0.3261203453E-03    0.1225026692E+00    0.6238321718E+00
    0.4900000000E+05    0.5540074627E+00    0.6075222484E-01    0.3186445066E-03    0.1225383134E+00    0.6238944918E+00
    0.1000000000E+05    0.5427746343E+00    0.6121542256E-01    0.8099343744E-03    0.1197283800E+00    0.6196226635E+00
    0.3000000000E+05    0.5521961058E+00    0.6094364083E-01    0.4198572764E-03    0.1220330430E+00    0.6230472673E+00
    0.5000000000E+05    0.5540640545E+00    0.6074381437E-01    0.3150863234E-03    0.1225551848E+00    0.6239241576E+00
    0.7000000000E+05    0.5548485971E+00    0.6059908495E-01    0.2616252864E-03    0.1228016395E+00    0.6243717328E+00
    0.9000000000E+05    0.5552747192E+00    0.6048626735E-01    0.2279458597E-03    0.1229507763E+00    0.6246584268E+00
    0.1100000000E+06    0.5555394734E+00    0.6039395407E-01    0.2042929439E-03    0.1230533603E+00    0.6248644636E+00
    0.1300000000E+06    0.5557182393E+00    0.6031587672E-01    0.1865332499E-03    0.1231296615E+00    0.6250231674E+00
    0.1500000000E+06    0.5558459747E+00    0.6024824724E-01    0.1725789111E-03    0.1231894735E+00    0.6251511873E+00
    0.1700000000E+06    0.5559410632E+00    0.6018860753E-01    0.1612476783E-03    0.1232381544E+00    0.6252579011E+00
    0.1900000000E+06    0.5560140733E+00    0.6013527389E-01    0.1518138234E-03    0.1232789051E+00    0.6253490570E+00
    0.2100000000E+06    0.5560715004E+00    0.6008704323E-01    0.1438041669E-03    0.1233137680E+00    0.6254284076E+00
    0.2300000000E+06    0.5561175494E+00    0.6004302635E-01    0.1368953973E-03    0.1233441142E+00    0.6254985253E+00
    0.2500000000E+06    0.5561550578E+00    0.6000254760E-01    0.1308581655E-03    0.1233709029E+00    0.6255612434E+00
    0.2700000000E+06    0.5561860074E+00    0.5996508159E-01    0.1255247048E-03    0.1233948277E+00    0.6256179104E+00
    0.2900000000E+06    0.5562118216E+00    0.5993021182E-01    0.1207691106E-03    0.1234164043E+00    0.6256695450E+00
    0.3100000000E+06    0.5562335486E+00    0.5989760247E-01    0.1164948211E-03    0.1234360254E+00    0.6257169342E+00
    0.3300000000E+06    0.5562519757E+00    0.5986697890E-01    0.1126263854E-03    0.1234539959E+00    0.6257606974E+00
    0.3500000000E+06    0.5562677056E+00    0.5983811361E-01    0.1091038867E-03    0.1234705570E+00    0.6258013303E+00
    0.3700000000E+06    0.5562812066E+00    0.5981081606E-01    0.1058790644E-03    0.1234859021E+00    0.6258392355E+00
    0.3900000000E+06    0.5562928480E+00    0.5978492506E-01    0.1029125569E-03    0.1235001888E+00    0.6258747441E+00
    0.4100000000E+06    0.5563029244E+00    0.5976030307E-01    0.1001719006E-03    0.1235135466E+00    0.6259081314E+00
    0.4300000000E+06    0.5563116735E+00    0.5973683175E-01    0.9763005213E-04    0.1235260834E+00    0.6259396287E+00
    0.4500000000E+06    0.5563192893E+00    0.5971440858E-01    0.9526427964E-04    0.1235378898E+00    0.6259694320E+00
    0.4700000000E+06    0.5563259310E+00    0.5969294415E-01    0.9305531915E-04    0.1235490427E+00    0.6259977090E+00
    0.4900000000E+06    0.5563317310E+00    0.5967236000E-01    0.9098672385E-04    0.1235596077E+00    0.6260246040E+00
    0.1000000000E+06    0.5554211331E+00    0.6043801774E-01    0.2151944345E-03    0.1230062558E+00    0.6247688702E+00
    0.3000000000E+06    0.5562231417E+00    0.5991364301E-01    0.1185769378E-03    0.1234264385E+00    0.6256937283E+00
    0.5000000000E+06    0.5563343506E+00    0.5966237609E-01    0.9000056661E-04    0.1235646877E+00    0.6260375729E+00
    0.7000000000E+06    0.5563617358E+00    0.5949570578E-01    0.7506721762E-04    0.1236457576E+00    0.6262475763E+00
    0.9000000000E+06    0.5563657446E+00    0.5937085684E-01    0.6555788743E-04    0.1237027328E+00    0.6263981747E+00
    0.1100000000E+07    0.5563611653E+00    0.5927102425E-01    0.5883904599E-04    0.1237465373E+00    0.6265153289E+00
    0.1300000000E+07    0.5563530530E+00    0.5918785307E-01    0.5377482928E-04    0.1237820716E+00    0.6266110787E+00
    0.1500000000E+07    0.5563434746E+00    0.5911657926E-01    0.4978521635E-04    0.1238119418E+00    0.6266919742E+00
    0.1700000000E+07    0.5563333705E+00    0.5905422785E-01    0.4653936466E-04    0.1238376949E+00    0.6267619678E+00
    0.1900000000E+07    0.5563231964E+00    0.5899881613E-01    0.4383311808E-04    0.1238603224E+00    0.6268236251E+00
    0.2100000000E+07    0.5563131794E+00    0.5894895632E-01    0.4153284081E-04    0.1238804975E+00    0.6268787044E+00
    0.2300000000E+07    0.5563034317E+00    0.5890363909E-01    0.3954694345E-04    0.1238986978E+00    0.6269284628E+00
    0.2500000000E+07    0.5562940052E+00    0.5886210737E-01    0.3781029631E-04    0.1239152739E+00    0.6269738296E+00
    0.2700000000E+07    0.5562849193E+00    0.5882377878E-01    0.3627516301E-04    0.1239304911E+00    0.6270155112E+00
    0.2900000000E+07    0.5562761756E+00    0.5878819568E-01    0.3490565967E-04    0.1239445546E+00    0.6270540566E+00
    0.3100000000E+07    0.5562677659E+00    0.5875499193E-01    0.3367422724E-04    0.1239576266E+00    0.6270899011E+00
    0.3300000000E+07    0.5562596772E+00    0.5872387002E-01    0.3255930641E-04    0.1239698373E+00    0.6271233957E+00
    0.3500000000E+07    0.5562518940E+00    0.5869458493E-01    0.3154375918E-04    0.1239812930E+00    0.6271548272E+00
    0.3700000000E+07    0.5562443998E+00    0.5866693247E-01    0.3061376950E-04    0.1239920815E+00    0.6271844331E+00
    0.3900000000E+07    0.5562371781E+00    0.5864074069E-01    0.2975806014E-04    0.1240022759E+00    0.6272124124E+00
    0.4100000000E+07    0.5562302132E+00    0.5861586343E-01    0.2896732383E-04    0.1240119383E+00    0.6272389332E+00
    0.4300000000E+07    0.5562234896E+00    0.5859217540E-01    0.2823380258E-04    0.1240211213E+00    0.6272641388E+00
    0.4500000000E+07    0.5562169933E+00    0.5856956839E-01    0.2755097176E-04    0.1240298701E+00    0.6272881528E+00
    0.4700000000E+07    0.5562107107E+00    0.5854794833E-01    0.2691329941E-04    0.1240382239E+00    0.6273110818E+00
    0.4900000000E+07    0.5562046294E+00    0.5852723288E-01    0.2631606046E-04    0.1240462168E+00    0.6273330190E+00
    0.1000000000E+07    0.5563641045E+00    0.5931845297E-01    0.6193957582E-04    0.1237258978E+00    0.6264599967E+00
    0.3000000000E+07    0.5562719297E+00    0.5877131637E-01    0.3427415132E-04    0.1239512057E+00    0.6270722928E+00
    0.5000000000E+07    0.5562016606E+00    0.5851719140E-01    0.2603131124E-04    0.1240500874E+00    0.6273436416E+00
    0.7000000000E+07    0.5561504623E+00    0.5835008423E-01    0.2171729783E-04    0.1241141850E+00    0.6275194557E+00
    0.9000000000E+07    0.5561104302E+00    0.5822544875E-01    0.1896845507E-04    0.1241616895E+00    0.6276495672E+00
    0.1100000000E+08    0.5560776053E+00    0.5812604997E-01    0.1702558927E-04    0.1241994462E+00    0.6277528218E+00
    0.1300000000E+08    0.5560497977E+00    0.5804338923E-01    0.1556087879E-04    0.1242307815E+00    0.6278383922E+00
    0.1500000000E+08    0.5560256795E+00    0.5797264599E-01    0.1440681190E-04    0.1242575652E+00    0.6279114368E+00
    0.1700000000E+08    0.5560043868E+00    0.5791082108E-01    0.1346779862E-04    0.1242809533E+00    0.6279751443E+00
    0.1900000000E+08    0.5559853267E+00    0.5785592119E-01    0.1268483432E-04    0.1243017107E+00    0.6280316241E+00
    0.2100000000E+08    0.5559680753E+00    0.5780655415E-01    0.1201928729E-04    0.1243203699E+00    0.6280823438E+00
    0.2300000000E+08    0.5559523186E+00    0.5776170917E-01    0.1144467614E-04    0.1243373164E+00    0.6281283654E+00
    0.2500000000E+08    0.5559378181E+00    0.5772062919E-01    0.1094216730E-04    0.1243528383E+00    0.6281704824E+00
    0.2700000000E+08    0.5559243879E+00    0.5768273251E-01    0.1049795532E-04    0.1243671568E+00    0.6282093032E+00
