  Pressure (Pa) 22mC5-400 (mol/kg) 3mC6-400 (mol/kg) 33mC5-400 (mol/kg) 23mC5-400 (mol/kg) C7-400 (mol/kg)
    0.1000000000E+01    0.2121911871E-02    0.5293564309E-03    0.5193201275E-03    0.4657304025E-03    0.3435891137E-02
    0.3000000000E+01    0.6311292901E-02    0.1567927032E-02    0.1533341982E-02    0.1385251983E-02    0.1017753571E-01
    0.5000000000E+01    0.1042972071E-01    0.2580493927E-02    0.2515595670E-02    0.2289213515E-02    0.1675116385E-01
    0.7000000000E+01    0.1447909747E-01    0.3568035226E-02    0.3467295069E-02    0.3178032045E-02    0.2316308568E-01
    0.9000000000E+01    0.1846125705E-01    0.4531480424E-02    0.4389595888E-02    0.4052109642E-02    0.2941929795E-01
    0.1100000000E+02    0.2237796802E-01    0.5471713387E-02    0.5283599085E-02    0.4911834061E-02    0.3552550325E-01
    0.1300000000E+02    0.2623093653E-01    0.6389575119E-02    0.6150354034E-02    0.5757579374E-02    0.4148712786E-01
    0.1500000000E+02    0.3002180901E-01    0.7285866333E-02    0.6990861479E-02    0.6589706567E-02    0.4730933830E-01
    0.1700000000E+02    0.3375217482E-01    0.8161349836E-02    0.7806076287E-02    0.7408564103E-02    0.5299705673E-01
    0.1900000000E+02    0.3742356861E-01    0.9016752750E-02    0.8596910017E-02    0.8214488462E-02    0.5855497521E-01
    0.2100000000E+02    0.4103747272E-01    0.9852768574E-02    0.9364233312E-02    0.9007804650E-02    0.6398756902E-01
    0.2300000000E+02    0.4459531933E-01    0.1067005911E-01    0.1010887814E-01    0.9788826681E-02    0.6929910908E-01
    0.2500000000E+02    0.4809849260E-01    0.1146925625E-01    0.1083163990E-01    0.1055785804E-01    0.7449367345E-01
    0.2700000000E+02    0.5154833066E-01    0.1225096365E-01    0.1153327934E-01    0.1131519212E-01    0.7957515816E-01
    0.2900000000E+02    0.5494612747E-01    0.1301575831E-01    0.1221452445E-01    0.1206111263E-01    0.8454728723E-01
    0.3100000000E+02    0.5829313467E-01    0.1376419200E-01    0.1287607215E-01    0.1279589400E-01    0.8941362210E-01
    0.3300000000E+02    0.6159056327E-01    0.1449679265E-01    0.1351858987E-01    0.1351980177E-01    0.9417757041E-01
    0.3500000000E+02    0.6483958529E-01    0.1521406560E-01    0.1414271712E-01    0.1423309290E-01    0.9884239421E-01
    0.3700000000E+02    0.6804133531E-01    0.1591649484E-01    0.1474906690E-01    0.1493601617E-01    0.1034112177E+00
    0.3900000000E+02    0.7119691197E-01    0.1660454407E-01    0.1533822700E-01    0.1562881247E-01    0.1078870344E+00
    0.4100000000E+02    0.7430737937E-01    0.1727865780E-01    0.1591076127E-01    0.1631171511E-01    0.1122727141E+00
    0.4300000000E+02    0.7737376842E-01    0.1793926233E-01    0.1646721084E-01    0.1698495014E-01    0.1165710087E+00
    0.4500000000E+02    0.8039707812E-01    0.1858676665E-01    0.1700809516E-01    0.1764873661E-01    0.1207845590E+00
    0.4700000000E+02    0.8337827680E-01    0.1922156331E-01    0.1753391313E-01    0.1830328684E-01    0.1249158995E+00
    0.4900000000E+02    0.8631830327E-01    0.1984402927E-01    0.1804514400E-01    0.1894880667E-01    0.1289674642E+00
    0.1000000000E+02    0.2042768555E-01    0.5004444898E-02    0.4840067930E-02    0.4483742306E-02    0.3249080605E-01
    0.3000000000E+02    0.5662590315E-01    0.1339198674E-01    0.1254771809E-01    0.1242987891E-01    0.8699346246E-01
    0.5000000000E+02    0.8777316252E-01    0.2015075196E-01    0.1829543393E-01    0.1926824281E-01    0.1309640650E+00
    0.7000000000E+02    0.1149164953E+00    0.2571876373E-01    0.2263840156E-01    0.2522841008E-01    0.1672304027E+00
    0.9000000000E+02    0.1388270315E+00    0.3038937724E-01    0.2594997314E-01    0.3047946893E-01    0.1976870836E+00
    0.1100000000E+03    0.1600854694E+00    0.3436651425E-01    0.2848927455E-01    0.3514875644E-01    0.2236516448E+00
    0.1300000000E+03    0.1791377009E+00    0.3779637759E-01    0.3044088684E-01    0.3933405291E-01    0.2460690760E+00
    0.1500000000E+03    0.1963320444E+00    0.4078655699E-01    0.3193918402E-01    0.4311174472E-01    0.2656350623E+00
    0.1700000000E+03    0.2119447906E+00    0.4341801206E-01    0.3308381543E-01    0.4654242491E-01    0.2828733008E+00
    0.1900000000E+03    0.2261981169E+00    0.4575285000E-01    0.3394986317E-01    0.4967482089E-01    0.2981856953E+00
    0.2100000000E+03    0.2392728991E+00    0.4783952524E-01    0.3459468455E-01    0.5254860344E-01    0.3118859219E+00
    0.2300000000E+03    0.2513180358E+00    0.4971640618E-01    0.3506262817E-01    0.5519643117E-01    0.3242224592E+00
    0.2500000000E+03    0.2624573444E+00    0.5141427787E-01    0.3538835025E-01    0.5764546257E-01    0.3353947515E+00
    0.2700000000E+03    0.2727947358E+00    0.5295813363E-01    0.3559918853E-01    0.5991849064E-01    0.3455647824E+00
    0.2900000000E+03    0.2824181481E+00    0.5436848088E-01    0.3571688831E-01    0.6203480552E-01    0.3548655130E+00
    0.3100000000E+03    0.2914025758E+00    0.5566230824E-01    0.3575887552E-01    0.6401085861E-01    0.3634071316E+00
    0.3300000000E+03    0.2998124261E+00    0.5685381233E-01    0.3573920760E-01    0.6586077945E-01    0.3712817528E+00
    0.3500000000E+03    0.3077033737E+00    0.5795495121E-01    0.3566929203E-01    0.6759678227E-01    0.3785669953E+00
    0.3700000000E+03    0.3151238326E+00    0.5897587087E-01    0.3555843490E-01    0.6922948887E-01    0.3853287410E+00
    0.3900000000E+03    0.3221161363E+00    0.5992523760E-01    0.3541426389E-01    0.7076818735E-01    0.3916232844E+00
    0.4100000000E+03    0.3287174907E+00    0.6081049960E-01    0.3524305721E-01    0.7222104121E-01    0.3974990258E+00
    0.4300000000E+03    0.3349607510E+00    0.6163809482E-01    0.3505000142E-01    0.7359525955E-01    0.4029978165E+00
    0.4500000000E+03    0.3408750579E+00    0.6241361754E-01    0.3483939516E-01    0.7489723679E-01    0.4081560367E+00
    0.4700000000E+03    0.3464863645E+00    0.6314195298E-01    0.3461481111E-01    0.7613266803E-01    0.4130054675E+00
    0.4900000000E+03    0.3518178727E+00    0.6382738680E-01    0.3437922565E-01    0.7730664495E-01    0.4175739997E+00
    0.1000000000E+03    0.1497572411E+00    0.3245440819E-01    0.2730321420E-01    0.3288014106E-01    0.2111648166E+00
    0.3000000000E+03    0.2869859853E+00    0.5502901402E-01    0.3574639782E-01    0.6303943250E-01    0.3592250771E+00
    0.5000000000E+03    0.3543852923E+00    0.6415521335E-01    0.3425810057E-01    0.7787203423E-01    0.4197607264E+00
    0.7000000000E+03    0.3951234625E+00    0.6917530936E-01    0.3167937968E-01    0.8684875770E-01    0.4534122551E+00
    0.9000000000E+03    0.4224875502E+00    0.7238012559E-01    0.2926443799E-01    0.9288601816E-01    0.4751117570E+00
    0.1100000000E+04    0.4421246003E+00    0.7461551324E-01    0.2719089034E-01    0.9722386406E-01    0.4903941146E+00
    0.1300000000E+04    0.4568839620E+00    0.7626927653E-01    0.2543625906E-01    0.1004882705E+00    0.5018063951E+00
    0.1500000000E+04    0.4683675451E+00    0.7754527125E-01    0.2394574170E-01    0.1030313167E+00    0.5106923339E+00
    0.1700000000E+04    0.4775467488E+00    0.7856133273E-01    0.2266795313E-01    0.1050665959E+00    0.5178313842E+00
    0.1900000000E+04    0.4850449781E+00    0.7939051593E-01    0.2156120890E-01    0.1067312426E+00    0.5237084481E+00
    0.2100000000E+04    0.4912804838E+00    0.8008062161E-01    0.2059297842E-01    0.1081173011E+00    0.5286418731E+00
    0.2300000000E+04    0.4965441537E+00    0.8066429477E-01    0.1973806201E-01    0.1092888143E+00    0.5328497914E+00
    0.2500000000E+04    0.5010444219E+00    0.8116462086E-01    0.1897685724E-01    0.1102916908E+00    0.5364869617E+00
    0.2700000000E+04    0.5049344526E+00    0.8159840452E-01    0.1829398202E-01    0.1111596801E+00    0.5396664003E+00
    0.2900000000E+04    0.5083292538E+00    0.8197818097E-01    0.1767723998E-01    0.1119181346E+00    0.5424726773E+00
    0.3100000000E+04    0.5113168167E+00    0.8231349809E-01    0.1711685611E-01    0.1125864595E+00    0.5449704105E+00
    0.3300000000E+04    0.5139655776E+00    0.8261176108E-01    0.1660491319E-01    0.1131797534E+00    0.5472098714E+00
    0.3500000000E+04    0.5163295425E+00    0.8287880481E-01    0.1613493406E-01    0.1137099365E+00    0.5492307924E+00
    0.3700000000E+04    0.5184518846E+00    0.8311929130E-01    0.1570156959E-01    0.1141865420E+00    0.5510650156E+00
    0.3900000000E+04    0.5203675203E+00    0.8333699188E-01    0.1530036321E-01    0.1146172830E+00    0.5527383769E+00
    0.4100000000E+04    0.5221049846E+00    0.8353499130E-01    0.1492757158E-01    0.1150084657E+00    0.5542720714E+00
    0.4300000000E+04    0.5236878202E+00    0.8371583798E-01    0.1458002652E-01    0.1153652953E+00    0.5556836608E+00
    0.4500000000E+04    0.5251356188E+00    0.8388165629E-01    0.1425502770E-01    0.1156921050E+00    0.5569878273E+00
    0.4700000000E+04    0.5264648139E+00    0.8403423169E-01    0.1395025856E-01    0.1159925313E+00    0.5581969465E+00
    0.4900000000E+04    0.5276892895E+00    0.8417507603E-01    0.1366371964E-01    0.1162696477E+00    0.5593215278E+00
    0.1000000000E+04    0.4330535288E+00    0.7358861491E-01    0.2818479463E-01    0.9521938788E-01    0.4833557271E+00
    0.3000000000E+04    0.5098692735E+00    0.8215089165E-01    0.1739053615E-01    0.1122625339E+00    0.5437566852E+00
    0.5000000000E+04    0.5282660183E+00    0.8424150941E-01    0.1352673508E-01    0.1164002976E+00    0.5598549764E+00
    0.7000000000E+04    0.5364153335E+00    0.8518599460E-01    0.1142278215E-01    0.1182577451E+00    0.5677093714E+00
    0.9000000000E+04    0.5409928330E+00    0.8571844922E-01    0.1005457437E-01    0.1193149200E+00    0.5724745084E+00
    0.1100000000E+05    0.5439176204E+00    0.8605593452E-01    0.9074549830E-02    0.1199993036E+00    0.5757203872E+00
    0.1300000000E+05    0.5459447538E+00    0.8628593839E-01    0.8328504807E-02    0.1204798537E+00    0.5780972448E+00
    0.1500000000E+05    0.5474308346E+00    0.8645056638E-01    0.7736250627E-02    0.1208367265E+00    0.5799262041E+00
    0.1700000000E+05    0.5485659718E+00    0.8657259182E-01    0.7251437178E-02    0.1211128459E+00    0.5813853289E+00
    0.1900000000E+05    0.5494607004E+00    0.8666540072E-01    0.6845165082E-02    0.1213332804E+00    0.5825818535E+00
    0.2100000000E+05    0.5501836312E+00    0.8673736875E-01    0.6498357278E-02    0.1215136599E+00    0.5835844901E+00
    0.2300000000E+05    0.5507795859E+00    0.8679399857E-01    0.6197846240E-02    0.1216642401E+00    0.5844394502E+00
    0.2500000000E+05    0.5512790742E+00    0.8683904955E-01    0.5934211647E-02    0.1217920329E+00    0.5851790443E+00
    0.2700000000E+05    0.5517035779E+00    0.8687517395E-01    0.5700512510E-02    0.1219019971E+00    0.5858265960E+00
    0.2900000000E+05    0.5520686564E+00    0.8690429386E-01    0.5491506990E-02    0.1219977405E+00    0.5863993966E+00
    0.3100000000E+05    0.5523858535E+00    0.8692783427E-01    0.5303152694E-02    0.1220819512E+00    0.5869105591E+00
    0.3300000000E+05    0.5526639131E+00    0.8694687251E-01    0.5132275559E-02    0.1221566744E+00    0.5873702232E+00
    0.3500000000E+05    0.5529095782E+00    0.8696223703E-01    0.4976343999E-02    0.1222234942E+00    0.5877863633E+00
    0.3700000000E+05    0.5531281314E+00    0.8697457438E-01    0.4833310922E-02    0.1222836571E+00    0.5881653446E+00
    0.3900000000E+05    0.5533237700E+00    0.8698439586E-01    0.4701500756E-02    0.1223381575E+00    0.5885123149E+00
    0.4100000000E+05    0.5534998699E+00    0.8699211053E-01    0.4579527085E-02    0.1223877991E+00    0.5888314863E+00
    0.4300000000E+05    0.5536591776E+00    0.8699804910E-01    0.4466231549E-02    0.1224332383E+00    0.5891263418E+00
    0.4500000000E+05    0.5538039496E+00    0.8700248145E-01    0.4360637810E-02    0.1224750169E+00    0.5893997884E+00
    0.4700000000E+05    0.5539360570E+00    0.8700562968E-01    0.4261916387E-02    0.1225135859E+00    0.5896542737E+00
    0.4900000000E+05    0.5540570644E+00    0.8700767800E-01    0.4169357447E-02    0.1225493243E+00    0.5898918742E+00
    0.1000000000E+05    0.5426007020E+00    0.8590452060E-01    0.9528177060E-02    0.1196900516E+00    0.5742353780E+00
    0.3000000000E+05    0.5522326389E+00    0.8691668736E-01    0.5394964120E-02    0.1220411470E+00    0.5866619901E+00
    0.5000000000E+05    0.5541138258E+00    0.8700833879E-01    0.4125194466E-02    0.1225662341E+00    0.5900049074E+00
    0.7000000000E+05    0.5548987328E+00    0.8699044960E-01    0.3453506790E-02    0.1228127845E+00    0.5916997180E+00
    0.9000000000E+05    0.5553231074E+00    0.8694650207E-01    0.3022974345E-02    0.1229615465E+00    0.5927661995E+00
    0.1100000000E+06    0.5555857962E+00    0.8689602327E-01    0.2717494758E-02    0.1230636830E+00    0.5935169537E+00
    0.1300000000E+06    0.5557625847E+00    0.8684507406E-01    0.2486554829E-02    0.1231395546E+00    0.5940831956E+00
    0.1500000000E+06    0.5558885221E+00    0.8679574875E-01    0.2304208579E-02    0.1231989755E+00    0.5945307067E+00
    0.1700000000E+06    0.5559819979E+00    0.8674874585E-01    0.2155592688E-02    0.1232473055E+00    0.5948965200E+00
    0.1900000000E+06    0.5560535640E+00    0.8670422276E-01    0.2031504773E-02    0.1232877420E+00    0.5952032696E+00
    0.2100000000E+06    0.5561096944E+00    0.8666211931E-01    0.1925905097E-02    0.1233223226E+00    0.5954656667E+00
    0.2300000000E+06    0.5561545733E+00    0.8662229096E-01    0.1834645135E-02    0.1233524143E+00    0.5956937404E+00
    0.2500000000E+06    0.5561910208E+00    0.8658456638E-01    0.1754769394E-02    0.1233789722E+00    0.5958945952E+00
    0.2700000000E+06    0.5562210033E+00    0.8654877274E-01    0.1684108239E-02    0.1234026867E+00    0.5960734234E+00
    0.2900000000E+06    0.5562459320E+00    0.8651474650E-01    0.1621028495E-02    0.1234240708E+00    0.5962341206E+00
    0.3100000000E+06    0.5562668443E+00    0.8648233747E-01    0.1564274365E-02    0.1234435148E+00    0.5963796746E+00
    0.3300000000E+06    0.5562845188E+00    0.8645140980E-01    0.1512862392E-02    0.1234613218E+00    0.5965124215E+00
    0.3500000000E+06    0.5562995508E+00    0.8642184145E-01    0.1466010060E-02    0.1234777313E+00    0.5966342175E+00
    0.3700000000E+06    0.5563124022E+00    0.8639352321E-01    0.1423085988E-02    0.1234929355E+00    0.5967465593E+00
    0.3900000000E+06    0.5563234371E+00    0.8636635734E-01    0.1383574415E-02    0.1235070905E+00    0.5968506692E+00
    0.4100000000E+06    0.5563329455E+00    0.8634025637E-01    0.1347049373E-02    0.1235203252E+00    0.5969475567E+00
    0.4300000000E+06    0.5563411613E+00    0.8631514184E-01    0.1313155572E-02    0.1235327463E+00    0.5970380639E+00
    0.4500000000E+06    0.5563482748E+00    0.8629094327E-01    0.1281594023E-02    0.1235444440E+00    0.5971229001E+00
    0.4700000000E+06    0.5563544427E+00    0.8626759719E-01    0.1252111087E-02    0.1235554942E+00    0.5972026673E+00
    0.4900000000E+06    0.5563597944E+00    0.8624504628E-01    0.1224490011E-02    0.1235659621E+00    0.5972778805E+00
    0.1000000000E+06    0.5554684905E+00    0.8692155426E-01    0.2858594506E-02    0.1230168029E+00    0.5931705953E+00
    0.3000000000E+06    0.5562568365E+00    0.8649834866E-01    0.1591927612E-02    0.1234340146E+00    0.5963086315E+00
    0.5000000000E+06    0.5563621987E+00    0.8623405261E-01    0.1211318364E-02    0.1235709955E+00    0.5973139204E+00
    0.7000000000E+06    0.5563862017E+00    0.8604560731E-01    0.1011562403E-02    0.1236513349E+00    0.5978768889E+00
    0.9000000000E+06    0.5563879300E+00    0.8589914130E-01    0.8840831846E-03    0.1237078197E+00    0.5982571120E+00
    0.1100000000E+07    0.5563816745E+00    0.8577928037E-01    0.7938897843E-03    0.1237512654E+00    0.5985398676E+00
    0.1300000000E+07    0.5563722603E+00    0.8567779591E-01    0.7258435259E-03    0.1237865221E+00    0.5987628762E+00
    0.1500000000E+07    0.5563616310E+00    0.8558977240E-01    0.6721984589E-03    0.1238161692E+00    0.5989458729E+00
    0.1700000000E+07    0.5563506545E+00    0.8551203829E-01    0.6285300060E-03    0.1238417377E+00    0.5991003769E+00
    0.1900000000E+07    0.5563397403E+00    0.8544242746E-01    0.5921049028E-03    0.1238642093E+00    0.5992336535E+00
    0.2100000000E+07    0.5563290844E+00    0.8537939435E-01    0.5611324935E-03    0.1238842504E+00    0.5993505583E+00
    0.2300000000E+07    0.5563187776E+00    0.8532179727E-01    0.5343846715E-03    0.1239023337E+00    0.5994544850E+00
    0.2500000000E+07    0.5563088561E+00    0.8526876877E-01    0.5109876193E-03    0.1239188067E+00    0.5995478927E+00
    0.2700000000E+07    0.5562993278E+00    0.8521963418E-01    0.4903005624E-03    0.1239339321E+00    0.5996326165E+00
    0.2900000000E+07    0.5562901853E+00    0.8517385839E-01    0.4718416208E-03    0.1239479131E+00    0.5997100593E+00
    0.3100000000E+07    0.5562814137E+00    0.8513100972E-01    0.4552405700E-03    0.1239609106E+00    0.5997813166E+00
    0.3300000000E+07    0.5562729944E+00    0.8509073490E-01    0.4402076904E-03    0.1239730534E+00    0.5998472590E+00
    0.3500000000E+07    0.5562649076E+00    0.8505274111E-01    0.4265126101E-03    0.1239844470E+00    0.5999085890E+00
    0.3700000000E+07    0.5562571332E+00    0.8501678291E-01    0.4139695622E-03    0.1239951783E+00    0.5999658812E+00
    0.3900000000E+07    0.5562496519E+00    0.8498265255E-01    0.4024268802E-03    0.1240053200E+00    0.6000196113E+00
    0.4100000000E+07    0.5562424453E+00    0.8495017259E-01    0.3917593644E-03    0.1240149334E+00    0.6000701775E+00
    0.4300000000E+07    0.5562354962E+00    0.8491919029E-01    0.3818626351E-03    0.1240240709E+00    0.6001179157E+00
    0.4500000000E+07    0.5562287886E+00    0.8488957322E-01    0.3726488909E-03    0.1240327772E+00    0.6001631123E+00
    0.4700000000E+07    0.5562223075E+00    0.8486120580E-01    0.3640436756E-03    0.1240410912E+00    0.6002060130E+00
    0.4900000000E+07    0.5562160393E+00    0.8483398656E-01    0.3559833839E-03    0.1240490468E+00    0.6002468303E+00
    0.1000000000E+07    0.5563853942E+00    0.8583650506E-01    0.8355234497E-03    0.1237307928E+00    0.5984077073E+00
    0.3000000000E+07    0.5562857542E+00    0.8515209184E-01    0.4633285673E-03    0.1239545261E+00    0.5997464022E+00
    0.5000000000E+07    0.5562129810E+00    0.8482077910E-01    0.3521401863E-03    0.1240528995E+00    0.6002665164E+00
    0.7000000000E+07    0.5561603964E+00    0.8459979452E-01    0.2938955421E-03    0.1241167250E+00    0.6005853054E+00
    0.9000000000E+07    0.5561194469E+00    0.8443366945E-01    0.2567634765E-03    0.1241640549E+00    0.6008134429E+00
    0.1100000000E+08    0.5560859549E+00    0.8430049219E-01    0.2305094949E-03    0.1242016885E+00    0.6009903333E+00
    0.1300000000E+08    0.5560576328E+00    0.8418932507E-01    0.2107116269E-03    0.1242329317E+00    0.6011344071E+00
    0.1500000000E+08    0.5560331014E+00    0.8409391200E-01    0.1951093575E-03    0.1242596435E+00    0.6012557285E+00
    0.1700000000E+08    0.5560114669E+00    0.8401033648E-01    0.1824123192E-03    0.1242829739E+00    0.6013603785E+00
    0.1900000000E+08    0.5559921179E+00    0.8393598289E-01    0.1718238071E-03    0.1243036839E+00    0.6014523049E+00
    0.2100000000E+08    0.5559746177E+00    0.8386901723E-01    0.1628220906E-03    0.1243223034E+00    0.6015342117E+00
    0.2300000000E+08    0.5559586438E+00    0.8380810362E-01    0.1550494686E-03    0.1243392162E+00    0.6016080302E+00
    0.2500000000E+08    0.5559439514E+00    0.8375223874E-01    0.1482515054E-03    0.1243547093E+00    0.6016751865E+00
    0.2700000000E+08    0.5559303499E+00    0.8370064984E-01    0.1422416688E-03    0.1243690029E+00    0.6017367630E+00
