  Pressure (Pa) 22mC5-400 (mol/kg) 3mC6-400 (mol/kg) 33mC5-400 (mol/kg) 23mC5-400 (mol/kg) C7-400 (mol/kg)
    0.1000000000E+01    0.2123732264E-02    0.5246463174E-02    0.6447896830E-04    0.1864518715E-03    0.5108204481E-02
    0.3000000000E+01    0.6327384079E-02    0.1527307027E-01    0.1879281462E-03    0.5555125441E-03    0.1487274589E-01
    0.5000000000E+01    0.1047362684E-01    0.2472261919E-01    0.3045398707E-03    0.9195375061E-03    0.2407804437E-01
    0.7000000000E+01    0.1456364094E-01    0.3364350353E-01    0.4148635816E-03    0.1278630267E-02    0.3277092371E-01
    0.9000000000E+01    0.1859857453E-01    0.4207885353E-01    0.5193890008E-03    0.1632891510E-02    0.4099311913E-01
    0.1100000000E+02    0.2257954464E-01    0.5006723268E-01    0.6185541224E-03    0.1982419188E-02    0.4878195046E-01
    0.1300000000E+02    0.2650763821E-01    0.5764322648E-01    0.7127519533E-03    0.2327308619E-02    0.5617089107E-01
    0.1500000000E+02    0.3038391310E-01    0.6483794242E-01    0.8023362270E-03    0.2667652566E-02    0.6319005112E-01
    0.1700000000E+02    0.3420939903E-01    0.7167943646E-01    0.8876262663E-03    0.3003541331E-02    0.6986658971E-01
    0.1900000000E+02    0.3798509855E-01    0.7819307821E-01    0.9689111413E-03    0.3335062829E-02    0.7622506786E-01
    0.2100000000E+02    0.4171198792E-01    0.8440186488E-01    0.1046453237E-02    0.3662302671E-02    0.8228775200E-01
    0.2300000000E+02    0.4539101794E-01    0.9032669227E-01    0.1120491325E-02    0.3985344237E-02    0.8807487589E-01
    0.2500000000E+02    0.4902311479E-01    0.9598658943E-01    0.1191243223E-02    0.4304268747E-02    0.9360486749E-01
    0.2700000000E+02    0.5260918084E-01    0.1013989225E+00    0.1258908096E-02    0.4619155333E-02    0.9889454603E-01
    0.2900000000E+02    0.5615009536E-01    0.1065795725E+00    0.1323668465E-02    0.4930081104E-02    0.1039592939E+00
    0.3100000000E+02    0.5964671531E-01    0.1115430907E+00    0.1385691955E-02    0.5237121211E-02    0.1088132069E+00
    0.3300000000E+02    0.6309987602E-01    0.1163028351E+00    0.1445132829E-02    0.5540348907E-02    0.1134692260E+00
    0.3500000000E+02    0.6651039186E-01    0.1208710900E+00    0.1502133335E-02    0.5839835609E-02    0.1179392535E+00
    0.3700000000E+02    0.6987905689E-01    0.1252591720E+00    0.1556824890E-02    0.6135650955E-02    0.1222342548E+00
    0.3900000000E+02    0.7320664551E-01    0.1294775233E+00    0.1609329126E-02    0.6427862855E-02    0.1263643493E+00
    0.4100000000E+02    0.7649391306E-01    0.1335357946E+00    0.1659758818E-02    0.6716537551E-02    0.1303388902E+00
    0.4300000000E+02    0.7974159639E-01    0.1374429186E+00    0.1708218705E-02    0.7001739662E-02    0.1341665358E+00
    0.4500000000E+02    0.8295041441E-01    0.1412071759E+00    0.1754806219E-02    0.7283532236E-02    0.1378553127E+00
    0.4700000000E+02    0.8612106868E-01    0.1448362528E+00    0.1799612141E-02    0.7561976796E-02    0.1414126727E+00
    0.4900000000E+02    0.8925424389E-01    0.1483372943E+00    0.1842721178E-02    0.7837133390E-02    0.1448455432E+00
    0.1000000000E+02    0.2059573639E-01    0.4612666589E-01    0.5696160530E-03    0.1808241027E-02    0.4493952912E-01
    0.3000000000E+02    0.5790388945E-01    0.1090876117E+00    0.1355012382E-02    0.5084082243E-02    0.1064117703E+00
    0.5000000000E+02    0.9080698633E-01    0.1500418981E+00    0.1863664304E-02    0.7973497071E-02    0.1465173276E+00
    0.7000000000E+02    0.1200488877E+00    0.1788047659E+00    0.2210171274E-02    0.1054171982E-01    0.1747679862E+00
    0.9000000000E+02    0.1462143133E+00    0.2001104208E+00    0.2452054381E-02    0.1284003071E-01    0.1957562611E+00
    0.1100000000E+03    0.1697692537E+00    0.2165230521E+00    0.2622098133E-02    0.1490929899E-01    0.2119721245E+00
    0.1300000000E+03    0.1910896741E+00    0.2295523016E+00    0.2740716953E-02    0.1678249966E-01    0.2248830109E+00
    0.1500000000E+03    0.2104822794E+00    0.2401448176E+00    0.2821453504E-02    0.1848653415E-01    0.2354100357E+00
    0.1700000000E+03    0.2281997880E+00    0.2489243083E+00    0.2873717533E-02    0.2004356955E-01    0.2441607001E+00
    0.1900000000E+03    0.2444523350E+00    0.2563184217E+00    0.2904276818E-02    0.2147203853E-01    0.2515519628E+00
    0.2100000000E+03    0.2594161013E+00    0.2626301653E+00    0.2918128336E-02    0.2278739595E-01    0.2578795569E+00
    0.2300000000E+03    0.2732399253E+00    0.2680802270E+00    0.2919037186E-02    0.2400269869E-01    0.2633590905E+00
    0.2500000000E+03    0.2860504266E+00    0.2728331489E+00    0.2909885799E-02    0.2512905494E-01    0.2681514814E+00
    0.2700000000E+03    0.2979560177E+00    0.2770141128E+00    0.2892908966E-02    0.2617597594E-01    0.2723792774E+00
    0.2900000000E+03    0.3090500754E+00    0.2807200429E+00    0.2869857019E-02    0.2715165419E-01    0.2761374597E+00
    0.3100000000E+03    0.3194134711E+00    0.2840271521E+00    0.2842112094E-02    0.2806318526E-01    0.2795007882E+00
    0.3300000000E+03    0.3291166049E+00    0.2869961921E+00    0.2810772771E-02    0.2891674626E-01    0.2825289168E+00
    0.3500000000E+03    0.3382210554E+00    0.2896761842E+00    0.2776716811E-02    0.2971774049E-01    0.2852700289E+00
    0.3700000000E+03    0.3467809251E+00    0.2921071189E+00    0.2740648393E-02    0.3047091543E-01    0.2877634713E+00
    0.3900000000E+03    0.3548439475E+00    0.2943219438E+00    0.2703134132E-02    0.3118045985E-01    0.2900416933E+00
    0.4100000000E+03    0.3624524016E+00    0.2963480477E+00    0.2664630878E-02    0.3185008403E-01    0.2921316968E+00
    0.4300000000E+03    0.3696438730E+00    0.2982083853E+00    0.2625507363E-02    0.3248308649E-01    0.2940561343E+00
    0.4500000000E+03    0.3764518911E+00    0.2999223390E+00    0.2586061218E-02    0.3308240991E-01    0.2958341526E+00
    0.4700000000E+03    0.3829064641E+00    0.3015063878E+00    0.2546532447E-02    0.3365068802E-01    0.2974820460E+00
    0.4900000000E+03    0.3890345318E+00    0.3029746305E+00    0.2507114170E-02    0.3419028539E-01    0.2990137696E+00
    0.1000000000E+03    0.1582927614E+00    0.2088168067E+00    0.2544573982E-02    0.1390107333E-01    0.2043523391E+00
    0.3000000000E+03    0.3143184816E+00    0.2824193404E+00    0.2856496696E-02    0.2761503236E-01    0.2778644467E+00
    0.5000000000E+03    0.3919838016E+00    0.3036691837E+00    0.2487496152E-02    0.3445000249E-01    0.2997398906E+00
    0.7000000000E+03    0.4386021877E+00    0.3136923891E+00    0.2124733512E-02    0.3855772058E-01    0.3103589877E+00
    0.9000000000E+03    0.4697103606E+00    0.3194909428E+00    0.1833575842E-02    0.4130212173E-01    0.3166780196E+00
    0.1100000000E+04    0.4919458580E+00    0.3232513708E+00    0.1606068423E-02    0.4326614885E-01    0.3208921886E+00
    0.1300000000E+04    0.5086286767E+00    0.3258757702E+00    0.1427078161E-02    0.4474150346E-01    0.3239162858E+00
    0.1500000000E+04    0.5216056911E+00    0.3278036251E+00    0.1284128558E-02    0.4589052309E-01    0.3262003445E+00
    0.1700000000E+04    0.5319865883E+00    0.3292743892E+00    0.1168079512E-02    0.4681078782E-01    0.3279919263E+00
    0.1900000000E+04    0.5404784019E+00    0.3304295223E+00    0.1072386456E-02    0.4756449600E-01    0.3294386729E+00
    0.2100000000E+04    0.5475529533E+00    0.3313578859E+00    0.9923459167E-03    0.4819317117E-01    0.3306342047E+00
    0.2300000000E+04    0.5535371350E+00    0.3321180623E+00    0.9245350267E-03    0.4872559384E-01    0.3316408200E+00
    0.2500000000E+04    0.5586645711E+00    0.3327502079E+00    0.8664245221E-03    0.4918234131E-01    0.3325016219E+00
    0.2700000000E+04    0.5631066525E+00    0.3332827493E+00    0.8161159096E-03    0.4957851557E-01    0.3332474069E+00
    0.2900000000E+04    0.5669919549E+00    0.3337363607E+00    0.7721624139E-03    0.4992545060E-01    0.3339007807E+00
    0.3100000000E+04    0.5704188151E+00    0.3341264284E+00    0.7334456906E-03    0.5023181834E-01    0.3344787233E+00
    0.3300000000E+04    0.5734637223E+00    0.3344646327E+00    0.6990897717E-03    0.5050436678E-01    0.3349942441E+00
    0.3500000000E+04    0.5761870621E+00    0.3347599954E+00    0.6684001176E-03    0.5074842539E-01    0.3354574842E+00
    0.3700000000E+04    0.5786371401E+00    0.3350195914E+00    0.6408198221E-03    0.5096825925E-01    0.3358764700E+00
    0.3900000000E+04    0.5808530570E+00    0.3352490441E+00    0.6158976986E-03    0.5116732207E-01    0.3362576401E+00
    0.4100000000E+04    0.5828668000E+00    0.3354528775E+00    0.5932647133E-03    0.5134844037E-01    0.3366062219E+00
    0.4300000000E+04    0.5847047890E+00    0.3356347703E+00    0.5726163633E-03    0.5151394972E-01    0.3369265056E+00
    0.4500000000E+04    0.5863890369E+00    0.3357977433E+00    0.5536993433E-03    0.5166579681E-01    0.3372220464E+00
    0.4700000000E+04    0.5879380307E+00    0.3359442990E+00    0.5363013473E-03    0.5180561725E-01    0.3374958169E+00
    0.4900000000E+04    0.5893674103E+00    0.3360765274E+00    0.5202431862E-03    0.5193479529E-01    0.3377503224E+00
    0.1000000000E+04    0.4816818951E+00    0.3215535956E+00    0.1712840803E-02    0.4235925368E-01    0.3189750597E+00
    0.3000000000E+04    0.5687574752E+00    0.3339385349E+00    0.7522090705E-03    0.5008324536E-01    0.3341982898E+00
    0.5000000000E+04    0.5900414859E+00    0.3361378295E+00    0.5126680608E-03    0.5199576891E-01    0.3378710283E+00
    0.7000000000E+04    0.5996318853E+00    0.3369206886E+00    0.4043473383E-03    0.5286817127E-01    0.3396539307E+00
    0.9000000000E+04    0.6050840683E+00    0.3372625521E+00    0.3415508966E-03    0.5337013164E-01    0.3407538059E+00
    0.1100000000E+05    0.6085994124E+00    0.3374197250E+00    0.2999439489E-03    0.5369763265E-01    0.3415216465E+00
    0.1300000000E+05    0.6110534604E+00    0.3374862956E+00    0.2700018996E-03    0.5392895243E-01    0.3420996502E+00
    0.1500000000E+05    0.6128632961E+00    0.3375039304E+00    0.2472177216E-03    0.5410153566E-01    0.3425572997E+00
    0.1700000000E+05    0.6142528387E+00    0.3374934593E+00    0.2291718904E-03    0.5423556782E-01    0.3429329671E+00
    0.1900000000E+05    0.6153530455E+00    0.3374662151E+00    0.2144430338E-03    0.5434290237E-01    0.3432497633E+00
    0.2100000000E+05    0.6162456093E+00    0.3374287571E+00    0.2021377517E-03    0.5443096353E-01    0.3435225397E+00
    0.2300000000E+05    0.6169841281E+00    0.3373850622E+00    0.1916641857E-03    0.5450464191E-01    0.3437613327E+00
    0.2500000000E+05    0.6176052242E+00    0.3373376289E+00    0.1826134082E-03    0.5456729251E-01    0.3439732036E+00
    0.2700000000E+05    0.6181347701E+00    0.3372880695E+00    0.1746930049E-03    0.5462129498E-01    0.3441632866E+00
    0.2900000000E+05    0.6185915622E+00    0.3372374454E+00    0.1676878111E-03    0.5466838499E-01    0.3443354184E+00
    0.3100000000E+05    0.6189895845E+00    0.3371864650E+00    0.1614356313E-03    0.5470985895E-01    0.3444925335E+00
    0.3300000000E+05    0.6193394555E+00    0.3371356049E+00    0.1558116449E-03    0.5474670513E-01    0.3446369213E+00
    0.3500000000E+05    0.6196493831E+00    0.3370851863E+00    0.1507180593E-03    0.5477969044E-01    0.3447703988E+00
    0.3700000000E+05    0.6199258116E+00    0.3370354243E+00    0.1460770505E-03    0.5480941935E-01    0.3448944301E+00
    0.3900000000E+05    0.6201738711E+00    0.3369864609E+00    0.1418258276E-03    0.5483637495E-01    0.3450102106E+00
    0.4100000000E+05    0.6203976959E+00    0.3369383869E+00    0.1379131057E-03    0.5486094806E-01    0.3451187278E+00
    0.4300000000E+05    0.6206006553E+00    0.3368912571E+00    0.1342965385E-03    0.5488345842E-01    0.3452208060E+00
    0.4500000000E+05    0.6207855223E+00    0.3368451008E+00    0.1309408153E-03    0.5490417017E-01    0.3453171401E+00
    0.4700000000E+05    0.6209545998E+00    0.3367999292E+00    0.1278162305E-03    0.5492330356E-01    0.3454083207E+00
    0.4900000000E+05    0.6211098165E+00    0.3367557407E+00    0.1248975922E-03    0.5494104371E-01    0.3454948537E+00
    0.1000000000E+05    0.6070131538E+00    0.3373564806E+00    0.3188697494E-03    0.5354937633E-01    0.3411678213E+00
    0.3000000000E+05    0.6187971901E+00    0.3372119656E+00    0.1644761307E-03    0.5468975617E-01    0.3444156972E+00
    0.5000000000E+05    0.6211827457E+00    0.3367340120E+00    0.1235086532E-03    0.5494944127E-01    0.3455365160E+00
    0.7000000000E+05    0.6222012584E+00    0.3363461903E+00    0.1026530357E-03    0.5507215561E-01    0.3462060081E+00
    0.9000000000E+05    0.6227633922E+00    0.3360301819E+00    0.8952167938E-04    0.5514645062E-01    0.3466813457E+00
    0.1100000000E+06    0.6231183736E+00    0.3357653399E+00    0.8029953872E-04    0.5519756944E-01    0.3470491935E+00
    0.1300000000E+06    0.6233620973E+00    0.3355379259E+00    0.7337360742E-04    0.5523559914E-01    0.3473489490E+00
    0.1500000000E+06    0.6235392775E+00    0.3353388665E+00    0.6793000878E-04    0.5526541541E-01    0.3476017677E+00
    0.1700000000E+06    0.6236735518E+00    0.3351619607E+00    0.6350816690E-04    0.5528968643E-01    0.3478202986E+00
    0.1900000000E+06    0.6237785803E+00    0.3350028134E+00    0.5982544706E-04    0.5531000646E-01    0.3480126977E+00
    0.2100000000E+06    0.6238628013E+00    0.3348582067E+00    0.5669759812E-04    0.5532739280E-01    0.3481845269E+00
    0.2300000000E+06    0.6239317060E+00    0.3347257184E+00    0.5399873193E-04    0.5534252854E-01    0.3483397470E+00
    0.2500000000E+06    0.6239890189E+00    0.3346034819E+00    0.5163954472E-04    0.5535589150E-01    0.3484812774E+00
    0.2700000000E+06    0.6240373549E+00    0.3344900290E+00    0.4955470715E-04    0.5536782723E-01    0.3486113314E+00
    0.2900000000E+06    0.6240786023E+00    0.3343841849E+00    0.4769518648E-04    0.5537859270E-01    0.3487316264E+00
    0.3100000000E+06    0.6241141585E+00    0.3342849950E+00    0.4602337274E-04    0.5538838354E-01    0.3488435220E+00
    0.3300000000E+06    0.6241450793E+00    0.3341916732E+00    0.4450987457E-04    0.5539735170E-01    0.3489481122E+00
    0.3500000000E+06    0.6241721768E+00    0.3341035648E+00    0.4313134842E-04    0.5540561734E-01    0.3490462909E+00
    0.3700000000E+06    0.6241960859E+00    0.3340201187E+00    0.4186898927E-04    0.5541327688E-01    0.3491387974E+00
    0.3900000000E+06    0.6242173095E+00    0.3339408666E+00    0.4070745720E-04    0.5542040877E-01    0.3492262504E+00
    0.4100000000E+06    0.6242362516E+00    0.3338654072E+00    0.3963409861E-04    0.5542707760E-01    0.3493091726E+00
    0.4300000000E+06    0.6242532399E+00    0.3337933944E+00    0.3863837092E-04    0.5543333713E-01    0.3493880097E+00
    0.4500000000E+06    0.6242685429E+00    0.3337245272E+00    0.3771141105E-04    0.5543923253E-01    0.3494631447E+00
    0.4700000000E+06    0.6242823830E+00    0.3336585422E+00    0.3684570680E-04    0.5544480208E-01    0.3495349095E+00
    0.4900000000E+06    0.6242949455E+00    0.3335952080E+00    0.3603484358E-04    0.5545007848E-01    0.3496035928E+00
    0.1000000000E+06    0.6229589845E+00    0.3358923603E+00    0.8455014191E-04    0.5517409520E-01    0.3468756309E+00
    0.3000000000E+06    0.6240970192E+00    0.3343338108E+00    0.4683781645E-04    0.5538359959E-01    0.3487885504E+00
    0.5000000000E+06    0.6243007974E+00    0.3335644700E+00    0.3564822339E-04    0.5545261570E-01    0.3496368595E+00
    0.7000000000E+06    0.6243781311E+00    0.3330496542E+00    0.2978853471E-04    0.5549312140E-01    0.3501883034E+00
    0.9000000000E+06    0.6244155405E+00    0.3326621883E+00    0.2605144875E-04    0.5552160694E-01    0.3505975308E+00
    0.1100000000E+07    0.6244358032E+00    0.3323513904E+00    0.2340780768E-04    0.5554351895E-01    0.3509230285E+00
    0.1300000000E+07    0.6244473711E+00    0.3320918684E+00    0.2141321730E-04    0.5556130148E-01    0.3511932951E+00
    0.1500000000E+07    0.6244540454E+00    0.3318690710E+00    0.1984053428E-04    0.5557625482E-01    0.3514243768E+00
    0.1700000000E+07    0.6244577627E+00    0.3316738790E+00    0.1856009080E-04    0.5558915098E-01    0.3516262068E+00
    0.1900000000E+07    0.6244596005E+00    0.3315001978E+00    0.1749181439E-04    0.5560048500E-01    0.3518053635E+00
    0.2100000000E+07    0.6244601986E+00    0.3313437522E+00    0.1658325825E-04    0.5561059298E-01    0.3519664290E+00
    0.2300000000E+07    0.6244599565E+00    0.3312014273E+00    0.1579845659E-04    0.5561971340E-01    0.3521127233E+00
    0.2500000000E+07    0.6244591339E+00    0.3310708832E+00    0.1511182070E-04    0.5562802148E-01    0.3522467287E+00
    0.2700000000E+07    0.6244579049E+00    0.3309503173E+00    0.1450458657E-04    0.5563564974E-01    0.3523703503E+00
    0.2900000000E+07    0.6244563895E+00    0.3308383117E+00    0.1396264291E-04    0.5564270076E-01    0.3524850818E+00
    0.3100000000E+07    0.6244546720E+00    0.3307337306E+00    0.1347514776E-04    0.5564925558E-01    0.3525921162E+00
    0.3300000000E+07    0.6244528131E+00    0.3306356506E+00    0.1303361626E-04    0.5565537933E-01    0.3526924214E+00
    0.3500000000E+07    0.6244508565E+00    0.3305433102E+00    0.1263130120E-04    0.5566112512E-01    0.3527867936E+00
    0.3700000000E+07    0.6244488346E+00    0.3304560745E+00    0.1226276138E-04    0.5566653683E-01    0.3528758953E+00
    0.3900000000E+07    0.6244467716E+00    0.3303734085E+00    0.1192355407E-04    0.5567165112E-01    0.3529602842E+00
    0.4100000000E+07    0.6244446853E+00    0.3302948571E+00    0.1161001150E-04    0.5567649895E-01    0.3530404337E+00
    0.4300000000E+07    0.6244425893E+00    0.3302200300E+00    0.1131907556E-04    0.5568110668E-01    0.3531167494E+00
    0.4500000000E+07    0.6244404939E+00    0.3301485899E+00    0.1104817363E-04    0.5568549695E-01    0.3531895813E+00
    0.4700000000E+07    0.6244384067E+00    0.3300802433E+00    0.1079512391E-04    0.5568968935E-01    0.3532592335E+00
    0.4900000000E+07    0.6244363336E+00    0.3300147334E+00    0.1055806239E-04    0.5569370093E-01    0.3533259721E+00
    0.1000000000E+07    0.6244271220E+00    0.3324991461E+00    0.2462811811E-04    0.5553319332E-01    0.3507685554E+00
    0.3000000000E+07    0.6244555518E+00    0.3307851551E+00    0.1371266644E-04    0.5564603581E-01    0.3525394961E+00
    0.5000000000E+07    0.6244353037E+00    0.3299829705E+00    0.1044501730E-04    0.5569564365E-01    0.3533583230E+00
    0.7000000000E+07    0.6244160501E+00    0.3294536183E+00    0.8730676239E-05    0.5572782540E-01    0.3538968094E+00
    0.9000000000E+07    0.6243995331E+00    0.3290578848E+00    0.7636479199E-05    0.5575168768E-01    0.3542986866E+00
    0.1100000000E+08    0.6243853276E+00    0.3287417275E+00    0.6862108856E-05    0.5577065999E-01    0.3546194197E+00
    0.1300000000E+08    0.6243729367E+00    0.3284784387E+00    0.6277704941E-05    0.5578640977E-01    0.3548863316E+00
    0.1500000000E+08    0.6243619750E+00    0.3282528441E+00    0.5816837287E-05    0.5579987464E-01    0.3551149140E+00
    0.1700000000E+08    0.6243521581E+00    0.3280554898E+00    0.5441562900E-05    0.5581163449E-01    0.3553148040E+00
    0.1900000000E+08    0.6243432750E+00    0.3278800858E+00    0.5128442353E-05    0.5582207314E-01    0.3554924072E+00
    0.2100000000E+08    0.6243351662E+00    0.3277222345E+00    0.4862118731E-05    0.5583145780E-01    0.3556521977E+00
    0.2300000000E+08    0.6243277091E+00    0.3275787404E+00    0.4632058674E-05    0.5583998201E-01    0.3557974247E+00
    0.2500000000E+08    0.6243208077E+00    0.3274472082E+00    0.4430766715E-05    0.5584779045E-01    0.3559305220E+00
    0.2700000000E+08    0.6243143854E+00    0.3273257963E+00    0.4252745742E-05    0.5585499413E-01    0.3560533603E+00
