  Pressure (Pa) 22mC5-400 (mol/kg) 3mC6-400 (mol/kg) 33mC5-400 (mol/kg) 23mC5-400 (mol/kg) C7-400 (mol/kg)
    0.1000000000E+01    0.2121985956E-02    0.1050541205E-02    0.6450489052E-04    0.7451947768E-03    0.8523754583E-02
    0.3000000000E+01    0.6311908994E-02    0.3065215610E-02    0.1881336332E-03    0.2216620570E-02    0.2487350980E-01
    0.5000000000E+01    0.1043129637E-01    0.4972352325E-02    0.3050410827E-03    0.3663297837E-02    0.4035478796E-01
    0.7000000000E+01    0.1448192928E-01    0.6780323038E-02    0.4157229022E-03    0.5085851359E-02    0.5503508911E-01
    0.9000000000E+01    0.1846552933E-01    0.8496652803E-02    0.5206256847E-03    0.6484885010E-02    0.6897509244E-01
    0.1100000000E+02    0.2238376098E-01    0.1012812440E-01    0.6201529959E-03    0.7860982629E-02    0.8222949669E-01
    0.1300000000E+02    0.2623823392E-01    0.1168086765E-01    0.7146705411E-03    0.9214708840E-02    0.9484773934E-01
    0.1500000000E+02    0.3003050528E-01    0.1316043609E-01    0.8045105989E-03    0.1054660984E-01    0.1068746144E+00
    0.1700000000E+02    0.3376208176E-01    0.1457187319E-01    0.8899758426E-03    0.1185721413E-01    0.1183508050E+00
    0.1900000000E+02    0.3743442166E-01    0.1591976952E-01    0.9713426437E-03    0.1314703324E-01    0.1293133448E+00
    0.2100000000E+02    0.4104893681E-01    0.1720831250E-01    0.1048863939E-02    0.1441656242E-01    0.1397960179E+00
    0.2300000000E+02    0.4460699440E-01    0.1844132969E-01    0.1122771729E-02    0.1566628124E-01    0.1498297079E+00
    0.2500000000E+02    0.4810991874E-01    0.1962232662E-01    0.1193279256E-02    0.1689665424E-01    0.1594427027E+00
    0.2700000000E+02    0.5155899290E-01    0.2075451995E-01    0.1260582915E-02    0.1810813149E-01    0.1686609615E+00
    0.2900000000E+02    0.5495546034E-01    0.2184086663E-01    0.1324863934E-02    0.1930114918E-01    0.1775083497E+00
    0.3100000000E+02    0.5830052639E-01    0.2288408957E-01    0.1386289853E-02    0.2047613011E-01    0.1860068458E+00
    0.3300000000E+02    0.6159535973E-01    0.2388670037E-01    0.1445015829E-02    0.2163348425E-01    0.1941767246E+00
    0.3500000000E+02    0.6484109376E-01    0.2485101939E-01    0.1501185795E-02    0.2277360917E-01    0.2020367186E+00
    0.3700000000E+02    0.6803882791E-01    0.2577919361E-01    0.1554933492E-02    0.2389689055E-01    0.2096041625E+00
    0.3900000000E+02    0.7118962893E-01    0.2667321256E-01    0.1606383377E-02    0.2500370258E-01    0.2168951210E+00
    0.4100000000E+02    0.7429453208E-01    0.2753492246E-01    0.1655651447E-02    0.2609440843E-01    0.2239245031E+00
    0.4300000000E+02    0.7735454225E-01    0.2836603889E-01    0.1702845963E-02    0.2716936062E-01    0.2307061639E+00
    0.4500000000E+02    0.8037063516E-01    0.2916815814E-01    0.1748068109E-02    0.2822890141E-01    0.2372529967E+00
    0.4700000000E+02    0.8334375828E-01    0.2994276745E-01    0.1791412582E-02    0.2927336319E-01    0.2435770146E+00
    0.4900000000E+02    0.8627483198E-01    0.3069125407E-01    0.1832968112E-02    0.3030306881E-01    0.2496894244E+00
    0.1000000000E+02    0.2043271434E-01    0.9322598410E-02    0.5710375855E-03    0.7175765093E-02    0.7568478899E-01
    0.3000000000E+02    0.5663434465E-01    0.2236770689E-01    0.1355923808E-02    0.1989086832E-01    0.1817999042E+00
    0.5000000000E+02    0.8772488071E-01    0.3105610962E-01    0.1853101241E-02    0.3081248643E-01    0.2526695745E+00
    0.7000000000E+02    0.1147230593E+00    0.3725491293E-01    0.2179571152E-02    0.4029798510E-01    0.3033702612E+00
    0.9000000000E+02    0.1383929583E+00    0.4189800389E-01    0.2396609529E-02    0.4861541103E-01    0.3414500216E+00
    0.1100000000E+03    0.1593189276E+00    0.4550427452E-01    0.2539878801E-02    0.5596977075E-01    0.3711067040E+00
    0.1300000000E+03    0.1779555475E+00    0.4838505710E-01    0.2631700404E-02    0.6252055189E-01    0.3948613608E+00
    0.1500000000E+03    0.1946618051E+00    0.5073845276E-01    0.2686790991E-02    0.6839370996E-01    0.4143196462E+00
    0.1700000000E+03    0.2097250113E+00    0.5269650787E-01    0.2715231853E-02    0.7369005692E-01    0.4305528274E+00
    0.1900000000E+03    0.2233778770E+00    0.5435062036E-01    0.2724131377E-02    0.7849125075E-01    0.4443030923E+00
    0.2100000000E+03    0.2358109274E+00    0.5576605874E-01    0.2718614584E-02    0.8286414983E-01    0.4561009414E+00
    0.2300000000E+03    0.2471816730E+00    0.5699067367E-01    0.2702441497E-02    0.8686402995E-01    0.4663356657E+00
    0.2500000000E+03    0.2576214860E+00    0.5806034258E-01    0.2678408970E-02    0.9053699632E-01    0.4752994188E+00
    0.2700000000E+03    0.2672408233E+00    0.5900249252E-01    0.2648620274E-02    0.9392181592E-01    0.4832157486E+00
    0.2900000000E+03    0.2761332440E+00    0.5983844852E-01    0.2614670771E-02    0.9705132677E-01    0.4902586289E+00
    0.3100000000E+03    0.2843785332E+00    0.6058504024E-01    0.2577778642E-02    0.9995353376E-01    0.4965654857E+00
    0.3300000000E+03    0.2920451558E+00    0.6125572649E-01    0.2538878633E-02    0.1026524696E+00    0.5022463211E+00
    0.3500000000E+03    0.2991922031E+00    0.6186139838E-01    0.2498690369E-02    0.1051688776E+00    0.5073902324E+00
    0.3700000000E+03    0.3058709496E+00    0.6241096332E-01    0.2457768804E-02    0.1075207581E+00    0.5120701558E+00
    0.3900000000E+03    0.3121261089E+00    0.6291177666E-01    0.2416541918E-02    0.1097238089E+00    0.5163463737E+00
    0.4100000000E+03    0.3179968548E+00    0.6336996531E-01    0.2375339190E-02    0.1117917837E+00    0.5202691465E+00
    0.4300000000E+03    0.3235176562E+00    0.6379067369E-01    0.2334413283E-02    0.1137367849E+00    0.5238807137E+00
    0.4500000000E+03    0.3287189657E+00    0.6417825287E-01    0.2293956702E-02    0.1155695052E+00    0.5272168330E+00
    0.4700000000E+03    0.3336277896E+00    0.6453640769E-01    0.2254114679E-02    0.1172994277E+00    0.5303079793E+00
    0.4900000000E+03    0.3382681642E+00    0.6486831230E-01    0.2214995201E-02    0.1189349933E+00    0.5331802855E+00
    0.1000000000E+03    0.1491679426E+00    0.4380784920E-01    0.2475843693E-02    0.5240210111E-01    0.3571459259E+00
    0.3000000000E+03    0.2803322606E+00    0.6022200542E-01    0.2596528373E-02    0.9852925686E-01    0.4934966290E+00
    0.5000000000E+03    0.3404944816E+00    0.6502529052E-01    0.2195731945E-02    0.1197197797E+00    0.5345415400E+00
    0.7000000000E+03    0.3750911252E+00    0.6728626669E-01    0.1857650689E-02    0.1319241904E+00    0.5544011090E+00
    0.9000000000E+03    0.3975656235E+00    0.6858626679E-01    0.1603262683E-02    0.1398644204E+00    0.5661394871E+00
    0.1100000000E+04    0.4133357845E+00    0.6942259215E-01    0.1411286151E-02    0.1454444588E+00    0.5739051421E+00
    0.1300000000E+04    0.4250090144E+00    0.7000092359E-01    0.1263210937E-02    0.1495811103E+00    0.5794299445E+00
    0.1500000000E+04    0.4339960966E+00    0.7042151015E-01    0.1146249739E-02    0.1527706850E+00    0.5835657885E+00
    0.1700000000E+04    0.4411270655E+00    0.7073893675E-01    0.1051821662E-02    0.1553053370E+00    0.5867807648E+00
    0.1900000000E+04    0.4469221233E+00    0.7098540684E-01    0.9741046587E-03    0.1573682598E+00    0.5893535487E+00
    0.2100000000E+04    0.4517238309E+00    0.7118111332E-01    0.9090637274E-03    0.1590801503E+00    0.5914604735E+00
    0.2300000000E+04    0.4557669439E+00    0.7133933998E-01    0.8538370301E-03    0.1605237640E+00    0.5932185975E+00
    0.2500000000E+04    0.4592177105E+00    0.7146917075E-01    0.8063490868E-03    0.1617577358E+00    0.5947087020E+00
    0.2700000000E+04    0.4621971500E+00    0.7157701949E-01    0.7650633901E-03    0.1628247702E+00    0.5959883479E+00
    0.2900000000E+04    0.4647954471E+00    0.7166753809E-01    0.7288209369E-03    0.1637567074E+00    0.5970996689E+00
    0.3100000000E+04    0.4670811787E+00    0.7174417862E-01    0.6967325492E-03    0.1645777707E+00    0.5980742214E+00
    0.3300000000E+04    0.4691074163E+00    0.7180955383E-01    0.6681055462E-03    0.1653067163E+00    0.5989361119E+00
    0.3500000000E+04    0.4709158714E+00    0.7186567550E-01    0.6423928110E-03    0.1659582927E+00    0.5997040762E+00
    0.3700000000E+04    0.4725397786E+00    0.7191411622E-01    0.6191567562E-03    0.1665442574E+00    0.6003928984E+00
    0.3900000000E+04    0.4740059441E+00    0.7195612190E-01    0.5980433924E-03    0.1670740983E+00    0.6010144021E+00
    0.4100000000E+04    0.4753362273E+00    0.7199269142E-01    0.5787633748E-03    0.1675555563E+00    0.6015781576E+00
    0.4300000000E+04    0.4765486307E+00    0.7202463427E-01    0.5610779463E-03    0.1679950098E+00    0.6020919948E+00
    0.4500000000E+04    0.4776581145E+00    0.7205261281E-01    0.5447883749E-03    0.1683977619E+00    0.6025623830E+00
    0.4700000000E+04    0.4786772125E+00    0.7207717381E-01    0.5297279180E-03    0.1687682579E+00    0.6029947141E+00
    0.4900000000E+04    0.4796165048E+00    0.7209877223E-01    0.5157556396E-03    0.1691102519E+00    0.6033935189E+00
    0.1000000000E+04    0.4060864517E+00    0.6904590259E-01    0.1500775403E-02    0.1428783441E+00    0.5703804296E+00
    0.3000000000E+04    0.4659737593E+00    0.7170741340E-01    0.7123046985E-03    0.1641798176E+00    0.5976023883E+00
    0.5000000000E+04    0.4800590877E+00    0.7210858210E-01    0.5091393757E-03    0.1692715773E+00    0.6035815709E+00
    0.7000000000E+04    0.4863284728E+00    0.7221578923E-01    0.4124540841E-03    0.1715729709E+00    0.6062640323E+00
    0.9000000000E+04    0.4898669879E+00    0.7223858429E-01    0.3542084407E-03    0.1728916108E+00    0.6078088991E+00
    0.1100000000E+05    0.4921362237E+00    0.7222949721E-01    0.3145058460E-03    0.1737499241E+00    0.6088236417E+00
    0.1300000000E+05    0.4937132291E+00    0.7220680364E-01    0.2853154793E-03    0.1743552635E+00    0.6095469249E+00
    0.1500000000E+05    0.4948715607E+00    0.7217810398E-01    0.2627318887E-03    0.1748064381E+00    0.6100920505E+00
    0.1700000000E+05    0.4957575560E+00    0.7214692261E-01    0.2446085880E-03    0.1751565767E+00    0.6105199015E+00
    0.1900000000E+05    0.4964565558E+00    0.7211500801E-01    0.2296589298E-03    0.1754368206E+00    0.6108662048E+00
    0.2100000000E+05    0.4970216696E+00    0.7208326070E-01    0.2170600638E-03    0.1756666480E+00    0.6111533556E+00
    0.2300000000E+05    0.4974876702E+00    0.7205214879E-01    0.2062586475E-03    0.1758588762E+00    0.6113961332E+00
    0.2500000000E+05    0.4978782731E+00    0.7202190933E-01    0.1968673544E-03    0.1760222905E+00    0.6116047013E+00
    0.2700000000E+05    0.4982102042E+00    0.7199265175E-01    0.1886060418E-03    0.1761631180E+00    0.6117862902E+00
    0.2900000000E+05    0.4984955961E+00    0.7196441368E-01    0.1812664948E-03    0.1762858981E+00    0.6119461907E+00
    0.3100000000E+05    0.4987434615E+00    0.7193719212E-01    0.1746903548E-03    0.1763940196E+00    0.6120883686E+00
    0.3300000000E+05    0.4989606348E+00    0.7191096132E-01    0.1687547845E-03    0.1764900651E+00    0.6122158578E+00
    0.3500000000E+05    0.4991523916E+00    0.7188568332E-01    0.1633628601E-03    0.1765760377E+00    0.6123310220E+00
    0.3700000000E+05    0.4993228684E+00    0.7186131414E-01    0.1584369558E-03    0.1766535162E+00    0.6124357310E+00
    0.3900000000E+05    0.4994753544E+00    0.7183780753E-01    0.1539140783E-03    0.1767237615E+00    0.6125314854E+00
    0.4100000000E+05    0.4996124968E+00    0.7181511713E-01    0.1497425080E-03    0.1767877940E+00    0.6126195036E+00
    0.4300000000E+05    0.4997364504E+00    0.7179319782E-01    0.1458793359E-03    0.1768464480E+00    0.6127007867E+00
    0.4500000000E+05    0.4998489866E+00    0.7177200640E-01    0.1422886264E-03    0.1769004127E+00    0.6127761647E+00
    0.4700000000E+05    0.4999515750E+00    0.7175150193E-01    0.1389400275E-03    0.1769502626E+00    0.6128463327E+00
    0.4900000000E+05    0.5000454446E+00    0.7173164594E-01    0.1358077049E-03    0.1769964808E+00    0.6129118771E+00
    0.1000000000E+05    0.4911136069E+00    0.7223649946E-01    0.3326844208E-03    0.1733615652E+00    0.6083632368E+00
    0.3000000000E+05    0.4986237499E+00    0.7195067706E-01    0.1778913783E-03    0.1763416139E+00    0.6120192871E+00
    0.5000000000E+05    0.5000894400E+00    0.7172194977E-01    0.1343156015E-03    0.1770183583E+00    0.6129430743E+00
    0.7000000000E+05    0.5006943514E+00    0.7155455820E-01    0.1118050941E-03    0.1773380137E+00    0.6134136778E+00
    0.9000000000E+05    0.5010167538E+00    0.7142359218E-01    0.9754300772E-04    0.1775315070E+00    0.6137154327E+00
    0.1100000000E+06    0.5012130320E+00    0.7131624083E-01    0.8749411868E-04    0.1776646231E+00    0.6139327439E+00
    0.1300000000E+06    0.5013426904E+00    0.7122535765E-01    0.7993308954E-04    0.1777636430E+00    0.6141005415E+00
    0.1500000000E+06    0.5014331722E+00    0.7114659155E-01    0.7398347271E-04    0.1778412683E+00    0.6142362401E+00
    0.1700000000E+06    0.5014988270E+00    0.7107710676E-01    0.6914707314E-04    0.1779044496E+00    0.6143496368E+00
    0.1900000000E+06    0.5015478559E+00    0.7101495536E-01    0.6511721929E-04    0.1779573400E+00    0.6144467336E+00
    0.2100000000E+06    0.5015852692E+00    0.7095874280E-01    0.6169353736E-04    0.1780025892E+00    0.6145314486E+00
    0.2300000000E+06    0.5016142900E+00    0.7090743693E-01    0.5873889074E-04    0.1780419768E+00    0.6146064679E+00
    0.2500000000E+06    0.5016370801E+00    0.7086025264E-01    0.5615586919E-04    0.1780767473E+00    0.6146737066E+00
    0.2700000000E+06    0.5016551393E+00    0.7081657902E-01    0.5387314047E-04    0.1781078009E+00    0.6147345743E+00
    0.2900000000E+06    0.5016695378E+00    0.7077593139E-01    0.5183712311E-04    0.1781358069E+00    0.6147901366E+00
    0.3100000000E+06    0.5016810582E+00    0.7073791882E-01    0.5000669150E-04    0.1781612748E+00    0.6148412172E+00
    0.3300000000E+06    0.5016902846E+00    0.7070222147E-01    0.4834969007E-04    0.1781846004E+00    0.6148884648E+00
    0.3500000000E+06    0.5016976607E+00    0.7066857430E-01    0.4684056900E-04    0.1782060968E+00    0.6149323994E+00
    0.3700000000E+06    0.5017035287E+00    0.7063675529E-01    0.4545873881E-04    0.1782260151E+00    0.6149734434E+00
    0.3900000000E+06    0.5017081566E+00    0.7060657657E-01    0.4418739918E-04    0.1782445596E+00    0.6150119445E+00
    0.4100000000E+06    0.5017117565E+00    0.7057787781E-01    0.4301268860E-04    0.1782618985E+00    0.6150481922E+00
    0.4300000000E+06    0.5017144983E+00    0.7055052105E-01    0.4192305596E-04    0.1782781718E+00    0.6150824298E+00
    0.4500000000E+06    0.5017165192E+00    0.7052438673E-01    0.4090878875E-04    0.1782934973E+00    0.6151148638E+00
    0.4700000000E+06    0.5017179314E+00    0.7049937060E-01    0.3996165382E-04    0.1783079745E+00    0.6151456709E+00
    0.4900000000E+06    0.5017188269E+00    0.7047538117E-01    0.3907462024E-04    0.1783216886E+00    0.6151750033E+00
    0.1000000000E+06    0.5011258092E+00    0.7136749909E-01    0.9212872870E-04    0.1776034970E+00    0.6138318566E+00
    0.3000000000E+06    0.5016756174E+00    0.7075661716E-01    0.5089839706E-04    0.1781488311E+00    0.6148161931E+00
    0.5000000000E+06    0.5017191052E+00    0.7046374587E-01    0.3865171881E-04    0.1783282829E+00    0.6151891585E+00
    0.7000000000E+06    0.5017105823E+00    0.7026953689E-01    0.3224569218E-04    0.1784335221E+00    0.6154193590E+00
    0.9000000000E+06    0.5016908989E+00    0.7012409910E-01    0.2816462480E-04    0.1785074887E+00    0.6155855850E+00
    0.1100000000E+07    0.5016688859E+00    0.7000782880E-01    0.2528039298E-04    0.1785643607E+00    0.6157155409E+00
    0.1300000000E+07    0.5016470829E+00    0.6991098058E-01    0.2310607963E-04    0.1786104979E+00    0.6158221579E+00
    0.1500000000E+07    0.5016262811E+00    0.6982799846E-01    0.2139293602E-04    0.1786492829E+00    0.6159125078E+00
    0.1700000000E+07    0.5016066923E+00    0.6975541342E-01    0.1999903471E-04    0.1786827235E+00    0.6159908760E+00
    0.1900000000E+07    0.5015883200E+00    0.6969091388E-01    0.1883677654E-04    0.1787121068E+00    0.6160600544E+00
    0.2100000000E+07    0.5015710925E+00    0.6963288209E-01    0.1784881180E-04    0.1787383064E+00    0.6161219627E+00
    0.2300000000E+07    0.5015549151E+00    0.6958014159E-01    0.1699582994E-04    0.1787619422E+00    0.6161779768E+00
    0.2500000000E+07    0.5015396908E+00    0.6953181010E-01    0.1624987410E-04    0.1787834695E+00    0.6162291166E+00
    0.2700000000E+07    0.5015253284E+00    0.6948720895E-01    0.1559045172E-04    0.1788032324E+00    0.6162761588E+00
    0.2900000000E+07    0.5015117452E+00    0.6944580491E-01    0.1500215720E-04    0.1788214975E+00    0.6163197083E+00
    0.3100000000E+07    0.5014988676E+00    0.6940717141E-01    0.1447315824E-04    0.1788384753E+00    0.6163602457E+00
    0.3300000000E+07    0.5014866304E+00    0.6937096184E-01    0.1399419795E-04    0.1788543348E+00    0.6163981589E+00
    0.3500000000E+07    0.5014749763E+00    0.6933689079E-01    0.1355791748E-04    0.1788692139E+00    0.6164337655E+00
    0.3700000000E+07    0.5014638544E+00    0.6930472042E-01    0.1315838413E-04    0.1788832266E+00    0.6164673288E+00
    0.3900000000E+07    0.5014532201E+00    0.6927425044E-01    0.1279075518E-04    0.1788964681E+00    0.6164990696E+00
    0.4100000000E+07    0.5014430338E+00    0.6924531063E-01    0.1245103375E-04    0.1789090186E+00    0.6165291748E+00
    0.4300000000E+07    0.5014332601E+00    0.6921775509E-01    0.1213588816E-04    0.1789209466E+00    0.6165578039E+00
    0.4500000000E+07    0.5014238678E+00    0.6919145780E-01    0.1184251632E-04    0.1789323108E+00    0.6165850943E+00
    0.4700000000E+07    0.5014148288E+00    0.6916630921E-01    0.1156854240E-04    0.1789431621E+00    0.6166111651E+00
    0.4900000000E+07    0.5014061179E+00    0.6914221347E-01    0.1131193705E-04    0.1789535448E+00    0.6166361201E+00
    0.1000000000E+07    0.5016799594E+00    0.7006306393E-01    0.2661144567E-04    0.1785375637E+00    0.6156540933E+00
    0.3000000000E+07    0.5015052225E+00    0.6942616513E-01    0.1473087553E-04    0.1788301359E+00    0.6163403274E+00
    0.5000000000E+07    0.5014018784E+00    0.6913053365E-01    0.1118959256E-04    0.1789585726E+00    0.6166482081E+00
    0.7000000000E+07    0.5013298650E+00    0.6893617954E-01    0.9335950238E-05    0.1790418388E+00    0.6168486464E+00
    0.9000000000E+07    0.5012746445E+00    0.6879124140E-01    0.8154731362E-05    0.1791035542E+00    0.6169973919E+00
    0.1100000000E+08    0.5012298657E+00    0.6867566069E-01    0.7319803633E-05    0.1791526084E+00    0.6171156544E+00
    0.1300000000E+08    0.5011922050E+00    0.6857954853E-01    0.6690329724E-05    0.1791933214E+00    0.6172137966E+00
    0.1500000000E+08    0.5011597077E+00    0.6849729666E-01    0.6194339440E-05    0.1792281216E+00    0.6172976613E+00
    0.1700000000E+08    0.5011311270E+00    0.6842541623E-01    0.5790761266E-05    0.1792585106E+00    0.6173708680E+00
    0.1900000000E+08    0.5011056194E+00    0.6836158870E-01    0.5454242088E-05    0.1792854819E+00    0.6174358149E+00
    0.2100000000E+08    0.5010825874E+00    0.6830419483E-01    0.5168182084E-05    0.1793097273E+00    0.6174941726E+00
    0.2300000000E+08    0.5010615924E+00    0.6825205906E-01    0.4921202035E-05    0.1793317475E+00    0.6175471517E+00
    0.2500000000E+08    0.5010423029E+00    0.6820430097E-01    0.4705208836E-05    0.1793519170E+00    0.6175956575E+00
    0.2700000000E+08    0.5010244623E+00    0.6816024410E-01    0.4514269925E-05    0.1793705229E+00    0.6176403843E+00
