  Pressure (Pa) 22mC5-400 (mol/kg) 3mC6-400 (mol/kg) 33mC5-400 (mol/kg) 23mC5-400 (mol/kg) C7-400 (mol/kg)
    0.1000000000E+01    0.2121139764E-02    0.1060964473E-02    0.1950220713E-03    0.9311223045E-03    0.1721581863E-02
    0.3000000000E+01    0.6304441011E-02    0.3155682137E-02    0.5774360820E-03    0.2767500001E-02    0.5120790732E-02
    0.5000000000E+01    0.1041095097E-01    0.5214892724E-02    0.9499444145E-03    0.4570198063E-02    0.8462642575E-02
    0.7000000000E+01    0.1444281277E-01    0.7239498194E-02    0.1312857617E-02    0.6340156180E-02    0.1174859225E-01
    0.9000000000E+01    0.1840209010E-01    0.9230370155E-02    0.1666474352E-02    0.8078279201E-02    0.1498004568E-01
    0.1100000000E+02    0.2229077080E-01    0.1118835113E-01    0.2011081940E-02    0.9785438736E-02    0.1815836192E-01
    0.1300000000E+02    0.2611077035E-01    0.1311425577E-01    0.2346956872E-02    0.1146247466E-01    0.2128485511E-01
    0.1500000000E+02    0.2986393508E-01    0.1500887199E-01    0.2674365300E-02    0.1311019655E-01    0.2436079624E-01
    0.1700000000E+02    0.3355204531E-01    0.1687296205E-01    0.2993563491E-02    0.1472938502E-01    0.2738741502E-01
    0.1900000000E+02    0.3717681824E-01    0.1870726359E-01    0.3304798270E-02    0.1632079304E-01    0.3036590144E-01
    0.2100000000E+02    0.4073991074E-01    0.2051249066E-01    0.3608307434E-02    0.1788514709E-01    0.3329740743E-01
    0.2300000000E+02    0.4424292193E-01    0.2228933458E-01    0.3904320143E-02    0.1942314838E-01    0.3618304833E-01
    0.2500000000E+02    0.4768739574E-01    0.2403846491E-01    0.4193057294E-02    0.2093547389E-01    0.3902390437E-01
    0.2700000000E+02    0.5107482320E-01    0.2576053026E-01    0.4474731877E-02    0.2242277742E-01    0.4182102202E-01
    0.2900000000E+02    0.5440664473E-01    0.2745615910E-01    0.4749549311E-02    0.2388569058E-01    0.4457541527E-01
    0.3100000000E+02    0.5768425227E-01    0.2912596056E-01    0.5017707762E-02    0.2532482371E-01    0.4728806696E-01
    0.3300000000E+02    0.6090899125E-01    0.3077052515E-01    0.5279398453E-02    0.2674076680E-01    0.4995992989E-01
    0.3500000000E+02    0.6408216260E-01    0.3239042549E-01    0.5534805946E-02    0.2813409028E-01    0.5259192799E-01
    0.3700000000E+02    0.6720502450E-01    0.3398621696E-01    0.5784108423E-02    0.2950534587E-01    0.5518495742E-01
    0.3900000000E+02    0.7027879414E-01    0.3555843833E-01    0.6027477947E-02    0.3085506731E-01    0.5773988759E-01
    0.4100000000E+02    0.7330464943E-01    0.3710761242E-01    0.6265080709E-02    0.3218377111E-01    0.6025756216E-01
    0.4300000000E+02    0.7628373048E-01    0.3863424667E-01    0.6497077270E-02    0.3349195723E-01    0.6273879998E-01
    0.4500000000E+02    0.7921714119E-01    0.4013883366E-01    0.6723622784E-02    0.3478010973E-01    0.6518439598E-01
    0.4700000000E+02    0.8210595062E-01    0.4162185173E-01    0.6944867215E-02    0.3604869741E-01    0.6759512209E-01
    0.4900000000E+02    0.8495119440E-01    0.4308376541E-01    0.7160955544E-02    0.3729817439E-01    0.6997172801E-01
    0.1000000000E+02    0.2035513366E-01    0.1021342046E-01    0.1839886760E-02    0.8935676186E-02    0.1657576278E-01
    0.3000000000E+02    0.5605214009E-01    0.2829425091E-01    0.4884448799E-02    0.2460819231E-01    0.4593689857E-01
    0.5000000000E+02    0.8635779398E-01    0.4380694964E-01    0.7267110162E-02    0.3791588442E-01    0.7114746431E-01
    0.7000000000E+02    0.1124310778E+00    0.5726598772E-01    0.9151274254E-02    0.4936697099E-01    0.9303765893E-01
    0.9000000000E+02    0.1351184690E+00    0.6905676506E-01    0.1065384600E-01    0.5933265549E-01    0.1122295582E+00
    0.1100000000E+03    0.1550527599E+00    0.7947372027E-01    0.1186017690E-01    0.6809044904E-01    0.1291985380E+00
    0.1300000000E+03    0.1727166498E+00    0.8874568883E-01    0.1283368863E-01    0.7585205052E-01    0.1443141510E+00
    0.1500000000E+03    0.1884849155E+00    0.9705322446E-01    0.1362224132E-01    0.8278183538E-01    0.1578680530E+00
    0.1700000000E+03    0.2026531185E+00    0.1045407063E+00    0.1426244896E-01    0.8900944217E-01    0.1700935250E+00
    0.1900000000E+03    0.2154576034E+00    0.1113249758E+00    0.1478266544E-01    0.9463854127E-01    0.1811794020E+00
    0.2100000000E+03    0.2270897202E+00    0.1175016109E+00    0.1520508937E-01    0.9975307082E-01    0.1912801932E+00
    0.2300000000E+03    0.2377061250E+00    0.1231495585E+00    0.1554727266E-01    0.1044217536E+00    0.2005235553E+00
    0.2500000000E+03    0.2474363667E+00    0.1283346064E+00    0.1582321784E-01    0.1087014238E+00    0.2090158938E+00
    0.2700000000E+03    0.2563885579E+00    0.1331120194E+00    0.1604418714E-01    0.1126395138E+00    0.2168466170E+00
    0.2900000000E+03    0.2646536743E+00    0.1375285657E+00    0.1621930649E-01    0.1162759394E+00    0.2240914068E+00
    0.3100000000E+03    0.2723088523E+00    0.1416240923E+00    0.1635602140E-01    0.1196445463E+00    0.2308147612E+00
    0.3300000000E+03    0.2794199505E+00    0.1454327618E+00    0.1646044458E-01    0.1227742333E+00    0.2370719917E+00
    0.3500000000E+03    0.2860435586E+00    0.1489840335E+00    0.1653762371E-01    0.1256898331E+00    0.2429108066E+00
    0.3700000000E+03    0.2922285885E+00    0.1523034471E+00    0.1659174930E-01    0.1284128105E+00    0.2483725775E+00
    0.3900000000E+03    0.2980175470E+00    0.1554132553E+00    0.1662631750E-01    0.1309618205E+00    0.2534933602E+00
    0.4100000000E+03    0.3034475612E+00    0.1583329370E+00    0.1664425858E-01    0.1333531578E+00    0.2583047246E+00
    0.4300000000E+03    0.3085512119E+00    0.1610796178E+00    0.1664803895E-01    0.1356011225E+00    0.2628344336E+00
    0.4500000000E+03    0.3133572152E+00    0.1636684156E+00    0.1663974280E-01    0.1377183194E+00    0.2671070012E+00
    0.4700000000E+03    0.3178909845E+00    0.1661127272E+00    0.1662113780E-01    0.1397159038E+00    0.2711441566E+00
    0.4900000000E+03    0.3221750962E+00    0.1684244672E+00    0.1659372829E-01    0.1416037865E+00    0.2749652296E+00
    0.1000000000E+03    0.1453966404E+00    0.7442136451E-01    0.1128965065E-01    0.6384801704E-01    0.1209667128E+00
    0.3000000000E+03    0.2685531509E+00    0.1396142006E+00    0.1629205469E-01    0.1179918094E+00    0.2275146114E+00
    0.5000000000E+03    0.3242299068E+00    0.1695339907E+00    0.1657713076E-01    0.1425093889E+00    0.2768002003E+00
    0.7000000000E+03    0.3561140462E+00    0.1868243804E+00    0.1601121756E-01    0.1565721940E+00    0.3054998016E+00
    0.9000000000E+03    0.3767754973E+00    0.1981320936E+00    0.1529344816E-01    0.1656995559E+00    0.3244092556E+00
    0.1100000000E+04    0.3912430523E+00    0.2061241284E+00    0.1459083611E-01    0.1721008066E+00    0.3378719778E+00
    0.1300000000E+04    0.4019310741E+00    0.2120823173E+00    0.1394461820E-01    0.1768372465E+00    0.3479809904E+00
    0.1500000000E+04    0.4101443843E+00    0.2167007649E+00    0.1336092500E-01    0.1804827574E+00    0.3558725701E+00
    0.1700000000E+04    0.4166499910E+00    0.2203887309E+00    0.1283566533E-01    0.1833748630E+00    0.3622183945E+00
    0.1900000000E+04    0.4219281683E+00    0.2234034828E+00    0.1236220388E-01    0.1857250216E+00    0.3674417550E+00
    0.2100000000E+04    0.4262948846E+00    0.2259150355E+00    0.1193383493E-01    0.1876724243E+00    0.3718230804E+00
    0.2300000000E+04    0.4299664569E+00    0.2280403464E+00    0.1154453363E-01    0.1893124138E+00    0.3755557623E+00
    0.2500000000E+04    0.4330959178E+00    0.2298625720E+00    0.1118911268E-01    0.1907124756E+00    0.3787776391E+00
    0.2700000000E+04    0.4357945509E+00    0.2314424900E+00    0.1086317773E-01    0.1919217106E+00    0.3815897003E+00
    0.2900000000E+04    0.4381451996E+00    0.2328255747E+00    0.1056302436E-01    0.1929766904E+00    0.3840676895E+00
    0.3100000000E+04    0.4402107941E+00    0.2340465422E+00    0.1028552826E-01    0.1939052106E+00    0.3862695706E+00
    0.3300000000E+04    0.4420399872E+00    0.2351323637E+00    0.1002804609E-01    0.1947287718E+00    0.3882404835E+00
    0.3500000000E+04    0.4436709797E+00    0.2361043174E+00    0.9788331540E-02    0.1954642650E+00    0.3900161247E+00
    0.3700000000E+04    0.4451341810E+00    0.2369794196E+00    0.9564466056E-02    0.1961251428E+00    0.3916251087E+00
    0.3900000000E+04    0.4464540953E+00    0.2377714442E+00    0.9354802434E-02    0.1967222514E+00    0.3930906517E+00
    0.4100000000E+04    0.4476506875E+00    0.2384916619E+00    0.9157919039E-02    0.1972644324E+00    0.3944317952E+00
    0.4300000000E+04    0.4487403859E+00    0.2391493859E+00    0.8972582651E-02    0.1977589651E+00    0.3956643100E+00
    0.4500000000E+04    0.4497368311E+00    0.2397523800E+00    0.8797718236E-02    0.1982118968E+00    0.3968013742E+00
    0.4700000000E+04    0.4506514424E+00    0.2403071695E+00    0.8632384251E-02    0.1986282925E+00    0.3978540883E+00
    0.4900000000E+04    0.4514938518E+00    0.2408192787E+00    0.8475752394E-02    0.1990124271E+00    0.3988318721E+00
    0.1000000000E+04    0.3845961215E+00    0.2024431224E+00    0.1493632674E-01    0.1691585851E+00    0.3316591939E+00
    0.3000000000E+04    0.4392103050E+00    0.2334544836E+00    0.1042161957E-01    0.1934552894E+00    0.3852000674E+00
    0.5000000000E+04    0.4518905863E+00    0.2410608275E+00    0.8400467711E-02    0.1991935533E+00    0.3992952268E+00
    0.7000000000E+04    0.4574952544E+00    0.2444970359E+00    0.7212157185E-02    0.2017715440E+00    0.4060803148E+00
    0.9000000000E+04    0.4606435747E+00    0.2464415866E+00    0.6408741811E-02    0.2032431274E+00    0.4101597296E+00
    0.1100000000E+05    0.4626551829E+00    0.2476829701E+00    0.5819644558E-02    0.2041984746E+00    0.4129220254E+00
    0.1300000000E+05    0.4640488914E+00    0.2485375498E+00    0.5364159608E-02    0.2048709137E+00    0.4149370048E+00
    0.1500000000E+05    0.4650698672E+00    0.2491570286E+00    0.4998544362E-02    0.2053713138E+00    0.4164838561E+00
    0.1700000000E+05    0.4658489272E+00    0.2496232344E+00    0.4696772845E-02    0.2057591556E+00    0.4177163581E+00
    0.1900000000E+05    0.4664621988E+00    0.2499841740E+00    0.4442267670E-02    0.2060692413E+00    0.4187265949E+00
    0.2100000000E+05    0.4669569718E+00    0.2502698503E+00    0.4223904984E-02    0.2063233062E+00    0.4195732843E+00
    0.2300000000E+05    0.4673641590E+00    0.2504999633E+00    0.4033906623E-02    0.2065356352E+00    0.4202957511E+00
    0.2500000000E+05    0.4677048130E+00    0.2506879719E+00    0.3866649194E-02    0.2067160085E+00    0.4209213913E+00
    0.2700000000E+05    0.4679937625E+00    0.2508433753E+00    0.3717953235E-02    0.2068713521E+00    0.4214699188E+00
    0.2900000000E+05    0.4682417510E+00    0.2509730638E+00    0.3584639361E-02    0.2070067104E+00    0.4219559093E+00
    0.3100000000E+05    0.4684567503E+00    0.2510821524E+00    0.3464240470E-02    0.2071258464E+00    0.4223903899E+00
    0.3300000000E+05    0.4686447994E+00    0.2511745140E+00    0.3354809058E-02    0.2072316259E+00    0.4227818699E+00
    0.3500000000E+05    0.4688105552E+00    0.2512531329E+00    0.3254784613E-02    0.2073262705E+00    0.4231370293E+00
    0.3700000000E+05    0.4689576659E+00    0.2513203434E+00    0.3162900134E-02    0.2074115298E+00    0.4234611918E+00
    0.3900000000E+05    0.4690890295E+00    0.2513779962E+00    0.3078114832E-02    0.2074888008E+00    0.4237586572E+00
    0.4100000000E+05    0.4692069766E+00    0.2514275761E+00    0.2999564775E-02    0.2075592131E+00    0.4240329396E+00
    0.4300000000E+05    0.4693134028E+00    0.2514702872E+00    0.2926526070E-02    0.2076236901E+00    0.4242869416E+00
    0.4500000000E+05    0.4694098651E+00    0.2515071156E+00    0.2858387000E-02    0.2076829943E+00    0.4245230843E+00
    0.4700000000E+05    0.4694976539E+00    0.2515388757E+00    0.2794626647E-02    0.2077377612E+00    0.4247434042E+00
    0.4900000000E+05    0.4695778481E+00    0.2515662455E+00    0.2734798285E-02    0.2077885244E+00    0.4249496282E+00
    0.1000000000E+05    0.4617494794E+00    0.2471246810E+00    0.6093671454E-02    0.2037664742E+00    0.4116598672E+00
    0.3000000000E+05    0.4683529591E+00    0.2510299167E+00    0.3522957655E-02    0.2070681095E+00    0.4221790069E+00
    0.5000000000E+05    0.4696153869E+00    0.2515784654E+00    0.2706236019E-02    0.2078125487E+00    0.4250479238E+00
    0.7000000000E+05    0.4701274976E+00    0.2516916811E+00    0.2270609858E-02    0.2081632202E+00    0.4265401582E+00
    0.9000000000E+05    0.4703956673E+00    0.2516821267E+00    0.1990282963E-02    0.2083751541E+00    0.4275035056E+00
    0.1100000000E+06    0.4705558702E+00    0.2516281447E+00    0.1790908941E-02    0.2085208068E+00    0.4281980630E+00
    0.1300000000E+06    0.4706595274E+00    0.2515567555E+00    0.1639941444E-02    0.2086290747E+00    0.4287335693E+00
    0.1500000000E+06    0.4707302166E+00    0.2514789931E+00    0.1520599243E-02    0.2087139065E+00    0.4291654246E+00
    0.1700000000E+06    0.4707801964E+00    0.2513998192E+00    0.1423243872E-02    0.2087829275E+00    0.4295250624E+00
    0.1900000000E+06    0.4708164337E+00    0.2513215778E+00    0.1341896313E-02    0.2088406903E+00    0.4298318532E+00
    0.2100000000E+06    0.4708431603E+00    0.2512453825E+00    0.1272626562E-02    0.2088900979E+00    0.4300984922E+00
    0.2300000000E+06    0.4708630832E+00    0.2511717350E+00    0.1212732005E-02    0.2089330987E+00    0.4303337068E+00
    0.2500000000E+06    0.4708780072E+00    0.2511008204E+00    0.1160285368E-02    0.2089710546E+00    0.4305437306E+00
    0.2700000000E+06    0.4708891768E+00    0.2510326574E+00    0.1113870680E-02    0.2090049504E+00    0.4307331564E+00
    0.2900000000E+06    0.4708974749E+00    0.2509671780E+00    0.1072421336E-02    0.2090355179E+00    0.4309054575E+00
    0.3100000000E+06    0.4709035429E+00    0.2509042700E+00    0.1035116697E-02    0.2090633143E+00    0.4310633187E+00
    0.3300000000E+06    0.4709078563E+00    0.2508438018E+00    0.1001313752E-02    0.2090887722E+00    0.4312088548E+00
    0.3500000000E+06    0.4709107741E+00    0.2507856348E+00    0.9705006300E-03    0.2091122335E+00    0.4313437589E+00
    0.3700000000E+06    0.4709125711E+00    0.2507296319E+00    0.9422641506E-03    0.2091339724E+00    0.4314694058E+00
    0.3900000000E+06    0.4709134611E+00    0.2506756606E+00    0.9162666676E-03    0.2091542123E+00    0.4315869261E+00
    0.4100000000E+06    0.4709136119E+00    0.2506235957E+00    0.8922292225E-03    0.2091731367E+00    0.4316972600E+00
    0.4300000000E+06    0.4709131569E+00    0.2505733200E+00    0.8699190678E-03    0.2091908986E+00    0.4318011971E+00
    0.4500000000E+06    0.4709122031E+00    0.2505247241E+00    0.8491402841E-03    0.2092076264E+00    0.4318994064E+00
    0.4700000000E+06    0.4709108371E+00    0.2504777071E+00    0.8297266226E-03    0.2092234289E+00    0.4319924596E+00
    0.4900000000E+06    0.4709091295E+00    0.2504321751E+00    0.8115359763E-03    0.2092383990E+00    0.4320808487E+00
    0.1000000000E+06    0.4704850678E+00    0.2516584242E+00    0.1883045522E-02    0.2084539389E+00    0.4278756610E+00
    0.3000000000E+06    0.4709007547E+00    0.2509354105E+00    0.1053294652E-02    0.2090497330E+00    0.4309860495E+00
    0.5000000000E+06    0.4709081661E+00    0.2504099388E+00    0.8028603936E-03    0.2092455974E+00    0.4321234296E+00
    0.7000000000E+06    0.4708806828E+00    0.2500254644E+00    0.6712062420E-03    0.2093605025E+00    0.4328090982E+00
    0.9000000000E+06    0.4708486045E+00    0.2497233495E+00    0.5871002038E-03    0.2094413001E+00    0.4332962220E+00
    0.1100000000E+07    0.4708175474E+00    0.2494745971E+00    0.5275482829E-03    0.2095034512E+00    0.4336724919E+00
    0.1300000000E+07    0.4707886951E+00    0.2492631515E+00    0.4825920366E-03    0.2095538907E+00    0.4339783037E+00
    0.1500000000E+07    0.4707621526E+00    0.2490792439E+00    0.4471322724E-03    0.2095963068E+00    0.4342355024E+00
    0.1700000000E+07    0.4707377412E+00    0.2489164982E+00    0.4182545626E-03    0.2096328893E+00    0.4344571995E+00
    0.1900000000E+07    0.4707152223E+00    0.2487705245E+00    0.3941576569E-03    0.2096650419E+00    0.4346518660E+00
    0.2100000000E+07    0.4706943652E+00    0.2486381725E+00    0.3736610044E-03    0.2096937178E+00    0.4348252834E+00
    0.2300000000E+07    0.4706749653E+00    0.2485171047E+00    0.3559546402E-03    0.2097195932E+00    0.4349815693E+00
    0.2500000000E+07    0.4706568465E+00    0.2484055387E+00    0.3404620749E-03    0.2097431650E+00    0.4351237578E+00
    0.2700000000E+07    0.4706398593E+00    0.2483020844E+00    0.3267604434E-03    0.2097648088E+00    0.4352541476E+00
    0.2900000000E+07    0.4706238768E+00    0.2482056366E+00    0.3145316552E-03    0.2097848156E+00    0.4353745211E+00
    0.3100000000E+07    0.4706087908E+00    0.2481153019E+00    0.3035312645E-03    0.2098034152E+00    0.4354862875E+00
    0.3300000000E+07    0.4705945090E+00    0.2480303481E+00    0.2935679368E-03    0.2098207922E+00    0.4355905799E+00
    0.3500000000E+07    0.4705809520E+00    0.2479501672E+00    0.2844894998E-03    0.2098370973E+00    0.4356883230E+00
    0.3700000000E+07    0.4705680513E+00    0.2478742491E+00    0.2761732207E-03    0.2098524548E+00    0.4357802807E+00
    0.3900000000E+07    0.4705557475E+00    0.2478021614E+00    0.2685188783E-03    0.2098669687E+00    0.4358670915E+00
    0.4100000000E+07    0.4705439886E+00    0.2477335344E+00    0.2614437257E-03    0.2098807269E+00    0.4359492942E+00
    0.4300000000E+07    0.4705327291E+00    0.2476680498E+00    0.2548787653E-03    0.2098938040E+00    0.4360273477E+00
    0.4500000000E+07    0.4705219287E+00    0.2476054311E+00    0.2487659490E-03    0.2099062643E+00    0.4361016461E+00
    0.4700000000E+07    0.4705115519E+00    0.2475454371E+00    0.2430560444E-03    0.2099181633E+00    0.4361725300E+00
    0.4900000000E+07    0.4705015671E+00    0.2474878556E+00    0.2377069879E-03    0.2099295494E+00    0.4362402960E+00
    0.1000000000E+07    0.4708328318E+00    0.2495935044E+00    0.5550426608E-03    0.2094741636E+00    0.4334950686E+00
    0.3000000000E+07    0.4706162278E+00    0.2481597541E+00    0.3088909248E-03    0.2097942789E+00    0.4354314038E+00
    0.5000000000E+07    0.4704967127E+00    0.2474599102E+00    0.2351562706E-03    0.2099350635E+00    0.4362730923E+00
    0.7000000000E+07    0.4704146973E+00    0.2469918390E+00    0.1964779524E-03    0.2100264163E+00    0.4368143141E+00
    0.9000000000E+07    0.4703522577E+00    0.2466394038E+00    0.1717962313E-03    0.2100941647E+00    0.4372131090E+00
    0.1100000000E+08    0.4703018412E+00    0.2463565495E+00    0.1543323458E-03    0.2101480370E+00    0.4375286791E+00
    0.1300000000E+08    0.4702595609E+00    0.2461202375E+00    0.1411551049E-03    0.2101927636E+00    0.4377896652E+00
    0.1500000000E+08    0.4702231535E+00    0.2459172710E+00    0.1307651449E-03    0.2102310049E+00    0.4380121017E+00
    0.1700000000E+08    0.4701911851E+00    0.2457393795E+00    0.1223061414E-03    0.2102644066E+00    0.4382058692E+00
    0.1900000000E+08    0.4701626901E+00    0.2455810351E+00    0.1152491433E-03    0.2102940576E+00    0.4383774853E+00
    0.2100000000E+08    0.4701369873E+00    0.2454383589E+00    0.1092476262E-03    0.2103207165E+00    0.4385314748E+00
    0.2300000000E+08    0.4701135778E+00    0.2453085241E+00    0.1040639286E-03    0.2103449325E+00    0.4386711065E+00
    0.2500000000E+08    0.4700920858E+00    0.2451894062E+00    0.9952894708E-04    0.2103671163E+00    0.4387988185E+00
    0.2700000000E+08    0.4700722207E+00    0.2450793685E+00    0.9551867265E-04    0.2103875830E+00    0.4389164773E+00
