  Pressure (Pa) 22mC5-400 (mol/kg) 3mC6-400 (mol/kg) 33mC5-400 (mol/kg) 23mC5-400 (mol/kg) C7-400 (mol/kg)
    0.1000000000E+01    0.2122564189E-02    0.1045325869E-02    0.6425777673E-04    0.5590482410E-03    0.1187430421E-01
    0.3000000000E+01    0.6317027527E-02    0.3021227583E-02    0.1860665508E-03    0.1663812344E-02    0.3432563894E-01
    0.5000000000E+01    0.1044528268E-01    0.4857604355E-02    0.2996930225E-03    0.2751153825E-02    0.5519937356E-01
    0.7000000000E+01    0.1450889914E-01    0.6568701281E-02    0.4059401932E-03    0.3821485573E-02    0.7465631446E-01
    0.9000000000E+01    0.1850939705E-01    0.8166889030E-02    0.5055050844E-03    0.4875207501E-02    0.9283612543E-01
    0.1100000000E+02    0.2244824916E-01    0.9662962263E-02    0.5989958265E-03    0.5912707050E-02    0.1098606921E+00
    0.1300000000E+02    0.2632688264E-01    0.1106638281E-01    0.6869455475E-03    0.6934359671E-02    0.1258368639E+00
    0.1500000000E+02    0.3014668080E-01    0.1238547918E-01    0.7698237382E-03    0.7940529286E-02    0.1408587032E+00
    0.1700000000E+02    0.3390898481E-01    0.1362761126E-01    0.8480456126E-03    0.8931568727E-02    0.1550093431E+00
    0.1900000000E+02    0.3761509526E-01    0.1479930713E-01    0.9219798620E-03    0.9907820152E-02    0.1683625301E+00
    0.2100000000E+02    0.4126627372E-01    0.1590637731E-01    0.9919551154E-03    0.1086961545E-01    0.1809839123E+00
    0.2300000000E+02    0.4486374411E-01    0.1695401069E-01    0.1058265350E-02    0.1181727663E-01    0.1929321222E+00
    0.2500000000E+02    0.4840869420E-01    0.1794685549E-01    0.1121174448E-02    0.1275111615E-01    0.2042596890E+00
    0.2700000000E+02    0.5190227685E-01    0.1888908787E-01    0.1180920044E-02    0.1367143732E-01    0.2150138129E+00
    0.2900000000E+02    0.5534561133E-01    0.1978447033E-01    0.1237716804E-02    0.1457853462E-01    0.2252370244E+00
    0.3100000000E+02    0.5873978451E-01    0.2063640171E-01    0.1291759210E-02    0.1547269396E-01    0.2349677477E+00
    0.3300000000E+02    0.6208585204E-01    0.2144796008E-01    0.1343223961E-02    0.1635419310E-01    0.2442407848E+00
    0.3500000000E+02    0.6538483945E-01    0.2222193965E-01    0.1392272022E-02    0.1722330182E-01    0.2530877326E+00
    0.3700000000E+02    0.6863774322E-01    0.2296088280E-01    0.1439050402E-02    0.1808028231E-01    0.2615373435E+00
    0.3900000000E+02    0.7184553180E-01    0.2366710781E-01    0.1483693695E-02    0.1892538934E-01    0.2696158388E+00
    0.4100000000E+02    0.7500914661E-01    0.2434273298E-01    0.1526325412E-02    0.1975887060E-01    0.2773471809E+00
    0.4300000000E+02    0.7812950295E-01    0.2498969775E-01    0.1567059151E-02    0.2058096689E-01    0.2847533116E+00
    0.4500000000E+02    0.8120749089E-01    0.2560978119E-01    0.1605999611E-02    0.2139191240E-01    0.2918543609E+00
    0.4700000000E+02    0.8424397617E-01    0.2620461823E-01    0.1643243493E-02    0.2219193490E-01    0.2986688300E+00
    0.4900000000E+02    0.8723980101E-01    0.2677571396E-01    0.1678880280E-02    0.2298125597E-01    0.3052137530E+00
    0.1000000000E+02    0.2048643859E-01    0.8927069885E-02    0.5529747898E-03    0.5395961332E-02    0.1014858123E+00
    0.3000000000E+02    0.5704877639E-01    0.2021566797E-01    0.1265070866E-02    0.1502721399E-01    0.2301616922E+00
    0.5000000000E+02    0.8872272271E-01    0.2705279681E-01    0.1696122176E-02    0.2337197107E-01    0.3083900921E+00
    0.7000000000E+02    0.1164348223E+00    0.3163347904E-01    0.1973863816E-02    0.3067400046E-01    0.3609975157E+00
    0.9000000000E+02    0.1408906550E+00    0.3491382422E-01    0.2157004450E-02    0.3711894429E-01    0.3988118739E+00
    0.1100000000E+03    0.1626370290E+00    0.3737690544E-01    0.2277318596E-02    0.4285067783E-01    0.4273109803E+00
    0.1300000000E+03    0.1821043015E+00    0.3929304639E-01    0.2353944122E-02    0.4798244115E-01    0.4495641050E+00
    0.1500000000E+03    0.1996358522E+00    0.4082529651E-01    0.2399273200E-02    0.5260459221E-01    0.4674248937E+00
    0.1700000000E+03    0.2155090383E+00    0.4207782434E-01    0.2421744951E-02    0.5679011899E-01    0.4820791162E+00
    0.1900000000E+03    0.2299503688E+00    0.4312028538E-01    0.2427317496E-02    0.6059863130E-01    0.4943206907E+00
    0.2100000000E+03    0.2431466757E+00    0.4400101569E-01    0.2420310066E-02    0.6407929954E-01    0.5047012471E+00
    0.2300000000E+03    0.2552534618E+00    0.4475460424E-01    0.2403916449E-02    0.6727305082E-01    0.5136160336E+00
    0.2500000000E+03    0.2664012241E+00    0.4540645265E-01    0.2380534137E-02    0.7021423252E-01    0.5213556857E+00
    0.2700000000E+03    0.2767003028E+00    0.4597563345E-01    0.2351983830E-02    0.7293188800E-01    0.5281387027E+00
    0.2900000000E+03    0.2862446420E+00    0.4647674411E-01    0.2319660567E-02    0.7545074613E-01    0.5341325299E+00
    0.3100000000E+03    0.2951147383E+00    0.4692114565E-01    0.2284640454E-02    0.7779199689E-01    0.5394676539E+00
    0.3300000000E+03    0.3033799722E+00    0.4731781162E-01    0.2247757656E-02    0.7997390500E-01    0.5442472709E+00
    0.3500000000E+03    0.3111004712E+00    0.4767392324E-01    0.2209660904E-02    0.8201229998E-01    0.5485540700E+00
    0.3700000000E+03    0.3183286085E+00    0.4799529510E-01    0.2170855571E-02    0.8392097053E-01    0.5524550891E+00
    0.3900000000E+03    0.3251102187E+00    0.4828668510E-01    0.2131735407E-02    0.8571198456E-01    0.5560052520E+00
    0.4100000000E+03    0.3314855922E+00    0.4855202366E-01    0.2092606715E-02    0.8739595057E-01    0.5592499883E+00
    0.4300000000E+03    0.3374902913E+00    0.4879458593E-01    0.2053706950E-02    0.8898223277E-01    0.5622272009E+00
    0.4500000000E+03    0.3431558276E+00    0.4901712262E-01    0.2015219137E-02    0.9047912899E-01    0.5649687634E+00
    0.4700000000E+03    0.3485102246E+00    0.4922196077E-01    0.1977283120E-02    0.9189401894E-01    0.5675016741E+00
    0.4900000000E+03    0.3535784889E+00    0.4941108215E-01    0.1940004407E-02    0.9323348826E-01    0.5698489543E+00
    0.1000000000E+03    0.1520732931E+00    0.3622728460E-01    0.2223613636E-02    0.4006627084E-01    0.4139961358E+00
    0.3000000000E+03    0.2907593975E+00    0.4670542468E-01    0.2302430555E-02    0.7664236859E-01    0.5368754313E+00
    0.5000000000E+03    0.3560124102E+00    0.4950028938E-01    0.1921636872E-02    0.9387680711E-01    0.5709592667E+00
    0.7000000000E+03    0.3940308573E+00    0.5076668127E-01    0.1598439598E-02    0.1039325047E+00    0.5870033808E+00
    0.9000000000E+03    0.4189295925E+00    0.5147656602E-01    0.1355045728E-02    0.1105274577E+00    0.5963507774E+00
    0.1100000000E+04    0.4364983147E+00    0.5192393403E-01    0.1172077875E-02    0.1151874896E+00    0.6024787244E+00
    0.1300000000E+04    0.4495558016E+00    0.5222760512E-01    0.1031894581E-02    0.1186558274E+00    0.6068108117E+00
    0.1500000000E+04    0.4596398539E+00    0.5244456309E-01    0.9220854117E-03    0.1213381390E+00    0.6100384537E+00
    0.1700000000E+04    0.4676608891E+00    0.5260545013E-01    0.8342454194E-03    0.1234747054E+00    0.6125381451E+00
    0.1900000000E+04    0.4741922730E+00    0.5272815931E-01    0.7626463105E-03    0.1252169239E+00    0.6145325079E+00
    0.2100000000E+04    0.4796130567E+00    0.5282381148E-01    0.7033117882E-03    0.1266649306E+00    0.6161616555E+00
    0.2300000000E+04    0.4841838396E+00    0.5289966501E-01    0.6534226496E-03    0.1278876023E+00    0.6175181987E+00
    0.2500000000E+04    0.4880896684E+00    0.5296064783E-01    0.6109378021E-03    0.1289338701E+00    0.6186658182E+00
    0.2700000000E+04    0.4914655550E+00    0.5301021616E-01    0.5743502053E-03    0.1298394517E+00    0.6196497517E+00
    0.2900000000E+04    0.4944123085E+00    0.5305086092E-01    0.5425268908E-03    0.1306310289E+00    0.6205030255E+00
    0.3100000000E+04    0.4970067156E+00    0.5308441936E-01    0.5146020090E-03    0.1313289349E+00    0.6212503188E+00
    0.3300000000E+04    0.4993082901E+00    0.5311227388E-01    0.4899039087E-03    0.1319489365E+00    0.6219104462E+00
    0.3500000000E+04    0.5013638686E+00    0.5313548283E-01    0.4679044751E-03    0.1325034479E+00    0.6224980046E+00
    0.3700000000E+04    0.5032108134E+00    0.5315486889E-01    0.4481833068E-03    0.1330023766E+00    0.6230244936E+00
    0.3900000000E+04    0.5048792917E+00    0.5317108019E-01    0.4304019657E-03    0.1334537260E+00    0.6234990966E+00
    0.4100000000E+04    0.5063939269E+00    0.5318463352E-01    0.4142851848E-03    0.1338640318E+00    0.6239292369E+00
    0.4300000000E+04    0.5077750158E+00    0.5319594538E-01    0.3996069586E-03    0.1342386840E+00    0.6243209808E+00
    0.4500000000E+04    0.5090394380E+00    0.5320535471E-01    0.3861801153E-03    0.1345821669E+00    0.6246793345E+00
    0.4700000000E+04    0.5102013458E+00    0.5321313974E-01    0.3738484022E-03    0.1348982423E+00    0.6250084664E+00
    0.4900000000E+04    0.5112726937E+00    0.5321953073E-01    0.3624804130E-03    0.1351900893E+00    0.6253118757E+00
    0.1000000000E+04    0.4284120883E+00    0.5172349475E-01    0.1257239882E-02    0.1130418358E+00    0.5997029104E+00
    0.3000000000E+04    0.4957494930E+00    0.5306843066E-01    0.5281229948E-03    0.1309906147E+00    0.6208886288E+00
    0.5000000000E+04    0.5117776452E+00    0.5322226471E-01    0.3571223636E-03    0.1353277883E+00    0.6254548774E+00
    0.7000000000E+04    0.5189414464E+00    0.5323690532E-01    0.2808001580E-03    0.1372941890E+00    0.6274896409E+00
    0.9000000000E+04    0.5229954135E+00    0.5321644455E-01    0.2367734473E-03    0.1384226578E+00    0.6286566285E+00
    0.1100000000E+05    0.5256005520E+00    0.5318521216E-01    0.2076739009E-03    0.1391579172E+00    0.6294208589E+00
    0.1300000000E+05    0.5274142091E+00    0.5315097920E-01    0.1867625120E-03    0.1396768374E+00    0.6299643021E+00
    0.1500000000E+05    0.5287485216E+00    0.5311662792E-01    0.1708652183E-03    0.1400638108E+00    0.6303730968E+00
    0.1700000000E+05    0.5297706767E+00    0.5308328922E-01    0.1582828046E-03    0.1403642562E+00    0.6306934259E+00
    0.1900000000E+05    0.5305782754E+00    0.5305138884E-01    0.1480188302E-03    0.1406048138E+00    0.6309523394E+00
    0.2100000000E+05    0.5312321116E+00    0.5302104847E-01    0.1394477426E-03    0.1408021559E+00    0.6311667667E+00
    0.2300000000E+05    0.5317720211E+00    0.5299225485E-01    0.1321554845E-03    0.1409672578E+00    0.6313478647E+00
    0.2500000000E+05    0.5322251921E+00    0.5296493602E-01    0.1258561579E-03    0.1411076457E+00    0.6315032963E+00
    0.2700000000E+05    0.5326108127E+00    0.5293899697E-01    0.1203454253E-03    0.1412286554E+00    0.6316385069E+00
    0.2900000000E+05    0.5329428100E+00    0.5291433682E-01    0.1154729901E-03    0.1413341780E+00    0.6317574772E+00
    0.3100000000E+05    0.5332315365E+00    0.5289085687E-01    0.1111255927E-03    0.1414271190E+00    0.6318631880E+00
    0.3300000000E+05    0.5334848466E+00    0.5286846432E-01    0.1072160958E-03    0.1415096929E+00    0.6319579180E+00
    0.3500000000E+05    0.5337088069E+00    0.5284707364E-01    0.1036762473E-03    0.1415836180E+00    0.6320434409E+00
    0.3700000000E+05    0.5339081768E+00    0.5282660688E-01    0.1004517432E-03    0.1416502487E+00    0.6321211590E+00
    0.3900000000E+05    0.5340867423E+00    0.5280699340E-01    0.9749877767E-04    0.1417106669E+00    0.6321921965E+00
    0.4100000000E+05    0.5342475526E+00    0.5278816937E-01    0.9478157873E-04    0.1417657482E+00    0.6322574661E+00
    0.4300000000E+05    0.5343930907E+00    0.5277007714E-01    0.9227061388E-04    0.1418162087E+00    0.6323177169E+00
    0.4500000000E+05    0.5345253987E+00    0.5275266464E-01    0.8994126138E-04    0.1418626401E+00    0.6323735697E+00
    0.4700000000E+05    0.5346461717E+00    0.5273588480E-01    0.8777281096E-04    0.1419055355E+00    0.6324255441E+00
    0.4900000000E+05    0.5347568281E+00    0.5271969495E-01    0.8574770169E-04    0.1419453098E+00    0.6324740784E+00
    0.1000000000E+05    0.5244259606E+00    0.5320150977E-01    0.2209041115E-03    0.1388251626E+00    0.6290743614E+00
    0.3000000000E+05    0.5330920423E+00    0.5290245528E-01    0.1132396214E-03    0.1413820692E+00    0.6318118339E+00
    0.5000000000E+05    0.5348087438E+00    0.5271180905E-01    0.8478412574E-04    0.1419641383E+00    0.6324971741E+00
    0.7000000000E+05    0.5355270969E+00    0.5257735266E-01    0.7032808331E-04    0.1422393490E+00    0.6328451849E+00
    0.9000000000E+05    0.5359154637E+00    0.5247380867E-01    0.6124022178E-04    0.1424060408E+00    0.6330680075E+00
    0.1100000000E+06    0.5361555002E+00    0.5238968844E-01    0.5486577187E-04    0.1425207664E+00    0.6332283681E+00
    0.1300000000E+06    0.5363166492E+00    0.5231888152E-01    0.5008346471E-04    0.1426061317E+00    0.6333521596E+00
    0.1500000000E+06    0.5364310834E+00    0.5225776253E-01    0.4632804832E-04    0.1426730675E+00    0.6334522679E+00
    0.1700000000E+06    0.5365157018E+00    0.5220400709E-01    0.4327989739E-04    0.1427275574E+00    0.6335359328E+00
    0.1900000000E+06    0.5365802067E+00    0.5215603661E-01    0.4074301057E-04    0.1427731777E+00    0.6336075852E+00
    0.2100000000E+06    0.5366305528E+00    0.5211273038E-01    0.3858969491E-04    0.1428122109E+00    0.6336701154E+00
    0.2300000000E+06    0.5366705889E+00    0.5207326426E-01    0.3673275575E-04    0.1428461901E+00    0.6337255036E+00
    0.2500000000E+06    0.5367029084E+00    0.5203701458E-01    0.3511037099E-04    0.1428761879E+00    0.6337751613E+00
    0.2700000000E+06    0.5367293193E+00    0.5200349805E-01    0.3367733746E-04    0.1429029801E+00    0.6338201267E+00
    0.2900000000E+06    0.5367511185E+00    0.5197233258E-01    0.3239974348E-04    0.1429271435E+00    0.6338611846E+00
    0.3100000000E+06    0.5367692587E+00    0.5194321091E-01    0.3125158861E-04    0.1429491176E+00    0.6338989416E+00
    0.3300000000E+06    0.5367844549E+00    0.5191588226E-01    0.3021256215E-04    0.1429692437E+00    0.6339338752E+00
    0.3500000000E+06    0.5367972529E+00    0.5189013928E-01    0.2926653872E-04    0.1429877914E+00    0.6339663682E+00
    0.3700000000E+06    0.5368080762E+00    0.5186580860E-01    0.2840053270E-04    0.1430049776E+00    0.6339967316E+00
    0.3900000000E+06    0.5368172579E+00    0.5184274378E-01    0.2760395482E-04    0.1430209784E+00    0.6340252212E+00
    0.4100000000E+06    0.5368250636E+00    0.5182082001E-01    0.2686807292E-04    0.1430359389E+00    0.6340520502E+00
    0.4300000000E+06    0.5368317069E+00    0.5179993007E-01    0.2618561389E-04    0.1430499800E+00    0.6340773976E+00
    0.4500000000E+06    0.5368373616E+00    0.5177998113E-01    0.2555046500E-04    0.1430632030E+00    0.6341014155E+00
    0.4700000000E+06    0.5368421704E+00    0.5176089234E-01    0.2495744663E-04    0.1430756940E+00    0.6341242339E+00
    0.4900000000E+06    0.5368462513E+00    0.5174259283E-01    0.2440213714E-04    0.1430875265E+00    0.6341459649E+00
    0.1000000000E+06    0.5360483709E+00    0.5242978184E-01    0.5780294993E-04    0.1424680801E+00    0.6331539283E+00
    0.3000000000E+06    0.5367605966E+00    0.5195753310E-01    0.3181086857E-04    0.1429383810E+00    0.6338804433E+00
    0.5000000000E+06    0.5368480503E+00    0.5173371923E-01    0.2413741446E-04    0.1430932159E+00    0.6341564535E+00
    0.7000000000E+06    0.5368628400E+00    0.5158577827E-01    0.2012940311E-04    0.1431840072E+00    0.6343271889E+00
    0.9000000000E+06    0.5368585160E+00    0.5147516769E-01    0.1757779088E-04    0.1432478073E+00    0.6344506739E+00
    0.1100000000E+07    0.5368477850E+00    0.5138682810E-01    0.1577522105E-04    0.1432968535E+00    0.6345473328E+00
    0.1300000000E+07    0.5368348257E+00    0.5131329561E-01    0.1441671082E-04    0.1433366356E+00    0.6346267093E+00
    0.1500000000E+07    0.5368212612E+00    0.5125032314E-01    0.1334655765E-04    0.1433700734E+00    0.6346940280E+00
    0.1700000000E+07    0.5368077787E+00    0.5119526250E-01    0.1247596333E-04    0.1433988998E+00    0.6347524579E+00
    0.1900000000E+07    0.5367946765E+00    0.5114635086E-01    0.1175013887E-04    0.1434242259E+00    0.6348040650E+00
    0.2100000000E+07    0.5367820777E+00    0.5110235545E-01    0.1113322410E-04    0.1434468057E+00    0.6348502712E+00
    0.2300000000E+07    0.5367700225E+00    0.5106238042E-01    0.1060064358E-04    0.1434671739E+00    0.6348920960E+00
    0.2500000000E+07    0.5367585109E+00    0.5102575422E-01    0.1013492272E-04    0.1434857235E+00    0.6349302957E+00
    0.2700000000E+07    0.5367475236E+00    0.5099196055E-01    0.9723254352E-05    0.1435027515E+00    0.6349654464E+00
    0.2900000000E+07    0.5367370328E+00    0.5096059388E-01    0.9356011660E-05    0.1435184879E+00    0.6349979974E+00
    0.3100000000E+07    0.5367270075E+00    0.5093132992E-01    0.9025801498E-05    0.1435331142E+00    0.6350283054E+00
    0.3300000000E+07    0.5367174162E+00    0.5090390525E-01    0.8726840462E-05    0.1435467763E+00    0.6350566585E+00
    0.3500000000E+07    0.5367082289E+00    0.5087810301E-01    0.8454531343E-05    0.1435595931E+00    0.6350832929E+00
    0.3700000000E+07    0.5366994170E+00    0.5085374251E-01    0.8205168140E-05    0.1435716630E+00    0.6351084042E+00
    0.3900000000E+07    0.5366909541E+00    0.5083067166E-01    0.7975725949E-05    0.1435830680E+00    0.6351321566E+00
    0.4100000000E+07    0.5366828161E+00    0.5080876119E-01    0.7763708331E-05    0.1435938773E+00    0.6351546892E+00
    0.4300000000E+07    0.5366749805E+00    0.5078790032E-01    0.7567034453E-05    0.1436041501E+00    0.6351761208E+00
    0.4500000000E+07    0.5366674272E+00    0.5076799341E-01    0.7383954328E-05    0.1436139370E+00    0.6351965534E+00
    0.4700000000E+07    0.5366601374E+00    0.5074895729E-01    0.7212984239E-05    0.1436232818E+00    0.6352160759E+00
    0.4900000000E+07    0.5366530944E+00    0.5073071924E-01    0.7052856916E-05    0.1436322226E+00    0.6352347654E+00
    0.1000000000E+07    0.5368535971E+00    0.5142878568E-01    0.1660702120E-04    0.1432737449E+00    0.6345016163E+00
    0.3000000000E+07    0.5367319639E+00    0.5094571676E-01    0.9186670976E-05    0.1435259300E+00    0.6350134124E+00
    0.5000000000E+07    0.5366496605E+00    0.5072187918E-01    0.6976512704E-05    0.1436365521E+00    0.6352438195E+00
    0.7000000000E+07    0.5365908134E+00    0.5057481370E-01    0.5819934852E-05    0.1437082431E+00    0.6353940322E+00
    0.9000000000E+07    0.5365451645E+00    0.5046517939E-01    0.5083031229E-05    0.1437613672E+00    0.6355055985E+00
    0.1100000000E+08    0.5365078988E+00    0.5037777280E-01    0.4562220128E-05    0.1438035857E+00    0.6355943519E+00
    0.1300000000E+08    0.5364764183E+00    0.5030510227E-01    0.4169601345E-05    0.1438386211E+00    0.6356680364E+00
    0.1500000000E+08    0.5364491679E+00    0.5024292048E-01    0.3860261780E-05    0.1438685654E+00    0.6357310221E+00
    0.1700000000E+08    0.5364251448E+00    0.5018858587E-01    0.3608573057E-05    0.1438947119E+00    0.6357860178E+00
    0.1900000000E+08    0.5364036645E+00    0.5014034332E-01    0.3398716172E-05    0.1439179163E+00    0.6358348190E+00
    0.2100000000E+08    0.5363842397E+00    0.5009696729E-01    0.3220334368E-05    0.1439387743E+00    0.6358786772E+00
    0.2300000000E+08    0.5363665106E+00    0.5005756813E-01    0.3066328447E-05    0.1439577170E+00    0.6359184994E+00
    0.2500000000E+08    0.5363502046E+00    0.5002147967E-01    0.2931649572E-05    0.1439750669E+00    0.6359549642E+00
    0.2700000000E+08    0.5363351098E+00    0.4998819008E-01    0.2812596909E-05    0.1439910711E+00    0.6359885923E+00
