  Pressure (Pa) 22mC5-400 (mol/kg) 3mC6-400 (mol/kg) 33mC5-400 (mol/kg) 23mC5-400 (mol/kg) C7-400 (mol/kg)
    0.1000000000E+01    0.2123474321E-02    0.1566307577E-02    0.3211197834E-03    0.9321461282E-04    0.1186163214E-01
    0.3000000000E+01    0.6325114146E-02    0.4517852728E-02    0.9289974053E-03    0.2776566280E-03    0.3422018841E-01
    0.5000000000E+01    0.1046746109E-01    0.7250380199E-02    0.1495211697E-02    0.4594980898E-03    0.5492776475E-01
    0.7000000000E+01    0.1455182289E-01    0.9787410853E-02    0.2024113168E-02    0.6387963397E-03    0.7416137847E-01
    0.9000000000E+01    0.1857946865E-01    0.1214921329E-01    0.2519443596E-02    0.8156070270E-03    0.9207358984E-01
    0.1100000000E+02    0.2255163033E-01    0.1435334715E-01    0.2984439377E-02    0.9899841703E-03    0.1087965860E+00
    0.1300000000E+02    0.2646950401E-01    0.1641510110E-01    0.3421914566E-02    0.1161980217E-02    0.1244454731E+00
    0.1500000000E+02    0.3033425125E-01    0.1834784842E-01    0.3834328118E-02    0.1331646100E-02    0.1391209493E+00
    0.1700000000E+02    0.3414700029E-01    0.2016333787E-01    0.4223838714E-02    0.1499031292E-02    0.1529114921E+00
    0.1900000000E+02    0.3790884722E-01    0.2187193312E-01    0.4592349749E-02    0.1664183855E-02    0.1658951579E+00
    0.2100000000E+02    0.4162085715E-01    0.2348281104E-01    0.4941546488E-02    0.1827150494E-02    0.1781410733E+00
    0.2300000000E+02    0.4528406528E-01    0.2500412681E-01    0.5272926912E-02    0.1987976602E-02    0.1897106768E+00
    0.2500000000E+02    0.4889947793E-01    0.2644315234E-01    0.5587827494E-02    0.2146706307E-02    0.2006587596E+00
    0.2700000000E+02    0.5246807356E-01    0.2780639268E-01    0.5887444815E-02    0.2303382512E-02    0.2110343410E+00
    0.2900000000E+02    0.5599080369E-01    0.2909968452E-01    0.6172853804E-02    0.2458046942E-02    0.2208814098E+00
    0.3100000000E+02    0.5946859386E-01    0.3032827988E-01    0.6445023192E-02    0.2610740184E-02    0.2302395532E+00
    0.3300000000E+02    0.6290234448E-01    0.3149691758E-01    0.6704828664E-02    0.2761501720E-02    0.2391444947E+00
    0.3500000000E+02    0.6629293172E-01    0.3260988440E-01    0.6953064090E-02    0.2910369971E-02    0.2476285546E+00
    0.3700000000E+02    0.6964120825E-01    0.3367106777E-01    0.7190451170E-02    0.3057382326E-02    0.2557210455E+00
    0.3900000000E+02    0.7294800407E-01    0.3468400120E-01    0.7417647731E-02    0.3202575184E-02    0.2634486152E+00
    0.4100000000E+02    0.7621412727E-01    0.3565190366E-01    0.7635254905E-02    0.3345983977E-02    0.2708355425E+00
    0.4300000000E+02    0.7944036470E-01    0.3657771386E-01    0.7843823345E-02    0.3487643213E-02    0.2779039950E+00
    0.4500000000E+02    0.8262748271E-01    0.3746412009E-01    0.8043858639E-02    0.3627586495E-02    0.2846742540E+00
    0.4700000000E+02    0.8577622778E-01    0.3831358634E-01    0.8235826032E-02    0.3765846558E-02    0.2911649111E+00
    0.4900000000E+02    0.8888732717E-01    0.3912837523E-01    0.8420154565E-02    0.3902455294E-02    0.2973930406E+00
    0.1000000000E+02    0.2057240942E-01    0.1326998455E-01    0.2755548397E-02    0.9030964775E-03    0.1005761794E+00
    0.3000000000E+02    0.5773525941E-01    0.2972176181E-01    0.6310536677E-02    0.2534637469E-02    0.2256192796E+00
    0.5000000000E+02    0.9042898190E-01    0.3952342268E-01    0.8509579335E-02    0.3970150157E-02    0.3004136161E+00
    0.7000000000E+02    0.1194490782E+00    0.4602994639E-01    0.9979086922E-02    0.5244518205E-02    0.3502594556E+00
    0.9000000000E+02    0.1454101528E+00    0.5066381362E-01    0.1099668329E-01    0.6384693758E-02    0.3858983671E+00
    0.1100000000E+03    0.1687946322E+00    0.5413145612E-01    0.1170975875E-01    0.7411833363E-02    0.4126719731E+00
    0.1300000000E+03    0.1899865844E+00    0.5682353724E-01    0.1220648890E-01    0.8342780730E-02    0.4335381910E+00
    0.1500000000E+03    0.2092956820E+00    0.5897369341E-01    0.1254410741E-01    0.9191117348E-02    0.4502683692E+00
    0.1700000000E+03    0.2269744930E+00    0.6073024877E-01    0.1276194556E-01    0.9967920649E-02    0.4639885524E+00
    0.1900000000E+03    0.2432311672E+00    0.6219190975E-01    0.1288816021E-01    0.1068232023E-01    0.4754491003E+00
    0.2100000000E+03    0.2582388824E+00    0.6342691827E-01    0.1294352286E-01    0.1134191203E-01    0.4851694770E+00
    0.2300000000E+03    0.2721429747E+00    0.6448396678E-01    0.1294370662E-01    0.1195307107E-01    0.4935208298E+00
    0.2500000000E+03    0.2850663891E+00    0.6539873305E-01    0.1290074451E-01    0.1252119033E-01    0.5007754674E+00
    0.2700000000E+03    0.2971138931E+00    0.6619795730E-01    0.1282400103E-01    0.1305086565E-01    0.5071377553E+00
    0.2900000000E+03    0.3083753689E+00    0.6690207665E-01    0.1272084293E-01    0.1354603999E-01    0.5127640950E+00
    0.3100000000E+03    0.3189284113E+00    0.6752697930E-01    0.1259711554E-01    0.1401011743E-01    0.5177762377E+00
    0.3300000000E+03    0.3288403960E+00    0.6808520372E-01    0.1245748932E-01    0.1444605383E-01    0.5222703930E+00
    0.3500000000E+03    0.3381701405E+00    0.6858677726E-01    0.1230571669E-01    0.1485642969E-01    0.5263236044E+00
    0.3700000000E+03    0.3469692485E+00    0.6903981493E-01    0.1214482572E-01    0.1524350907E-01    0.5299983047E+00
    0.3900000000E+03    0.3552832058E+00    0.6945095448E-01    0.1197726812E-01    0.1560928773E-01    0.5333456286E+00
    0.4100000000E+03    0.3631522809E+00    0.6982567792E-01    0.1180503364E-01    0.1595553254E-01    0.5364078632E+00
    0.4300000000E+03    0.3706122681E+00    0.7016855252E-01    0.1162973952E-01    0.1628381413E-01    0.5392202859E+00
    0.4500000000E+03    0.3776951065E+00    0.7048341394E-01    0.1145270098E-01    0.1659553400E-01    0.5418125619E+00
    0.4700000000E+03    0.3844293969E+00    0.7077350704E-01    0.1127498718E-01    0.1689194723E-01    0.5442098198E+00
    0.4900000000E+03    0.3908408373E+00    0.7104159535E-01    0.1109746607E-01    0.1717418154E-01    0.5464334888E+00
    0.1000000000E+03    0.1573984770E+00    0.5251408069E-01    0.1138482814E-01    0.6911253255E-02    0.4001713317E+00
    0.3000000000E+03    0.3137360150E+00    0.6722357914E-01    0.1266123433E-01    0.1378177151E-01    0.5153404147E+00
    0.5000000000E+03    0.3939328172E+00    0.7116814125E-01    0.1100900301E-01    0.1731030321E-01    0.5474860774E+00
    0.7000000000E+03    0.4433964847E+00    0.7297263746E-01    0.9360197074E-02    0.1948907706E-01    0.5627621224E+00
    0.9000000000E+03    0.4770743103E+00    0.7399374748E-01    0.8020716700E-02    0.2097415311E-01    0.5717391771E+00
    0.1100000000E+04    0.5014950052E+00    0.7464314283E-01    0.6966077615E-02    0.2205219869E-01    0.5776696807E+00
    0.1300000000E+04    0.5200057606E+00    0.7508790089E-01    0.6132948292E-02    0.2287024173E-01    0.5818911740E+00
    0.1500000000E+04    0.5345104858E+00    0.7540849194E-01    0.5466560025E-02    0.2351194502E-01    0.5850561760E+00
    0.1700000000E+04    0.5461747961E+00    0.7564836866E-01    0.4925752324E-02    0.2402854822E-01    0.5875215045E+00
    0.1900000000E+04    0.5557528972E+00    0.7583300706E-01    0.4480550768E-02    0.2445321818E-01    0.5894989833E+00
    0.2100000000E+04    0.5637544529E+00    0.7597830264E-01    0.4109153099E-02    0.2480837618E-01    0.5911224249E+00
    0.2300000000E+04    0.5705362020E+00    0.7609466910E-01    0.3795553583E-02    0.2510972180E-01    0.5924805840E+00
    0.2500000000E+04    0.5763552325E+00    0.7618920251E-01    0.3527848803E-02    0.2536857332E-01    0.5936346903E+00
    0.2700000000E+04    0.5814014377E+00    0.7626689739E-01    0.3297061935E-02    0.2559329386E-01    0.5946283751E+00
    0.2900000000E+04    0.5858180715E+00    0.7633136581E-01    0.3096329128E-02    0.2579019479E-01    0.5954935863E+00
    0.3100000000E+04    0.5897152018E+00    0.7638528110E-01    0.2920332518E-02    0.2596412721E-01    0.5962542638E+00
    0.3300000000E+04    0.5931787672E+00    0.7643066147E-01    0.2764900730E-02    0.2611888012E-01    0.5969287081E+00
    0.3500000000E+04    0.5962768268E+00    0.7646905716E-01    0.2626723820E-02    0.2625745532E-01    0.5975311532E+00
    0.3700000000E+04    0.5990639656E+00    0.7650167717E-01    0.2503147196E-02    0.2638226123E-01    0.5980728407E+00
    0.3900000000E+04    0.6015844625E+00    0.7652947707E-01    0.2392020726E-02    0.2649525224E-01    0.5985627692E+00
    0.4100000000E+04    0.6038746050E+00    0.7655322128E-01    0.2291586877E-02    0.2659803060E-01    0.5990082293E+00
    0.4300000000E+04    0.6059644094E+00    0.7657352784E-01    0.2200396806E-02    0.2669192217E-01    0.5994151922E+00
    0.4500000000E+04    0.6078789150E+00    0.7659090133E-01    0.2117246723E-02    0.2677803334E-01    0.5997885960E+00
    0.4700000000E+04    0.6096391717E+00    0.7660575731E-01    0.2041129112E-02    0.2685729460E-01    0.6001325610E+00
    0.4900000000E+04    0.6112630019E+00    0.7661844077E-01    0.1971194987E-02    0.2693049404E-01    0.6004505531E+00
    0.1000000000E+04    0.4901861621E+00    0.7435146819E-01    0.7461768222E-02    0.2155282692E-01    0.5749780126E+00
    0.3000000000E+04    0.5878257220E+00    0.7635950366E-01    0.3005522583E-02    0.2587977406E-01    0.5958857373E+00
    0.5000000000E+04    0.6120285928E+00    0.7662405986E-01    0.1938317378E-02    0.2696503449E-01    0.6006007449E+00
    0.7000000000E+04    0.6229037552E+00    0.7667250926E-01    0.1477422271E-02    0.2745825598E-01    0.6027639553E+00
    0.9000000000E+04    0.6290666524E+00    0.7666247596E-01    0.1219957471E-02    0.2774091628E-01    0.6040332204E+00
    0.1100000000E+05    0.6330302384E+00    0.7663228993E-01    0.1054298251E-02    0.2792473556E-01    0.6048803788E+00
    0.1300000000E+05    0.6357919715E+00    0.7659478801E-01    0.9378432904E-03    0.2805423259E-01    0.6054927365E+00
    0.1500000000E+05    0.6378258639E+00    0.7655504565E-01    0.8508963983E-03    0.2815064541E-01    0.6059600494E+00
    0.1700000000E+05    0.6393858185E+00    0.7651525682E-01    0.7831020808E-03    0.2822539373E-01    0.6063309627E+00
    0.1900000000E+05    0.6406200289E+00    0.7647640283E-01    0.7284889366E-03    0.2828516818E-01    0.6066342484E+00
    0.2100000000E+05    0.6416207770E+00    0.7643891067E-01    0.6833653496E-03    0.2833415092E-01    0.6068880750E+00
    0.2300000000E+05    0.6424485165E+00    0.7640294029E-01    0.6453216613E-03    0.2837509199E-01    0.6071045155E+00
    0.2500000000E+05    0.6431444990E+00    0.7636851941E-01    0.6127149532E-03    0.2840987499E-01    0.6072919263E+00
    0.2700000000E+05    0.6437378342E+00    0.7633561021E-01    0.5843843726E-03    0.2843983409E-01    0.6074562885E+00
    0.2900000000E+05    0.6442496489E+00    0.7630414365E-01    0.5594849125E-03    0.2846594121E-01    0.6076020042E+00
    0.3100000000E+05    0.6446956472E+00    0.7627403748E-01    0.5373857957E-03    0.2848892147E-01    0.6077323912E+00
    0.3300000000E+05    0.6450877448E+00    0.7624520583E-01    0.5176059006E-03    0.2850932710E-01    0.6078500013E+00
    0.3500000000E+05    0.6454351459E+00    0.7621756422E-01    0.4997713400E-03    0.2852758627E-01    0.6079568323E+00
    0.3700000000E+05    0.6457450727E+00    0.7619103213E-01    0.4835867818E-03    0.2854403616E-01    0.6080544725E+00
    0.3900000000E+05    0.6460232717E+00    0.7616553414E-01    0.4688155684E-03    0.2855894605E-01    0.6081442020E+00
    0.4100000000E+05    0.6462743719E+00    0.7614100036E-01    0.4552656252E-03    0.2857253364E-01    0.6082270653E+00
    0.4300000000E+05    0.6465021441E+00    0.7611736639E-01    0.4427792766E-03    0.2858497693E-01    0.6083039238E+00
    0.4500000000E+05    0.6467096906E+00    0.7609457311E-01    0.4312257540E-03    0.2859642288E-01    0.6083754951E+00
    0.4700000000E+05    0.6468995872E+00    0.7607256634E-01    0.4204955972E-03    0.2860699395E-01    0.6084423820E+00
    0.4900000000E+05    0.6470739904E+00    0.7605129644E-01    0.4104964113E-03    0.2861679306E-01    0.6085050954E+00
    0.1000000000E+05    0.6312427730E+00    0.7664881798E-01    0.1129122490E-02    0.2784158796E-01    0.6044944554E+00
    0.3000000000E+05    0.6444800563E+00    0.7628892587E-01    0.5481183089E-03    0.2847778430E-01    0.6076689392E+00
    0.5000000000E+05    0.6471559618E+00    0.7604092345E-01    0.4057459074E-03    0.2862143087E-01    0.6085350258E+00
    0.7000000000E+05    0.6483034133E+00    0.7586294528E-01    0.3350092991E-03    0.2868915181E-01    0.6089931695E+00
    0.9000000000E+05    0.6489402882E+00    0.7572469349E-01    0.2910084081E-03    0.2873010856E-01    0.6092938724E+00
    0.1100000000E+06    0.6493449501E+00    0.7561176680E-01    0.2603332299E-03    0.2875827209E-01    0.6095138976E+00
    0.1300000000E+06    0.6496245749E+00    0.7551635156E-01    0.2374104030E-03    0.2877921614E-01    0.6096857512E+00
    0.1500000000E+06    0.6498292005E+00    0.7543375675E-01    0.2194589225E-03    0.2879563220E-01    0.6098259310E+00
    0.1700000000E+06    0.6499853209E+00    0.7536095039E-01    0.2049173552E-03    0.2880899225E-01    0.6099438538E+00
    0.1900000000E+06    0.6501082744E+00    0.7529586112E-01    0.1928331468E-03    0.2882017540E-01    0.6100453580E+00
    0.2100000000E+06    0.6502075544E+00    0.7523701162E-01    0.1825881631E-03    0.2882974245E-01    0.6101342933E+00
    0.2300000000E+06    0.6502893508E+00    0.7518331148E-01    0.1737616201E-03    0.2883806985E-01    0.6102133222E+00
    0.2500000000E+06    0.6503578711E+00    0.7513393301E-01    0.1660559199E-03    0.2884542092E-01    0.6102843571E+00
    0.2700000000E+06    0.6504160752E+00    0.7508823318E-01    0.1592539088E-03    0.2885198602E-01    0.6103488149E+00
    0.2900000000E+06    0.6504661055E+00    0.7504570247E-01    0.1531929546E-03    0.2885790672E-01    0.6104077727E+00
    0.3100000000E+06    0.6505095509E+00    0.7500593035E-01    0.1477485449E-03    0.2886329078E-01    0.6104620676E+00
    0.3300000000E+06    0.6505476143E+00    0.7496858117E-01    0.1428235345E-03    0.2886822190E-01    0.6105123618E+00
    0.3500000000E+06    0.6505812232E+00    0.7493337703E-01    0.1383408783E-03    0.2887276625E-01    0.6105591881E+00
    0.3700000000E+06    0.6506111043E+00    0.7490008523E-01    0.1342385902E-03    0.2887697694E-01    0.6106029810E+00
    0.3900000000E+06    0.6506378348E+00    0.7486850898E-01    0.1304661638E-03    0.2888089717E-01    0.6106440995E+00
    0.4100000000E+06    0.6506618789E+00    0.7483848036E-01    0.1269819806E-03    0.2888456251E-01    0.6106828432E+00
    0.4300000000E+06    0.6506836143E+00    0.7480985498E-01    0.1237513981E-03    0.2888800257E-01    0.6107194647E+00
    0.4500000000E+06    0.6507033514E+00    0.7478250771E-01    0.1207453175E-03    0.2889124221E-01    0.6107541789E+00
    0.4700000000E+06    0.6507213474E+00    0.7475632947E-01    0.1179390948E-03    0.2889430251E-01    0.6107871701E+00
    0.4900000000E+06    0.6507378175E+00    0.7473122456E-01    0.1153117019E-03    0.2889720149E-01    0.6108185972E+00
    0.1000000000E+06    0.6491629391E+00    0.7566565187E-01    0.2744495562E-03    0.2874534074E-01    0.6094113896E+00
    0.3000000000E+06    0.6504885686E+00    0.7502549409E-01    0.1504002963E-03    0.2886066012E-01    0.6104354582E+00
    0.5000000000E+06    0.6507455382E+00    0.7471904783E-01    0.1140593203E-03    0.2889859541E-01    0.6108337683E+00
    0.7000000000E+06    0.6508518136E+00    0.7451575537E-01    0.9510677939E-04    0.2892084025E-01    0.6110808395E+00
    0.9000000000E+06    0.6509085956E+00    0.7436344772E-01    0.8304840965E-04    0.2893647330E-01    0.6112594858E+00
    0.1100000000E+07    0.6509432389E+00    0.7424163871E-01    0.7453243237E-04    0.2894849220E-01    0.6113991809E+00
    0.1300000000E+07    0.6509661631E+00    0.7414014422E-01    0.6811542857E-04    0.2895824166E-01    0.6115137631E+00
    0.1500000000E+07    0.6509821814E+00    0.7405315719E-01    0.6306099642E-04    0.2896643685E-01    0.6116108252E+00
    0.1700000000E+07    0.6509938143E+00    0.7397705109E-01    0.5894934417E-04    0.2897350228E-01    0.6116949773E+00
    0.1900000000E+07    0.6510025052E+00    0.7390940883E-01    0.5552153501E-04    0.2897971009E-01    0.6117692265E+00
    0.2100000000E+07    0.6510091369E+00    0.7384853844E-01    0.5260812699E-04    0.2898524497E-01    0.6118356416E+00
    0.2300000000E+07    0.6510142786E+00    0.7379320928E-01    0.5009301738E-04    0.2899023797E-01    0.6118957065E+00
    0.2500000000E+07    0.6510183123E+00    0.7374249824E-01    0.4789365998E-04    0.2899478533E-01    0.6119505211E+00
    0.2700000000E+07    0.6510215036E+00    0.7369569511E-01    0.4594956186E-04    0.2899895983E-01    0.6120009229E+00
    0.2900000000E+07    0.6510240423E+00    0.7365224179E-01    0.4421525528E-04    0.2900281779E-01    0.6120475648E+00
    0.3100000000E+07    0.6510260672E+00    0.7361169175E-01    0.4265582409E-04    0.2900640371E-01    0.6120909649E+00
    0.3300000000E+07    0.6510276822E+00    0.7357368211E-01    0.4124395578E-04    0.2900975334E-01    0.6121315414E+00
    0.3500000000E+07    0.6510289662E+00    0.7353791402E-01    0.3995794047E-04    0.2901289581E-01    0.6121696370E+00
    0.3700000000E+07    0.6510299802E+00    0.7350413840E-01    0.3878027741E-04    0.2901585520E-01    0.6122055354E+00
    0.3900000000E+07    0.6510307721E+00    0.7347214550E-01    0.3769668247E-04    0.2901865164E-01    0.6122394746E+00
    0.4100000000E+07    0.6510313796E+00    0.7344175699E-01    0.3669536726E-04    0.2902130209E-01    0.6122716560E+00
    0.4300000000E+07    0.6510318331E+00    0.7341282003E-01    0.3576650603E-04    0.2902382103E-01    0.6123022515E+00
    0.4500000000E+07    0.6510321572E+00    0.7338520261E-01    0.3490183538E-04    0.2902622086E-01    0.6123314091E+00
    0.4700000000E+07    0.6510323719E+00    0.7335878994E-01    0.3409434929E-04    0.2902851233E-01    0.6123592571E+00
    0.4900000000E+07    0.6510324938E+00    0.7333348156E-01    0.3333806382E-04    0.2903070478E-01    0.6123859072E+00
    0.1000000000E+07    0.6509278358E+00    0.7429951035E-01    0.7846192329E-04    0.2894282925E-01    0.6113331297E+00
    0.3000000000E+07    0.6510251118E+00    0.7363162824E-01    0.4341553844E-04    0.2900464235E-01    0.6120696419E+00
    0.5000000000E+07    0.6510325243E+00    0.7332121344E-01    0.3297748478E-04    0.2903176648E-01    0.6123988142E+00
    0.7000000000E+07    0.6510306008E+00    0.7311702304E-01    0.2751457176E-04    0.2904934791E-01    0.6126126354E+00
    0.9000000000E+07    0.6510266758E+00    0.7296469590E-01    0.2403354050E-04    0.2906237758E-01    0.6127710815E+00
    0.1100000000E+08    0.6510223452E+00    0.7284319294E-01    0.2157307100E-04    0.2907273341E-01    0.6128969255E+00
    0.1300000000E+08    0.6510180691E+00    0.7274213738E-01    0.1971807280E-04    0.2908132791E-01    0.6130012766E+00
    0.1500000000E+08    0.6510139905E+00    0.7265564237E-01    0.1825644088E-04    0.2908867396E-01    0.6130903907E+00
    0.1700000000E+08    0.6510101469E+00    0.7258004481E-01    0.1706713687E-04    0.2909508867E-01    0.6131681399E+00
    0.1900000000E+08    0.6510065380E+00    0.7251290990E-01    0.1607544653E-04    0.2910078185E-01    0.6132370871E+00
    0.2100000000E+08    0.6510031497E+00    0.7245253686E-01    0.1523245184E-04    0.2910589954E-01    0.6132990165E+00
    0.2300000000E+08    0.6509999637E+00    0.7239769081E-01    0.1450461971E-04    0.2911054749E-01    0.6133552204E+00
    0.2500000000E+08    0.6509969616E+00    0.7234744675E-01    0.1386810098E-04    0.2911480474E-01    0.6134066643E+00
    0.2700000000E+08    0.6509941258E+00    0.7230109388E-01    0.1330541335E-04    0.2911873193E-01    0.6134540889E+00
