  Pressure (Pa) 22mC5-400 (mol/kg) 3mC6-400 (mol/kg) 33mC5-400 (mol/kg) 23mC5-400 (mol/kg) C7-400 (mol/kg)
    0.1000000000E+01    0.2122295537E-02    0.1050380156E-02    0.1935143746E-03    0.5589775172E-03    0.8522453301E-02
    0.3000000000E+01    0.6314659885E-02    0.3063851772E-02    0.5644079078E-03    0.1663189047E-02    0.2486248885E-01
    0.5000000000E+01    0.1043884164E-01    0.4968782040E-02    0.9151666387E-03    0.2749458167E-02    0.4032593444E-01
    0.7000000000E+01    0.1449653363E-01    0.6773718463E-02    0.1247295488E-02    0.3818230226E-02    0.5498170893E-01
    0.9000000000E+01    0.1848937275E-01    0.8486333961E-02    0.1562148063E-02    0.4869935858E-02    0.6889168504E-01
    0.1100000000E+02    0.2241894223E-01    0.1011353594E-01    0.1860945547E-02    0.5904991585E-02    0.8211156760E-01
    0.1300000000E+02    0.2628677384E-01    0.1166155941E-01    0.2144792824E-02    0.6923800391E-02    0.9469164362E-01
    0.1500000000E+02    0.3009434997E-01    0.1313604689E-01    0.2414692277E-02    0.7926752263E-02    0.1066774255E+00
    0.1700000000E+02    0.3384310554E-01    0.1454211712E-01    0.2671555667E-02    0.8914224715E-02    0.1181102047E+00
    0.1900000000E+02    0.3753442995E-01    0.1588442446E-01    0.2916214380E-02    0.9886583278E-02    0.1290275301E+00
    0.2100000000E+02    0.4116966885E-01    0.1716721040E-01    0.3149428303E-02    0.1084418197E-01    0.1394636228E+00
    0.2300000000E+02    0.4475012580E-01    0.1839434831E-01    0.3371893541E-02    0.1178736376E-01    0.1494497371E+00
    0.2500000000E+02    0.4827706398E-01    0.1956938259E-01    0.3584249149E-02    0.1271646096E-01    0.1590144749E+00
    0.2700000000E+02    0.5175170768E-01    0.2069556279E-01    0.3787083013E-02    0.1363179568E-01    0.1681840616E+00
    0.2900000000E+02    0.5517524379E-01    0.2177587372E-01    0.3980937017E-02    0.1453368018E-01    0.1769825879E+00
    0.3100000000E+02    0.5854882325E-01    0.2281306182E-01    0.4166311586E-02    0.1542241728E-01    0.1854322229E+00
    0.3300000000E+02    0.6187356238E-01    0.2380965852E-01    0.4343669695E-02    0.1629830065E-01    0.1935534018E+00
    0.3500000000E+02    0.6515054416E-01    0.2476800085E-01    0.4513440413E-02    0.1716161524E-01    0.2013649926E+00
    0.3700000000E+02    0.6838081947E-01    0.2569024979E-01    0.4676022051E-02    0.1801263753E-01    0.2088844432E+00
    0.3900000000E+02    0.7156540829E-01    0.2657840651E-01    0.4831784955E-02    0.1885163588E-01    0.2161279126E+00
    0.4100000000E+02    0.7470530082E-01    0.2743432689E-01    0.4981073999E-02    0.1967887080E-01    0.2231103884E+00
    0.4300000000E+02    0.7780145854E-01    0.2825973444E-01    0.5124210810E-02    0.2049459527E-01    0.2298457902E+00
    0.4500000000E+02    0.8085481525E-01    0.2905623197E-01    0.5261495758E-02    0.2129905497E-01    0.2363470641E+00
    0.4700000000E+02    0.8386627809E-01    0.2982531188E-01    0.5393209748E-02    0.2209248857E-01    0.2426262654E+00
    0.4900000000E+02    0.8683672844E-01    0.3056836559E-01    0.5519615818E-02    0.2287512797E-01    0.2486946348E+00
    0.1000000000E+02    0.2046196927E-01    0.9310207187E-02    0.1713482082E-02    0.5389519463E-02    0.7558462611E-01
    0.3000000000E+02    0.5686820754E-01    0.2229969512E-01    0.4074654461E-02    0.1497967359E-01    0.1812497010E+00
    0.5000000000E+02    0.8830684256E-01    0.3093054190E-01    0.5580906058E-02    0.2326247052E-01    0.2516530642E+00
    0.7000000000E+02    0.1157522952E+00    0.3708122636E-01    0.6580496791E-02    0.3049428111E-01    0.3019633884E+00
    0.9000000000E+02    0.1399376474E+00    0.4168621091E-01    0.7254572512E-02    0.3686798873E-01    0.3397336027E+00
    0.1100000000E+03    0.1614250897E+00    0.4526280143E-01    0.7708201020E-02    0.4253151977E-01    0.3691488604E+00
    0.1300000000E+03    0.1806530897E+00    0.4812058081E-01    0.8007094416E-02    0.4760025124E-01    0.3927161378E+00
    0.1500000000E+03    0.1979687696E+00    0.5045617506E-01    0.8194632772E-02    0.5216552791E-01    0.4120291944E+00
    0.1700000000E+03    0.2136506250E+00    0.5240047354E-01    0.8300619389E-02    0.5630063886E-01    0.4281499551E+00
    0.1900000000E+03    0.2279247824E+00    0.5404398681E-01    0.8346158011E-02    0.6006509429E-01    0.4418134339E+00
    0.2100000000E+03    0.2409768385E+00    0.5545130579E-01    0.8346545474E-02    0.6350774033E-01    0.4535446489E+00
    0.2300000000E+03    0.2529606213E+00    0.5666976215E-01    0.8313075168E-02    0.6666906383E-01    0.4637286879E+00
    0.2500000000E+03    0.2640047662E+00    0.5773483331E-01    0.8254207688E-02    0.6958292262E-01    0.4726544620E+00
    0.2700000000E+03    0.2742177181E+00    0.5867363565E-01    0.8176356184E-02    0.7227786153E-01    0.4805429994E+00
    0.2900000000E+03    0.2836915830E+00    0.5950725100E-01    0.8084427765E-02    0.7477812569E-01    0.4875662993E+00
    0.3100000000E+03    0.2925051250E+00    0.6025231714E-01    0.7982205356E-02    0.7710444923E-01    0.4938602295E+00
    0.3300000000E+03    0.3007261242E+00    0.6092214036E-01    0.7872622247E-02    0.7927467560E-01    0.4995335518E+00
    0.3500000000E+03    0.3084132481E+00    0.6152748965E-01    0.7757962774E-02    0.8130425004E-01    0.5046743702E+00
    0.3700000000E+03    0.3156175511E+00    0.6207717400E-01    0.7640011096E-02    0.8320661407E-01    0.5093548199E+00
    0.3900000000E+03    0.3223836845E+00    0.6257846895E-01    0.7520162858E-02    0.8499352397E-01    0.5136345332E+00
    0.4100000000E+03    0.3287508816E+00    0.6303743634E-01    0.7399509911E-02    0.8667531000E-01    0.5175632401E+00
    0.4300000000E+03    0.3347537648E+00    0.6345916723E-01    0.7278905191E-02    0.8826108877E-01    0.5211827448E+00
    0.4500000000E+03    0.3404230115E+00    0.6384796879E-01    0.7159012840E-02    0.8975893848E-01    0.5245284469E+00
    0.4700000000E+03    0.3457859069E+00    0.6420750950E-01    0.7040347199E-02    0.9117604438E-01    0.5276305241E+00
    0.4900000000E+03    0.3508668054E+00    0.6454093333E-01    0.6923303351E-02    0.9251882025E-01    0.5305148630E+00
    0.1000000000E+03    0.1509887398E+00    0.4358027675E-01    0.7504169506E-02    0.3978066721E-01    0.3553011947E+00
    0.3000000000E+03    0.2881764247E+00    0.5988995356E-01    0.8034402714E-02    0.7596185338E-01    0.4907970885E+00
    0.5000000000E+03    0.3533084118E+00    0.6469871314E-01    0.6865486485E-02    0.9316415320E-01    0.5318824813E+00
    0.7000000000E+03    0.3915904465E+00    0.6697844080E-01    0.5834424930E-02    0.1032891359E+00    0.5518921155E+00
    0.9000000000E+03    0.4168127441E+00    0.6829749702E-01    0.5042195362E-02    0.1099692545E+00    0.5637838737E+00
    0.1100000000E+04    0.4346785836E+00    0.6915093766E-01    0.4437079446E-02    0.1147075337E+00    0.5716875931E+00
    0.1300000000E+04    0.4479891258E+00    0.6974424739E-01    0.3966923701E-02    0.1182425380E+00    0.5773333694E+00
    0.1500000000E+04    0.4582838893E+00    0.7017791120E-01    0.3593913586E-02    0.1209803751E+00    0.5815749190E+00
    0.1700000000E+04    0.4664796368E+00    0.7050680989E-01    0.3291989780E-02    0.1231629908E+00    0.5848826818E+00
    0.1900000000E+04    0.4731563344E+00    0.7076341350E-01    0.3043163700E-02    0.1249435170E+00    0.5875374659E+00
    0.2100000000E+04    0.4786987206E+00    0.7096813635E-01    0.2834817017E-02    0.1264235860E+00    0.5897173809E+00
    0.2300000000E+04    0.4833720031E+00    0.7113444157E-01    0.2657921233E-02    0.1276732871E+00    0.5915409272E+00
    0.2500000000E+04    0.4873648792E+00    0.7127155773E-01    0.2505885660E-02    0.1287425128E+00    0.5930900502E+00
    0.2700000000E+04    0.4908152351E+00    0.7138601562E-01    0.2373806947E-02    0.1296677374E+00    0.5944232528E+00
    0.2900000000E+04    0.4938261450E+00    0.7148256230E-01    0.2257972530E-02    0.1304762393E+00    0.5955834359E+00
    0.3100000000E+04    0.4964761892E+00    0.7156472790E-01    0.2155526020E-02    0.1311888242E+00    0.5966027852E+00
    0.3300000000E+04    0.4988263103E+00    0.7163518968E-01    0.2064237456E-02    0.1318216354E+00    0.5975059279E+00
    0.3500000000E+04    0.5009244916E+00    0.7169601320E-01    0.1982342662E-02    0.1323873890E+00    0.5983120338E+00
    0.3700000000E+04    0.5028090223E+00    0.7174881622E-01    0.1908428993E-02    0.1328962371E+00    0.5990362514E+00
    0.3900000000E+04    0.5045108246E+00    0.7179488284E-01    0.1841352746E-02    0.1333563819E+00    0.5996907128E+00
    0.4100000000E+04    0.5060551409E+00    0.7183524448E-01    0.1780178585E-02    0.1337745224E+00    0.6002852510E+00
    0.4300000000E+04    0.5074627791E+00    0.7187073852E-01    0.1724134472E-02    0.1341561831E+00    0.6008279214E+00
    0.4500000000E+04    0.5087510439E+00    0.7190205139E-01    0.1672577728E-02    0.1345059605E+00    0.6013253875E+00
    0.4700000000E+04    0.5099344431E+00    0.7192975071E-01    0.1624969150E-02    0.1348277102E+00    0.6017832098E+00
    0.4900000000E+04    0.5110252298E+00    0.7195430962E-01    0.1580853069E-02    0.1351246898E+00    0.6022060661E+00
    0.1000000000E+04    0.4264489644E+00    0.6876596380E-01    0.4719838782E-02    0.1125241128E+00    0.5680960268E+00
    0.3000000000E+04    0.4951921162E+00    0.7152525871E-01    0.2205227687E-02    0.1308434198E+00    0.5961090270E+00
    0.5000000000E+04    0.5115392118E+00    0.7196553811E-01    0.1559981266E-02    0.1352647735E+00    0.6024056448E+00
    0.7000000000E+04    0.5188205532E+00    0.7209477705E-01    0.1256502019E-02    0.1372622214E+00    0.6052672727E+00
    0.9000000000E+04    0.5229303024E+00    0.7213210207E-01    0.1075268355E-02    0.1384054336E+00    0.6069304788E+00
    0.1100000000E+05    0.5255660658E+00    0.7213349195E-01    0.9525103132E-03    0.1391487917E+00    0.6080306578E+00
    0.1300000000E+05    0.5273981912E+00    0.7211880037E-01    0.8626775036E-03    0.1396725983E+00    0.6088192641E+00
    0.1500000000E+05    0.5287443886E+00    0.7209646334E-01    0.7934251388E-03    0.1400627178E+00    0.6094163783E+00
    0.1700000000E+05    0.5297745609E+00    0.7207049384E-01    0.7380057190E-03    0.1403652865E+00    0.6098868501E+00
    0.1900000000E+05    0.5305877614E+00    0.7204294733E-01    0.6923934565E-03    0.1406073286E+00    0.6102689004E+00
    0.2100000000E+05    0.5312456179E+00    0.7201492805E-01    0.6540238843E-03    0.1408057366E+00    0.6105865806E+00
    0.2300000000E+05    0.5317884722E+00    0.7198704524E-01    0.6211782764E-03    0.1409716198E+00    0.6108558179E+00
    0.2500000000E+05    0.5322438338E+00    0.7195963719E-01    0.5926570482E-03    0.1411125892E+00    0.6110876001E+00
    0.2700000000E+05    0.5326311024E+00    0.7193288805E-01    0.5675947510E-03    0.1412340368E+00    0.6112897659E+00
    0.2900000000E+05    0.5329643491E+00    0.7190689198E-01    0.5453495539E-03    0.1413398916E+00    0.6114680666E+00
    0.3100000000E+05    0.5332540267E+00    0.7188168959E-01    0.5254342510E-03    0.1414330858E+00    0.6116268235E+00
    0.3300000000E+05    0.5335080613E+00    0.7185728941E-01    0.5074715657E-03    0.1415158528E+00    0.6117693501E+00
    0.3500000000E+05    0.5337325716E+00    0.7183368084E-01    0.4911642637E-03    0.1415899248E+00    0.6118982330E+00
    0.3700000000E+05    0.5339323556E+00    0.7181084201E-01    0.4762746141E-03    0.1416566662E+00    0.6120155227E+00
    0.3900000000E+05    0.5341112284E+00    0.7178874477E-01    0.4626099345E-03    0.1417171668E+00    0.6121228675E+00
    0.4100000000E+05    0.5342722612E+00    0.7176735777E-01    0.4500122009E-03    0.1417723081E+00    0.6122216083E+00
    0.4300000000E+05    0.5344179541E+00    0.7174664839E-01    0.4383504400E-03    0.1418228105E+00    0.6123128482E+00
    0.4500000000E+05    0.5345503626E+00    0.7172658398E-01    0.4275150640E-03    0.1418692693E+00    0.6123975038E+00
    0.4700000000E+05    0.5346711922E+00    0.7170713257E-01    0.4174135901E-03    0.1419121806E+00    0.6124763431E+00
    0.4900000000E+05    0.5347818695E+00    0.7168826335E-01    0.4079673599E-03    0.1419519612E+00    0.6125500153E+00
    0.1000000000E+05    0.5243782271E+00    0.7213563888E-01    0.1008636245E-02    0.1388125334E+00    0.6075306471E+00
    0.3000000000E+05    0.5331140893E+00    0.7189419047E-01    0.5351264157E-03    0.1413879180E+00    0.6115496612E+00
    0.5000000000E+05    0.5348337844E+00    0.7167903782E-01    0.4034685230E-03    0.1419707899E+00    0.6125850898E+00
    0.7000000000E+05    0.5355513219E+00    0.7151878724E-01    0.3356655169E-03    0.1422457904E+00    0.6131145943E+00
    0.9000000000E+05    0.5359384418E+00    0.7139237939E-01    0.2927661403E-03    0.1424121560E+00    0.6134540227E+00
    0.1100000000E+06    0.5361772885E+00    0.7128825182E-01    0.2625627467E-03    0.1425265692E+00    0.6136980202E+00
    0.1300000000E+06    0.5363373825E+00    0.7119979944E-01    0.2398477807E-03    0.1426116573E+00    0.6138859655E+00
    0.1500000000E+06    0.5364508943E+00    0.7112294850E-01    0.2219795880E-03    0.1426783506E+00    0.6140375548E+00
    0.1700000000E+06    0.5365347048E+00    0.7105502172E-01    0.2074579955E-03    0.1427326280E+00    0.6141638908E+00
    0.1900000000E+06    0.5365984976E+00    0.7099416910E-01    0.1953601671E-03    0.1427780610E+00    0.6142717828E+00
    0.2100000000E+06    0.5366482112E+00    0.7093906025E-01    0.1850834387E-03    0.1428169278E+00    0.6143656781E+00
    0.2300000000E+06    0.5366876814E+00    0.7088870700E-01    0.1762155035E-03    0.1428507582E+00    0.6144486262E+00
    0.2500000000E+06    0.5367194910E+00    0.7084235556E-01    0.1684635826E-03    0.1428806218E+00    0.6145228009E+00
    0.2700000000E+06    0.5367454396E+00    0.7079941793E-01    0.1616133307E-03    0.1429072923E+00    0.6145898014E+00
    0.2900000000E+06    0.5367668170E+00    0.7075942671E-01    0.1555037740E-03    0.1429313449E+00    0.6146508361E+00
    0.3100000000E+06    0.5367845706E+00    0.7072200422E-01    0.1500113807E-03    0.1429532172E+00    0.6147068382E+00
    0.3300000000E+06    0.5367994106E+00    0.7068684096E-01    0.1450395766E-03    0.1429732496E+00    0.6147585425E+00
    0.3500000000E+06    0.5368118791E+00    0.7065368015E-01    0.1405116360E-03    0.1429917107E+00    0.6148065371E+00
    0.3700000000E+06    0.5368223963E+00    0.7062230641E-01    0.1363657357E-03    0.1430088164E+00    0.6148512996E+00
    0.3900000000E+06    0.5368312928E+00    0.7059253730E-01    0.1325514346E-03    0.1430247422E+00    0.6148932224E+00
    0.4100000000E+06    0.5368388317E+00    0.7056421694E-01    0.1290271185E-03    0.1430396326E+00    0.6149326324E+00
    0.4300000000E+06    0.5368452248E+00    0.7053721112E-01    0.1257581116E-03    0.1430536079E+00    0.6149698036E+00
    0.4500000000E+06    0.5368506443E+00    0.7051140342E-01    0.1227152594E-03    0.1430667691E+00    0.6150049688E+00
    0.4700000000E+06    0.5368552313E+00    0.7048669223E-01    0.1198738494E-03    0.1430792018E+00    0.6150383266E+00
    0.4900000000E+06    0.5368591027E+00    0.7046298834E-01    0.1172127788E-03    0.1430909792E+00    0.6150700480E+00
    0.1000000000E+06    0.5360707387E+00    0.7133802217E-01    0.2764905781E-03    0.1424740351E+00    0.6135848115E+00
    0.3000000000E+06    0.5367760978E+00    0.7074041511E-01    0.1526870035E-03    0.1429425304E+00    0.6146794164E+00
    0.5000000000E+06    0.5368608011E+00    0.7045148916E-01    0.1159441003E-03    0.1430966422E+00    0.6150853423E+00
    0.7000000000E+06    0.5368740153E+00    0.7025934037E-01    0.9672718058E-04    0.1431870199E+00    0.6153328031E+00
    0.9000000000E+06    0.5368686330E+00    0.7011521304E-01    0.8448529039E-04    0.1432505427E+00    0.6155100291E+00
    0.1100000000E+07    0.5368571255E+00    0.6999986766E-01    0.7583368936E-04    0.1432993856E+00    0.6156477600E+00
    0.1300000000E+07    0.5368435636E+00    0.6990371594E-01    0.6931162879E-04    0.1433390103E+00    0.6157602384E+00
    0.1500000000E+07    0.5368295131E+00    0.6982128204E-01    0.6417290751E-04    0.1433723213E+00    0.6158552064E+00
    0.1700000000E+07    0.5368156272E+00    0.6974914270E-01    0.5999178363E-04    0.1434010427E+00    0.6159373320E+00
    0.1900000000E+07    0.5368021828E+00    0.6968501451E-01    0.5650549012E-04    0.1434262798E+00    0.6160096433E+00
    0.2100000000E+07    0.5367892887E+00    0.6962729815E-01    0.5354200034E-04    0.1434487829E+00    0.6160742145E+00
    0.2300000000E+07    0.5367769750E+00    0.6957482984E-01    0.5098339900E-04    0.1434690841E+00    0.6161325275E+00
    0.2500000000E+07    0.5367652346E+00    0.6952673624E-01    0.4874582776E-04    0.1434875745E+00    0.6161856777E+00
    0.2700000000E+07    0.5367540427E+00    0.6948234529E-01    0.4676781809E-04    0.1435045496E+00    0.6162344969E+00
    0.2900000000E+07    0.5367433676E+00    0.6944112868E-01    0.4500316030E-04    0.1435202384E+00    0.6162796317E+00
    0.3100000000E+07    0.5367331748E+00    0.6940266364E-01    0.4341636284E-04    0.1435348215E+00    0.6163215946E+00
    0.3300000000E+07    0.5367234307E+00    0.6936660654E-01    0.4197965940E-04    0.1435484443E+00    0.6163607983E+00
    0.3500000000E+07    0.5367141030E+00    0.6933267432E-01    0.4067097681E-04    0.1435612250E+00    0.6163975804E+00
    0.3700000000E+07    0.5367051615E+00    0.6930063104E-01    0.3947251970E-04    0.1435732616E+00    0.6164322201E+00
    0.3900000000E+07    0.5366965785E+00    0.6927027797E-01    0.3836976220E-04    0.1435846358E+00    0.6164649514E+00
    0.4100000000E+07    0.5366883286E+00    0.6924144616E-01    0.3735071547E-04    0.1435954166E+00    0.6164959718E+00
    0.4300000000E+07    0.5366803887E+00    0.6921399077E-01    0.3640538601E-04    0.1436056627E+00    0.6165254498E+00
    0.4500000000E+07    0.5366727376E+00    0.6918778670E-01    0.3552536883E-04    0.1436154246E+00    0.6165535305E+00
    0.4700000000E+07    0.5366653560E+00    0.6916272513E-01    0.3470353747E-04    0.1436247459E+00    0.6165803393E+00
    0.4900000000E+07    0.5366582264E+00    0.6913871087E-01    0.3393380484E-04    0.1436336647E+00    0.6166059856E+00
    0.1000000000E+07    0.5368632990E+00    0.7005467608E-01    0.7982632949E-04    0.1432763716E+00    0.6155827242E+00
    0.3000000000E+07    0.5367382130E+00    0.6942157530E-01    0.4418941800E-04    0.1435276584E+00    0.6163009818E+00
    0.5000000000E+07    0.5366547511E+00    0.6912706990E-01    0.3356681072E-04    0.1436379837E+00    0.6166184031E+00
    0.7000000000E+07    0.5365952616E+00    0.6893330375E-01    0.2800644231E-04    0.1437095122E+00    0.6168238339E+00
    0.9000000000E+07    0.5365491870E+00    0.6878873972E-01    0.2446310165E-04    0.1437625300E+00    0.6169757603E+00
    0.1100000000E+08    0.5365116114E+00    0.6867342317E-01    0.2195852112E-04    0.1438046720E+00    0.6170962713E+00
    0.1300000000E+08    0.5364798915E+00    0.6857751002E-01    0.2007024016E-04    0.1438396489E+00    0.6171961086E+00
    0.1500000000E+08    0.5364524487E+00    0.6849541487E-01    0.1858237264E-04    0.1438695467E+00    0.6172813091E+00
    0.1700000000E+08    0.5364282662E+00    0.6842366192E-01    0.1737171710E-04    0.1438956551E+00    0.6173556028E+00
    0.1900000000E+08    0.5364066510E+00    0.6835994066E-01    0.1636222186E-04    0.1439188276E+00    0.6174214562E+00
    0.2100000000E+08    0.5363871099E+00    0.6830263711E-01    0.1550409219E-04    0.1439396583E+00    0.6174805847E+00
    0.2300000000E+08    0.5363692792E+00    0.6825057931E-01    0.1476319355E-04    0.1439585775E+00    0.6175342294E+00
    0.2500000000E+08    0.5363528834E+00    0.6820288941E-01    0.1411524875E-04    0.1439759067E+00    0.6175833173E+00
    0.2700000000E+08    0.5363377083E+00    0.6815889281E-01    0.1354246159E-04    0.1439918927E+00    0.6176285589E+00
