  Pressure (Pa) 22mC5-400 (mol/kg) 3mC6-400 (mol/kg) 33mC5-400 (mol/kg) 23mC5-400 (mol/kg) C7-400 (mol/kg)
    0.1000000000E+01    0.2123722933E-02    0.1555211951E-02    0.6385911156E-04    0.1864510524E-03    0.1682574163E-01
    0.3000000000E+01    0.6327301329E-02    0.4426706494E-02    0.1828285217E-03    0.5555052813E-03    0.4790463072E-01
    0.5000000000E+01    0.1047340034E-01    0.7018343867E-02    0.2915438342E-03    0.9195176271E-03    0.7596959723E-01
    0.7000000000E+01    0.1456320345E-01    0.9369048414E-02    0.3914169055E-03    0.1278591871E-02    0.1014391537E+00
    0.9000000000E+01    0.1859786177E-01    0.1151084954E-01    0.4836033911E-03    0.1632828955E-02    0.1246577384E+00
    0.1100000000E+02    0.2257849516E-01    0.1347034335E-01    0.5690581787E-03    0.1982327083E-02    0.1459114103E+00
    0.1300000000E+02    0.2650619327E-01    0.1526979758E-01    0.6485771079E-03    0.2327181809E-02    0.1654397156E+00
    0.1500000000E+02    0.3038201656E-01    0.1692799751E-01    0.7228287626E-03    0.2667486125E-02    0.1834447728E+00
    0.1700000000E+02    0.3420699725E-01    0.1846090095E-01    0.7923789737E-03    0.3003330552E-02    0.2000983083E+00
    0.1900000000E+02    0.3798214029E-01    0.1988215080E-01    0.8577099040E-03    0.3334803216E-02    0.2155471628E+00
    0.2100000000E+02    0.4170842421E-01    0.2120348000E-01    0.9192350548E-03    0.3661989926E-02    0.2299176413E+00
    0.2300000000E+02    0.4538680201E-01    0.2243503436E-01    0.9773111715E-03    0.3984974257E-02    0.2433189831E+00
    0.2500000000E+02    0.4901820198E-01    0.2358563209E-01    0.1032247769E-02    0.4303837613E-02    0.2558461492E+00
    0.2700000000E+02    0.5260352851E-01    0.2466297400E-01    0.1084314807E-02    0.4618659304E-02    0.2675820825E+00
    0.2900000000E+02    0.5614366281E-01    0.2567381499E-01    0.1133748925E-02    0.4929516608E-02    0.2785995505E+00
    0.3100000000E+02    0.5963946370E-01    0.2662410494E-01    0.1180758537E-02    0.5236484839E-02    0.2889626593E+00
    0.3300000000E+02    0.6309176829E-01    0.2751910509E-01    0.1225528018E-02    0.5539637408E-02    0.2987281060E+00
    0.3500000000E+02    0.6650139266E-01    0.2836348486E-01    0.1268221177E-02    0.5839045881E-02    0.3079462183E+00
    0.3700000000E+02    0.6986913253E-01    0.2916140275E-01    0.1308984134E-02    0.6134780040E-02    0.3166618251E+00
    0.3900000000E+02    0.7319576386E-01    0.2991657433E-01    0.1347947735E-02    0.6426907935E-02    0.3249149877E+00
    0.4100000000E+02    0.7648204351E-01    0.3063232967E-01    0.1385229582E-02    0.6715495939E-02    0.3327416170E+00
    0.4300000000E+02    0.7972870978E-01    0.3131166205E-01    0.1420935740E-02    0.7000608799E-02    0.3401739979E+00
    0.4500000000E+02    0.8293648298E-01    0.3195726946E-01    0.1455162189E-02    0.7282309686E-02    0.3472412353E+00
    0.4700000000E+02    0.8610606602E-01    0.3257159014E-01    0.1487996064E-02    0.7560660242E-02    0.3539696368E+00
    0.4900000000E+02    0.8923814487E-01    0.3315683308E-01    0.1519516713E-02    0.7835720625E-02    0.3603830406E+00
    0.1000000000E+02    0.2059486278E-01    0.1251190267E-01    0.5271191931E-03    0.1808164356E-02    0.1355142447E+00
    0.3000000000E+02    0.5789705211E-01    0.2615618510E-01    0.1157544751E-02    0.5083482226E-02    0.2838591957E+00
    0.5000000000E+02    0.9079033009E-01    0.3343918457E-01    0.1534807469E-02    0.7972035407E-02    0.3634784632E+00
    0.7000000000E+02    0.1200200437E+00    0.3796056704E-01    0.1786370939E-02    0.1053918861E-01    0.4131785384E+00
    0.9000000000E+02    0.1461719060E+00    0.4103618012E-01    0.1961381029E-02    0.1283630917E-01    0.4471716189E+00
    0.1100000000E+03    0.1697125761E+00    0.4326103223E-01    0.2084457365E-02    0.1490432500E-01    0.4718961835E+00
    0.1300000000E+03    0.1910184699E+00    0.4494332027E-01    0.2170116076E-02    0.1677625065E-01    0.4906933499E+00
    0.1500000000E+03    0.2103965957E+00    0.4625859895E-01    0.2227846328E-02    0.1847901416E-01    0.5054698121E+00
    0.1700000000E+03    0.2280998741E+00    0.4731417496E-01    0.2264275791E-02    0.2003480039E-01    0.5173931939E+00
    0.1900000000E+03    0.2443385725E+00    0.4817931525E-01    0.2284239367E-02    0.2146205360E-01    0.5272186088E+00
    0.2100000000E+03    0.2592889553E+00    0.4890071933E-01    0.2291369717E-02    0.2277623601E-01    0.5354561048E+00
    0.2300000000E+03    0.2730999109E+00    0.4951101025E-01    0.2288453275E-02    0.2399040887E-01    0.5424626566E+00
    0.2500000000E+03    0.2858980849E+00    0.5003366170E-01    0.2277659670E-02    0.2511568267E-01    0.5484956060E+00
    0.2700000000E+03    0.2977918993E+00    0.5048599186E-01    0.2260697238E-02    0.2616156949E-01    0.5537451692E+00
    0.2900000000E+03    0.3088747292E+00    0.5088105454E-01    0.2238922580E-02    0.2713626168E-01    0.5583549942E+00
    0.3100000000E+03    0.3192274363E+00    0.5122887383E-01    0.2213420046E-02    0.2804685398E-01    0.5624355968E+00
    0.3300000000E+03    0.3289204061E+00    0.5153727352E-01    0.2185060746E-02    0.2889952222E-01    0.5660733970E+00
    0.3500000000E+03    0.3380151989E+00    0.5181244847E-01    0.2154547170E-02    0.2969966809E-01    0.5693369503E+00
    0.3700000000E+03    0.3465658973E+00    0.5205936676E-01    0.2122447397E-02    0.3045203733E-01    0.5722813398E+00
    0.3900000000E+03    0.3546202133E+00    0.5228205846E-01    0.2089221671E-02    0.3116081683E-01    0.5749513325E+00
    0.4100000000E+03    0.3622204044E+00    0.5248382660E-01    0.2055243228E-02    0.3182971498E-01    0.5773836876E+00
    0.4300000000E+03    0.3694040345E+00    0.5266740364E-01    0.2020814768E-02    0.3246202841E-01    0.5796088719E+00
    0.4500000000E+03    0.3762046117E+00    0.5283506930E-01    0.1986181578E-02    0.3306069792E-01    0.5816523513E+00
    0.4700000000E+03    0.3826521235E+00    0.5298874036E-01    0.1951542050E-02    0.3362835546E-01    0.5835355777E+00
    0.4900000000E+03    0.3887734901E+00    0.5313003989E-01    0.1917056159E-02    0.3416736382E-01    0.5852767498E+00
    0.1000000000E+03    0.1582432750E+00    0.4223143732E-01    0.2028348000E-02    0.1389673050E-01    0.4604376913E+00
    0.3000000000E+03    0.3141377244E+00    0.5106033674E-01    0.2226578437E-02    0.2759916463E-01    0.5604555662E+00
    0.5000000000E+03    0.3917195383E+00    0.5319649080E-01    0.1899912032E-02    0.3442679774E-01    0.5860990122E+00
    0.7000000000E+03    0.4382882354E+00    0.5412430297E-01    0.1584780311E-02    0.3853014611E-01    0.5978852453E+00
    0.9000000000E+03    0.4693664148E+00    0.5462841977E-01    0.1334478944E-02    0.4127190664E-01    0.6046709198E+00
    0.1100000000E+04    0.4915836530E+00    0.5493737601E-01    0.1141011474E-02    0.4323432382E-01    0.6090877631E+00
    0.1300000000E+04    0.5082554819E+00    0.5514144234E-01    0.9905430405E-03    0.4470870738E-01    0.6121953478E+00
    0.1500000000E+04    0.5212261703E+00    0.5528319382E-01    0.8717915325E-03    0.4585716604E-01    0.6145028468E+00
    0.1700000000E+04    0.5316038186E+00    0.5538521850E-01    0.7765415870E-03    0.4677714054E-01    0.6162854623E+00
    0.1900000000E+04    0.5400944582E+00    0.5546055467E-01    0.6989421132E-03    0.4753074119E-01    0.6177050226E+00
    0.2100000000E+04    0.5471692569E+00    0.5551722207E-01    0.6348104209E-03    0.4815943407E-01    0.6188629411E+00
    0.2300000000E+04    0.5531546695E+00    0.5556040485E-01    0.5811192219E-03    0.4869196122E-01    0.6198260179E+00
    0.2500000000E+04    0.5582840205E+00    0.5559359069E-01    0.5356440438E-03    0.4914887356E-01    0.6206400553E+00
    0.2700000000E+04    0.5627284915E+00    0.5561920422E-01    0.4967246710E-03    0.4954525469E-01    0.6213375134E+00
    0.2900000000E+04    0.5666165101E+00    0.5563897786E-01    0.4631032098E-03    0.4989242553E-01    0.6219420420E+00
    0.3100000000E+04    0.5700463070E+00    0.5565417859E-01    0.4338129838E-03    0.5019904865E-01    0.6224712825E+00
    0.3300000000E+04    0.5730942939E+00    0.5566575168E-01    0.4081012599E-03    0.5047186526E-01    0.6229386642E+00
    0.3500000000E+04    0.5758208003E+00    0.5567441468E-01    0.3853747190E-03    0.5071619986E-01    0.6233545916E+00
    0.3700000000E+04    0.5782740903E+00    0.5568072062E-01    0.3651604171E-03    0.5093631385E-01    0.6237272519E+00
    0.3900000000E+04    0.5804932342E+00    0.5568510142E-01    0.3470774440E-03    0.5113565825E-01    0.6240631765E+00
    0.4100000000E+04    0.5825101965E+00    0.5568789846E-01    0.3308160737E-03    0.5131705761E-01    0.6243676397E+00
    0.4300000000E+04    0.5843513806E+00    0.5568938443E-01    0.3161222334E-03    0.5148284599E-01    0.6246449483E+00
    0.4500000000E+04    0.5860387871E+00    0.5568977919E-01    0.3027857984E-03    0.5163496905E-01    0.6248986537E+00
    0.4700000000E+04    0.5875908945E+00    0.5568926156E-01    0.2906316719E-03    0.5177506157E-01    0.6251317107E+00
    0.4900000000E+04    0.5890233361E+00    0.5568797811E-01    0.2795129193E-03    0.5190450726E-01    0.6253465984E+00
    0.1000000000E+04    0.4813276895E+00    0.5479998713E-01    0.1231537704E-02    0.4232813432E-01    0.6070901150E+00
    0.3000000000E+04    0.5683834765E+00    0.5564708450E-01    0.4479680234E-03    0.5005034601E-01    0.6222151514E+00
    0.5000000000E+04    0.5896989220E+00    0.5568708785E-01    0.2743022531E-03    0.5196561292E-01    0.6254478964E+00
    0.7000000000E+04    0.5993163736E+00    0.5564958027E-01    0.2025288137E-03    0.5284038226E-01    0.6268914871E+00
    0.9000000000E+04    0.6047901402E+00    0.5559858649E-01    0.1636968360E-03    0.5334423303E-01    0.6277230547E+00
    0.1100000000E+05    0.6083229384E+00    0.5554701021E-01    0.1393260568E-03    0.5367326372E-01    0.6282704976E+00
    0.1300000000E+05    0.6107914138E+00    0.5549809005E-01    0.1225339811E-03    0.5390584848E-01    0.6286619844E+00
    0.1500000000E+05    0.6126134181E+00    0.5545253942E-01    0.1102018133E-03    0.5407949897E-01    0.6289581815E+00
    0.1700000000E+05    0.6140134014E+00    0.5541031566E-01    0.1007177939E-03    0.5421444711E-01    0.6291916315E+00
    0.1900000000E+05    0.6151226958E+00    0.5537115147E-01    0.9316643777E-04    0.5432257910E-01    0.6293814124E+00
    0.2100000000E+05    0.6160232653E+00    0.5533473151E-01    0.8698931655E-04    0.5441134293E-01    0.6295394784E+00
    0.2300000000E+05    0.6167689094E+00    0.5530075256E-01    0.8182627931E-04    0.5448564679E-01    0.6296737180E+00
    0.2500000000E+05    0.6173964027E+00    0.5526894217E-01    0.7743442379E-04    0.5454885906E-01    0.6297895579E+00
    0.2700000000E+05    0.6179317359E+00    0.5523906200E-01    0.7364380242E-04    0.5460336971E-01    0.6298908602E+00
    0.2900000000E+05    0.6183937981E+00    0.5521090578E-01    0.7033181275E-04    0.5465092255E-01    0.6299804531E+00
    0.3100000000E+05    0.6187966473E+00    0.5518429547E-01    0.6740768398E-04    0.5469282046E-01    0.6300604582E+00
    0.3300000000E+05    0.6191509621E+00    0.5515907726E-01    0.6480270160E-04    0.5473005699E-01    0.6301325002E+00
    0.3500000000E+05    0.6194649995E+00    0.5513511791E-01    0.6246383633E-04    0.5476340334E-01    0.6301978462E+00
    0.3700000000E+05    0.6197452444E+00    0.5511230157E-01    0.6034946873E-04    0.5479346755E-01    0.6302574997E+00
    0.3900000000E+05    0.6199968610E+00    0.5509052706E-01    0.5842644571E-04    0.5482073570E-01    0.6303122668E+00
    0.4100000000E+05    0.6202240124E+00    0.5506970565E-01    0.5666800803E-04    0.5484560112E-01    0.6303628031E+00
    0.4300000000E+05    0.6204300921E+00    0.5504975915E-01    0.5505230143E-04    0.5486838569E-01    0.6304096479E+00
    0.4500000000E+05    0.6206178942E+00    0.5503061841E-01    0.5356128772E-04    0.5488935539E-01    0.6304532488E+00
    0.4700000000E+05    0.6207897397E+00    0.5501222198E-01    0.5217993555E-04    0.5490873205E-01    0.6304939814E+00
    0.4900000000E+05    0.6209475727E+00    0.5499451505E-01    0.5089561011E-04    0.5492670217E-01    0.6305321627E+00
    0.1000000000E+05    0.6067283911E+00    0.5557257182E-01    0.1502675494E-03    0.5352428089E-01    0.6280219179E+00
    0.3000000000E+05    0.6186018908E+00    0.5519741752E-01    0.6882599003E-04    0.5467251021E-01    0.6300215428E+00
    0.5000000000E+05    0.6210217575E+00    0.5498590461E-01    0.5028642228E-04    0.5493521011E-01    0.6305503827E+00
    0.7000000000E+05    0.6220599811E+00    0.5484030956E-01    0.4128779114E-04    0.5505965748E-01    0.6308293988E+00
    0.9000000000E+05    0.6226354054E+00    0.5472939185E-01    0.3575474699E-04    0.5513512149E-01    0.6310132044E+00
    0.1100000000E+06    0.6230001677E+00    0.5463983540E-01    0.3192389979E-04    0.5518710084E-01    0.6311484395E+00
    0.1300000000E+06    0.6232514996E+00    0.5456475442E-01    0.2907422421E-04    0.5522580006E-01    0.6312546973E+00
    0.1500000000E+06    0.6234348292E+00    0.5450012903E-01    0.2684976574E-04    0.5525615759E-01    0.6313418815E+00
    0.1700000000E+06    0.6235742161E+00    0.5444340895E-01    0.2505217447E-04    0.5528087864E-01    0.6314156341E+00
    0.1900000000E+06    0.6236835875E+00    0.5439287513E-01    0.2356112677E-04    0.5530158100E-01    0.6314794520E+00
    0.2100000000E+06    0.6237715611E+00    0.5434731395E-01    0.2229888154E-04    0.5531929772E-01    0.6315356417E+00
    0.2300000000E+06    0.6238437533E+00    0.5430583683E-01    0.2121270128E-04    0.5533472292E-01    0.6315858002E+00
    0.2500000000E+06    0.6239039795E+00    0.5426777366E-01    0.2026539285E-04    0.5534834240E-01    0.6316310763E+00
    0.2700000000E+06    0.6239549219E+00    0.5423260667E-01    0.1942988046E-04    0.5536050765E-01    0.6316723227E+00
    0.2900000000E+06    0.6239985205E+00    0.5419992747E-01    0.1868592633E-04    0.5537148016E-01    0.6317101887E+00
    0.3100000000E+06    0.6240362125E+00    0.5416940832E-01    0.1801806240E-04    0.5538145908E-01    0.6317451800E+00
    0.3300000000E+06    0.6240690856E+00    0.5414078217E-01    0.1741423793E-04    0.5539059917E-01    0.6317776977E+00
    0.3500000000E+06    0.6240979772E+00    0.5411382858E-01    0.1686490774E-04    0.5539902282E-01    0.6318080649E+00
    0.3700000000E+06    0.6241235430E+00    0.5408836347E-01    0.1636240086E-04    0.5540682826E-01    0.6318365458E+00
    0.3900000000E+06    0.6241463032E+00    0.5406423153E-01    0.1590047315E-04    0.5541409546E-01    0.6318633593E+00
    0.4100000000E+06    0.6241666757E+00    0.5404130054E-01    0.1547398380E-04    0.5542089027E-01    0.6318886882E+00
    0.4300000000E+06    0.6241850002E+00    0.5401945700E-01    0.1507865711E-04    0.5542726748E-01    0.6319126872E+00
    0.4500000000E+06    0.6242015555E+00    0.5399860276E-01    0.1471090412E-04    0.5543327317E-01    0.6319354880E+00
    0.4700000000E+06    0.6242165726E+00    0.5397865236E-01    0.1436768730E-04    0.5543894637E-01    0.6319572039E+00
    0.4900000000E+06    0.6242302442E+00    0.5395953097E-01    0.1404641632E-04    0.5544432045E-01    0.6319779328E+00
    0.1000000000E+06    0.6228362225E+00    0.5468246622E-01    0.3368423751E-04    0.5516322573E-01    0.6310853359E+00
    0.3000000000E+06    0.6240180300E+00    0.5418441582E-01    0.1834330400E-04    0.5537658327E-01    0.6317280166E+00
    0.5000000000E+06    0.6242366272E+00    0.5395026024E-01    0.1389330300E-04    0.5544690444E-01    0.6319879543E+00
    0.7000000000E+06    0.6243222091E+00    0.5379581710E-01    0.1157804723E-04    0.5548813646E-01    0.6321525185E+00
    0.9000000000E+06    0.6243650980E+00    0.5368046635E-01    0.1010663322E-04    0.5551710439E-01    0.6322730767E+00
    0.1100000000E+07    0.6243893584E+00    0.5358839907E-01    0.9068164945E-05    0.5553936823E-01    0.6323682333E+00
    0.1300000000E+07    0.6244040186E+00    0.5351179616E-01    0.8286000111E-05    0.5555742282E-01    0.6324468393E+00
    0.1500000000E+07    0.6244131826E+00    0.5344621422E-01    0.7670116350E-05    0.5557259511E-01    0.6325138019E+00
    0.1700000000E+07    0.6244189637E+00    0.5338888521E-01    0.7169233572E-05    0.5558567270E-01    0.6325721260E+00
    0.1900000000E+07    0.6244225509E+00    0.5333796775E-01    0.6751738239E-05    0.5559716044E-01    0.6326237856E+00
    0.2100000000E+07    0.6244246580E+00    0.5329217484E-01    0.6396951838E-05    0.5560740098E-01    0.6326701472E+00
    0.2300000000E+07    0.6244257362E+00    0.5325057159E-01    0.6090710029E-05    0.5561663732E-01    0.6327121959E+00
    0.2500000000E+07    0.6244260822E+00    0.5321245744E-01    0.5822945044E-05    0.5562504798E-01    0.6327506655E+00
    0.2700000000E+07    0.6244258978E+00    0.5317729394E-01    0.5586280517E-05    0.5563276788E-01    0.6327861170E+00
    0.2900000000E+07    0.6244253240E+00    0.5314465825E-01    0.5375173289E-05    0.5563990148E-01    0.6328189892E+00
    0.3100000000E+07    0.6244244614E+00    0.5311421233E-01    0.5185367297E-05    0.5564653124E-01    0.6328496316E+00
    0.3300000000E+07    0.6244233834E+00    0.5308568163E-01    0.5013533795E-05    0.5565272343E-01    0.6328783272E+00
    0.3500000000E+07    0.6244221443E+00    0.5305884016E-01    0.4857027202E-05    0.5565853206E-01    0.6329053083E+00
    0.3700000000E+07    0.6244207847E+00    0.5303349966E-01    0.4713715108E-05    0.5566400175E-01    0.6329307681E+00
    0.3900000000E+07    0.6244193356E+00    0.5300950167E-01    0.4581857218E-05    0.5566916978E-01    0.6329548687E+00
    0.4100000000E+07    0.6244178208E+00    0.5298671153E-01    0.4460017430E-05    0.5567406760E-01    0.6329777477E+00
    0.4300000000E+07    0.6244162586E+00    0.5296501387E-01    0.4346998842E-05    0.5567872201E-01    0.6329995228E+00
    0.4500000000E+07    0.6244146632E+00    0.5294430907E-01    0.4241794943E-05    0.5568315600E-01    0.6330202955E+00
    0.4700000000E+07    0.6244130460E+00    0.5292451054E-01    0.4143552434E-05    0.5568738946E-01    0.6330401539E+00
    0.4900000000E+07    0.6244114157E+00    0.5290554253E-01    0.4051542549E-05    0.5569143972E-01    0.6330591750E+00
    0.1000000000E+07    0.6243788183E+00    0.5363212140E-01    0.9547273588E-05    0.5552887902E-01    0.6323231464E+00
    0.3000000000E+07    0.6244249237E+00    0.5312918002E-01    0.5277834117E-05    0.5564327487E-01    0.6328345701E+00
    0.5000000000E+07    0.6244105979E+00    0.5289634882E-01    0.4007675541E-05    0.5569340095E-01    0.6330683930E+00
    0.7000000000E+07    0.6243946361E+00    0.5274341440E-01    0.3343163512E-05    0.5572586964E-01    0.6332216253E+00
    0.9000000000E+07    0.6243803063E+00    0.5262941976E-01    0.2919819157E-05    0.5574992184E-01    0.6333357580E+00
    0.1100000000E+08    0.6243676975E+00    0.5253854406E-01    0.2620634466E-05    0.5576903232E-01    0.6334267215E+00
    0.1300000000E+08    0.6243565426E+00    0.5246299332E-01    0.2395098529E-05    0.5578488869E-01    0.6335023417E+00
    0.1500000000E+08    0.6243465769E+00    0.5239834953E-01    0.2217405358E-05    0.5579843916E-01    0.6335670475E+00
    0.1700000000E+08    0.6243375864E+00    0.5234186528E-01    0.2072830569E-05    0.5581026982E-01    0.6336235908E+00
    0.1900000000E+08    0.6243294044E+00    0.5229171527E-01    0.1952286055E-05    0.5582076835E-01    0.6336737984E+00
    0.2100000000E+08    0.6243219009E+00    0.5224662502E-01    0.1849822023E-05    0.5583020455E-01    0.6337189457E+00
    0.2300000000E+08    0.6243149739E+00    0.5220566946E-01    0.1761360210E-05    0.5583877376E-01    0.6337599578E+00
    0.2500000000E+08    0.6243085421E+00    0.5216815585E-01    0.1684000286E-05    0.5584662196E-01    0.6337975275E+00
    0.2700000000E+08    0.6243025400E+00    0.5213355202E-01    0.1615616323E-05    0.5585386110E-01    0.6338321871E+00
