  Pressure (Pa) 22mC5-400 (mol/kg) 3mC6-400 (mol/kg) 33mC5-400 (mol/kg) 23mC5-400 (mol/kg) C7-400 (mol/kg)
    0.1000000000E+01    0.2121913201E-02    0.1060553231E-02    0.5200531801E-03    0.4657306945E-03    0.1720917310E-02
    0.3000000000E+01    0.6311304652E-02    0.3152052771E-02    0.1539782229E-02    0.1385254562E-02    0.5114925623E-02
    0.5000000000E+01    0.1042975275E-01    0.5205005080E-02    0.2533063554E-02    0.2289220546E-02    0.8446663494E-02
    0.7000000000E+01    0.1447915913E-01    0.7220488014E-02    0.3500733765E-02    0.3178045575E-02    0.1171786959E-01
    0.9000000000E+01    0.1846135713E-01    0.9199539417E-02    0.4443596844E-02    0.4052131602E-02    0.1493021807E-01
    0.1100000000E+02    0.2237811484E-01    0.1114315896E-01    0.5362425670E-02    0.4911866277E-02    0.1808532159E-01
    0.1300000000E+02    0.2623113794E-01    0.1305230988E-01    0.6257963465E-02    0.5757623571E-02    0.2118473406E-01
    0.1500000000E+02    0.3002207244E-01    0.1492792065E-01    0.7130925159E-02    0.6589764373E-02    0.2422995332E-01
    0.1700000000E+02    0.3375250727E-01    0.1677088648E-01    0.7981998681E-02    0.7408637055E-02    0.2722242365E-01
    0.1900000000E+02    0.3742397670E-01    0.1858207087E-01    0.8811846183E-02    0.8214578013E-02    0.3016353816E-01
    0.2100000000E+02    0.4103796269E-01    0.2036230694E-01    0.9621105196E-02    0.9007912169E-02    0.3305464102E-01
    0.2300000000E+02    0.4459589707E-01    0.2211239879E-01    0.1041038973E-01    0.9788953461E-02    0.3589702961E-01
    0.2500000000E+02    0.4809916368E-01    0.2383312275E-01    0.1118029132E-01    0.1055800530E-01    0.3869195650E-01
    0.2700000000E+02    0.5154910031E-01    0.2552522856E-01    0.1193138000E-01    0.1131536101E-01    0.4144063145E-01
    0.2900000000E+02    0.5494700064E-01    0.2718944051E-01    0.1266420525E-01    0.1206130424E-01    0.4414422315E-01
    0.3100000000E+02    0.5829411602E-01    0.2882645851E-01    0.1337929685E-01    0.1279610935E-01    0.4680386099E-01
    0.3300000000E+02    0.6159165718E-01    0.3043695911E-01    0.1407716581E-01    0.1352004182E-01    0.4942063671E-01
    0.3500000000E+02    0.6484079590E-01    0.3202159646E-01    0.1475830506E-01    0.1423335856E-01    0.5199560593E-01
    0.3700000000E+02    0.6804266651E-01    0.3358100324E-01    0.1542319029E-01    0.1493630830E-01    0.5452978964E-01
    0.3900000000E+02    0.7119836742E-01    0.3511579154E-01    0.1607228064E-01    0.1562913186E-01    0.5702417565E-01
    0.4100000000E+02    0.7430896252E-01    0.3662655369E-01    0.1670601940E-01    0.1631206253E-01    0.5947971985E-01
    0.4300000000E+02    0.7737548249E-01    0.3811386302E-01    0.1732483467E-01    0.1698532630E-01    0.6189734760E-01
    0.4500000000E+02    0.8039892616E-01    0.3957827468E-01    0.1792913996E-01    0.1764914217E-01    0.6427795483E-01
    0.4700000000E+02    0.8338026166E-01    0.4102032630E-01    0.1851933480E-01    0.1830372242E-01    0.6662240930E-01
    0.4900000000E+02    0.8632042762E-01    0.4244053870E-01    0.1909580532E-01    0.1894927287E-01    0.6893155162E-01
    0.1000000000E+02    0.2042780799E-01    0.1017571713E-01    0.4905968408E-02    0.4483769172E-02    0.1651482699E-01
    0.3000000000E+02    0.5662682984E-01    0.2801130593E-01    0.1302393539E-01    0.1243008226E-01    0.4547946720E-01
    0.5000000000E+02    0.8777535756E-01    0.4314261351E-01    0.1937901108E-01    0.1926872452E-01    0.7007313627E-01
    0.7000000000E+02    0.1149202077E+00    0.5615246985E-01    0.2440711453E-01    0.2522922481E-01    0.9123644262E-01
    0.9000000000E+02    0.1388323813E+00    0.6746664224E-01    0.2841905885E-01    0.3048064307E-01    0.1096567105E+00
    0.1100000000E+03    0.1600924985E+00    0.7740348184E-01    0.3164131899E-01    0.3515029919E-01    0.1258480040E+00
    0.1300000000E+03    0.1791464035E+00    0.8620584952E-01    0.3424204140E-01    0.3933596305E-01    0.1402025962E+00
    0.1500000000E+03    0.1963423861E+00    0.9406228691E-01    0.3634812600E-01    0.4311401473E-01    0.1530251071E+00
    0.1700000000E+03    0.2119567201E+00    0.1011214355E+00    0.3805673201E-01    0.4654504355E-01    0.1645557569E+00
    0.1900000000E+03    0.2262115734E+00    0.1075020900E+00    0.3944320196E-01    0.4967777484E-01    0.1749865831E+00
    0.2100000000E+03    0.2392878170E+00    0.1133003544E+00    0.4056662762E-01    0.5255187832E-01    0.1844729846E+00
    0.2300000000E+03    0.2513343478E+00    0.1185948311E+00    0.4147382882E-01    0.5520001225E-01    0.1931420948E+00
    0.2500000000E+03    0.2624749836E+00    0.1234504460E+00    0.4220224321E-01    0.5764933515E-01    0.2010989546E+00
    0.2700000000E+03    0.2728136364E+00    0.1279213108E+00    0.4278205499E-01    0.5992264032E-01    0.2084311330E+00
    0.2900000000E+03    0.2824382468E+00    0.1320528941E+00    0.4323778361E-01    0.6203921838E-01    0.2152122315E+00
    0.3100000000E+03    0.2914238114E+00    0.1358836890E+00    0.4358948341E-01    0.6401552128E-01    0.2215045767E+00
    0.3300000000E+03    0.2998347405E+00    0.1394465074E+00    0.4385365933E-01    0.6586567916E-01    0.2273613109E+00
    0.3500000000E+03    0.3077267115E+00    0.1427694966E+00    0.4404397283E-01    0.6760190688E-01    0.2328280334E+00
    0.3700000000E+03    0.3151481413E+00    0.1458769439E+00    0.4417179108E-01    0.6923482685E-01    0.2379441010E+00
    0.3900000000E+03    0.3221413661E+00    0.1487899205E+00    0.4424661778E-01    0.7077372780E-01    0.2427436677E+00
    0.4100000000E+03    0.3287435946E+00    0.1515267996E+00    0.4427643387E-01    0.7222677380E-01    0.2472565224E+00
    0.4300000000E+03    0.3349876845E+00    0.1541036775E+00    0.4426796876E-01    0.7360117451E-01    0.2515087694E+00
    0.4500000000E+03    0.3409027789E+00    0.1565347182E+00    0.4422691792E-01    0.7490332490E-01    0.2555233854E+00
    0.4700000000E+03    0.3465148333E+00    0.1588324367E+00    0.4415811837E-01    0.7613892057E-01    0.2593206771E+00
    0.4900000000E+03    0.3518470518E+00    0.1610079340E+00    0.4406569110E-01    0.7731305369E-01    0.2629186619E+00
    0.1000000000E+03    0.1497634288E+00    0.7259056913E-01    0.3011725693E-01    0.3288149912E-01    0.1180040728E+00
    0.3000000000E+03    0.2870066599E+00    0.1340037193E+00    0.4342553151E-01    0.6304397190E-01    0.2184159828E+00
    0.5000000000E+03    0.3544148131E+00    0.1620529808E+00    0.4401173816E-01    0.7787851812E-01    0.2646479974E+00
    0.7000000000E+03    0.3951582847E+00    0.1784446990E+00    0.4231841640E-01    0.8685640822E-01    0.2918692986E+00
    0.9000000000E+03    0.4225256147E+00    0.1893278515E+00    0.4025840201E-01    0.9289438318E-01    0.3100715848E+00
    0.1100000000E+04    0.4421646596E+00    0.1971424663E+00    0.3828058802E-01    0.9723266950E-01    0.3232305966E+00
    0.1300000000E+04    0.4569252298E+00    0.2030593020E+00    0.3648711262E-01    0.1004973436E+00    0.3332589783E+00
    0.1500000000E+04    0.4684095098E+00    0.2077140663E+00    0.3488564426E-01    0.1030405447E+00    0.3411979343E+00
    0.1700000000E+04    0.4775890695E+00    0.2114834881E+00    0.3345820980E-01    0.1050759039E+00    0.3476660385E+00
    0.1900000000E+04    0.4850874233E+00    0.2146058815E+00    0.3218185700E-01    0.1067405796E+00    0.3530555503E+00
    0.2100000000E+04    0.4913228942E+00    0.2172398334E+00    0.3103491065E-01    0.1081266320E+00    0.3576281257E+00
    0.2300000000E+04    0.4965864187E+00    0.2194952357E+00    0.2999859489E-01    0.1092981146E+00    0.3615655033E+00
    0.2500000000E+04    0.5010864645E+00    0.2214507997E+00    0.2905714321E-01    0.1103009435E+00    0.3649981563E+00
    0.2700000000E+04    0.5049762196E+00    0.2231644804E+00    0.2819745339E-01    0.1111688734E+00    0.3680223697E+00
    0.2900000000E+04    0.5083707085E+00    0.2246799572E+00    0.2740865221E-01    0.1119272605E+00    0.3707108734E+00
    0.3100000000E+04    0.5113579347E+00    0.2260308163E+00    0.2668169011E-01    0.1125955123E+00    0.3731197137E+00
    0.3300000000E+04    0.5140063430E+00    0.2272433344E+00    0.2600899807E-01    0.1131887297E+00    0.3752928346E+00
    0.3500000000E+04    0.5163699459E+00    0.2283383841E+00    0.2538420831E-01    0.1137188342E+00    0.3772652171E+00
    0.3700000000E+04    0.5184919214E+00    0.2293327695E+00    0.2480193041E-01    0.1141953599E+00    0.3790650823E+00
    0.3900000000E+04    0.5204071891E+00    0.2302401807E+00    0.2425757298E-01    0.1146260209E+00    0.3807154702E+00
    0.4100000000E+04    0.5221442867E+00    0.2310718911E+00    0.2374720153E-01    0.1150171238E+00    0.3822353918E+00
    0.4300000000E+04    0.5237267588E+00    0.2318372733E+00    0.2326742484E-01    0.1153738742E+00    0.3836406851E+00
    0.4500000000E+04    0.5251741985E+00    0.2325441878E+00    0.2281530379E-01    0.1157006057E+00    0.3849446590E+00
    0.4700000000E+04    0.5265030400E+00    0.2331992790E+00    0.2238827773E-01    0.1160009549E+00    0.3861585863E+00
    0.4900000000E+04    0.5277271683E+00    0.2338082045E+00    0.2198410475E-01    0.1162779956E+00    0.3872920836E+00
    0.1000000000E+04    0.4330927121E+00    0.1935279324E+00    0.3924917367E-01    0.9522799979E-01    0.3171332808E+00
    0.3000000000E+04    0.5099105623E+00    0.2253741761E+00    0.2703794547E-01    0.1122716238E+00    0.3719472636E+00
    0.5000000000E+04    0.5283037258E+00    0.2340968978E+00    0.2178996252E-01    0.1164086081E+00    0.3878312981E+00
    0.7000000000E+04    0.5364499864E+00    0.2383265813E+00    0.1873363452E-01    0.1182653890E+00    0.3958962891E+00
    0.9000000000E+04    0.5410250640E+00    0.2408556497E+00    0.1667210542E-01    0.1193220349E+00    0.4009219593E+00
    0.1100000000E+05    0.5439479019E+00    0.2425475756E+00    0.1516069892E-01    0.1200059925E+00    0.4044154557E+00
    0.1300000000E+05    0.5459734297E+00    0.2437622061E+00    0.1399130476E-01    0.1204861916E+00    0.4070159061E+00
    0.1500000000E+05    0.5474581601E+00    0.2446775958E+00    0.1305173068E-01    0.1208427692E+00    0.4090446936E+00
    0.1700000000E+05    0.5485921411E+00    0.2453924197E+00    0.1227540604E-01    0.1211186358E+00    0.4106826510E+00
    0.1900000000E+05    0.5494858653E+00    0.2459659728E+00    0.1161998456E-01    0.1213388508E+00    0.4120400288E+00
    0.2100000000E+05    0.5502079127E+00    0.2464361243E+00    0.1105706614E-01    0.1215190372E+00    0.4131882265E+00
    0.2300000000E+05    0.5508030822E+00    0.2468282387E+00    0.1056679398E-01    0.1216694457E+00    0.4141757144E+00
    0.2500000000E+05    0.5513018663E+00    0.2471599681E+00    0.1013480928E-01    0.1217970846E+00    0.4150366669E+00
    0.2700000000E+05    0.5517257336E+00    0.2474439896E+00    0.9750436153E-02    0.1219069098E+00    0.4157959404E+00
    0.2900000000E+05    0.5520902331E+00    0.2476896504E+00    0.9405549386E-02    0.1220025266E+00    0.4164720901E+00
    0.3100000000E+05    0.5524069004E+00    0.2479039985E+00    0.9093840656E-02    0.1220866215E+00    0.4170792773E+00
    0.3300000000E+05    0.5526844725E+00    0.2480924513E+00    0.8810327371E-02    0.1221612383E+00    0.4176285169E+00
    0.3500000000E+05    0.5529296869E+00    0.2482592435E+00    0.8551014671E-02    0.1222279596E+00    0.4181285193E+00
    0.3700000000E+05    0.5531478221E+00    0.2484077339E+00    0.8312657137E-02    0.1222880311E+00    0.4185862731E+00
    0.3900000000E+05    0.5533430711E+00    0.2485406219E+00    0.8092587212E-02    0.1223424465E+00    0.4190074574E+00
    0.4100000000E+05    0.5535188070E+00    0.2486601018E+00    0.7888589320E-02    0.1223920086E+00    0.4193967405E+00
    0.4300000000E+05    0.5536777732E+00    0.2487679761E+00    0.7698805958E-02    0.1224373733E+00    0.4197579993E+00
    0.4500000000E+05    0.5538222242E+00    0.2488657396E+00    0.7521666588E-02    0.1224790818E+00    0.4200944831E+00
    0.4700000000E+05    0.5539540291E+00    0.2489546422E+00    0.7355833058E-02    0.1225175847E+00    0.4204089381E+00
    0.4900000000E+05    0.5540747506E+00    0.2490357374E+00    0.7200157199E-02    0.1225532607E+00    0.4207037030E+00
    0.1000000000E+05    0.5426319083E+00    0.2417775155E+00    0.1586383110E-01    0.1196969426E+00    0.4028094111E+00
    0.3000000000E+05    0.5522539450E+00    0.2478003678E+00    0.9245885700E-02    0.1220458740E+00    0.4167835532E+00
    0.5000000000E+05    0.5541313748E+00    0.2490736420E+00    0.7125813195E-02    0.1225701406E+00    0.4208443399E+00
    0.7000000000E+05    0.5549141313E+00    0.2495813511E+00    0.5989956851E-02    0.1228162220E+00    0.4229879525E+00
    0.9000000000E+05    0.5553370588E+00    0.2498282041E+00    0.5256974989E-02    0.1229646689E+00    0.4243758379E+00
    0.1100000000E+06    0.5555986840E+00    0.2499576839E+00    0.4734632492E-02    0.1230665742E+00    0.4253747953E+00
    0.1300000000E+06    0.5557746461E+00    0.2500257740E+00    0.4338521619E-02    0.1231422663E+00    0.4261421211E+00
    0.1500000000E+06    0.5558999159E+00    0.2500585908E+00    0.4025022054E-02    0.1232015426E+00    0.4267580273E+00
    0.1700000000E+06    0.5559928371E+00    0.2500698194E+00    0.3769035092E-02    0.1232497525E+00    0.4272683202E+00
    0.1900000000E+06    0.5560639323E+00    0.2500672429E+00    0.3554968483E-02    0.1232900872E+00    0.4277013443E+00
    0.2100000000E+06    0.5561196560E+00    0.2500555649E+00    0.3372560885E-02    0.1233245800E+00    0.4280757239E+00
    0.2300000000E+06    0.5561641788E+00    0.2500377636E+00    0.3214748311E-02    0.1233545949E+00    0.4284042812E+00
    0.2500000000E+06    0.5562003108E+00    0.2500157946E+00    0.3076488765E-02    0.1233810849E+00    0.4286961801E+00
    0.2700000000E+06    0.5562300111E+00    0.2499909808E+00    0.2954074928E-02    0.1234047388E+00    0.4289581730E+00
    0.2900000000E+06    0.5562546854E+00    0.2499642379E+00    0.2844712228E-02    0.1234260683E+00    0.4291953641E+00
    0.3100000000E+06    0.5562753666E+00    0.2499362122E+00    0.2746249176E-02    0.1234454627E+00    0.4294116960E+00
    0.3300000000E+06    0.5562928299E+00    0.2499073668E+00    0.2656999018E-02    0.1234632246E+00    0.4296102710E+00
    0.3500000000E+06    0.5563076678E+00    0.2498780375E+00    0.2575618310E-02    0.1234795926E+00    0.4297935697E+00
    0.3700000000E+06    0.5563203402E+00    0.2498484703E+00    0.2501022114E-02    0.1234947585E+00    0.4299636038E+00
    0.3900000000E+06    0.5563312090E+00    0.2498188462E+00    0.2432323449E-02    0.1235088781E+00    0.4301220251E+00
    0.4100000000E+06    0.5563405628E+00    0.2497892993E+00    0.2368789210E-02    0.1235220798E+00    0.4302702047E+00
    0.4300000000E+06    0.5563486342E+00    0.2497599284E+00    0.2309807506E-02    0.1235344703E+00    0.4304092925E+00
    0.4500000000E+06    0.5563556125E+00    0.2497308069E+00    0.2254863092E-02    0.1235461392E+00    0.4305402610E+00
    0.4700000000E+06    0.5563616532E+00    0.2497019882E+00    0.2203518610E-02    0.1235571624E+00    0.4306639399E+00
    0.4900000000E+06    0.5563668851E+00    0.2496735113E+00    0.2155400103E-02    0.1235676050E+00    0.4307810415E+00
    0.1000000000E+06    0.5554818736E+00    0.2499030721E+00    0.4976131016E-02    0.1230198017E+00    0.4249114711E+00
    0.3000000000E+06    0.5562654716E+00    0.2499503529E+00    0.2794232920E-02    0.1234359868E+00    0.4293059268E+00
    0.5000000000E+06    0.5563692322E+00    0.2496594099E+00    0.2132448224E-02    0.1235726262E+00    0.4308373218E+00
    0.7000000000E+06    0.5563923452E+00    0.2493984517E+00    0.1783913605E-02    0.1236527783E+00    0.4317313264E+00
    0.9000000000E+06    0.5563934831E+00    0.2491752918E+00    0.1561023906E-02    0.1237091402E+00    0.4323519889E+00
    0.1100000000E+07    0.5563867974E+00    0.2489824546E+00    0.1403095043E-02    0.1237524974E+00    0.4328230280E+00
    0.1300000000E+07    0.5563770506E+00    0.2488132202E+00    0.1283812401E-02    0.1237876864E+00    0.4332005042E+00
    0.1500000000E+07    0.5563661539E+00    0.2486626045E+00    0.1189689766E-02    0.1238172795E+00    0.4335143054E+00
    0.1700000000E+07    0.5563549559E+00    0.2485269675E+00    0.1113013988E-02    0.1238428038E+00    0.4337821497E+00
    0.1900000000E+07    0.5563438540E+00    0.2484036112E+00    0.1049015467E-02    0.1238652384E+00    0.4340153596E+00
    0.2100000000E+07    0.5563330364E+00    0.2482904941E+00    0.9945668217E-03    0.1238852478E+00    0.4342215883E+00
    0.2300000000E+07    0.5563225882E+00    0.2481860399E+00    0.9475216081E-03    0.1239033037E+00    0.4344062389E+00
    0.2500000000E+07    0.5563125416E+00    0.2480890078E+00    0.9063516280E-03    0.1239197527E+00    0.4345732613E+00
    0.2700000000E+07    0.5563029015E+00    0.2479984051E+00    0.8699356192E-03    0.1239348568E+00    0.4347256268E+00
    0.2900000000E+07    0.5562936584E+00    0.2479134255E+00    0.8374299384E-03    0.1239488189E+00    0.4348656237E+00
    0.3100000000E+07    0.5562847954E+00    0.2478334053E+00    0.8081861277E-03    0.1239617993E+00    0.4349950506E+00
    0.3300000000E+07    0.5562762927E+00    0.2477577920E+00    0.7816965257E-03    0.1239739267E+00    0.4351153456E+00
    0.3500000000E+07    0.5562681293E+00    0.2476861208E+00    0.7575573098E-03    0.1239853062E+00    0.4352276757E+00
    0.3700000000E+07    0.5562602843E+00    0.2476179967E+00    0.7354427322E-03    0.1239960247E+00    0.4353330009E+00
    0.3900000000E+07    0.5562527375E+00    0.2475530816E+00    0.7150867551E-03    0.1240061546E+00    0.4354321194E+00
    0.4100000000E+07    0.5562454700E+00    0.2474910835E+00    0.6962696988E-03    0.1240157572E+00    0.4355257023E+00
    0.4300000000E+07    0.5562384641E+00    0.2474317489E+00    0.6788083635E-03    0.1240248846E+00    0.4356143186E+00
    0.4500000000E+07    0.5562317032E+00    0.2473748559E+00    0.6625486051E-03    0.1240335816E+00    0.4356984551E+00
    0.4700000000E+07    0.5562251722E+00    0.2473202094E+00    0.6473596759E-03    0.1240418869E+00    0.4357785313E+00
    0.4900000000E+07    0.5562188568E+00    0.2472676369E+00    0.6331298558E-03    0.1240498344E+00    0.4358549109E+00
    0.1000000000E+07    0.5563907170E+00    0.2490755460E+00    0.1476020210E-02    0.1237320658E+00    0.4326018283E+00
    0.3000000000E+07    0.5562891806E+00    0.2478728323E+00    0.8224348284E-03    0.1239554231E+00    0.4349315613E+00
    0.5000000000E+07    0.5562157760E+00    0.2472420798E+00    0.6263440465E-03    0.1240536832E+00    0.4358918154E+00
    0.7000000000E+07    0.5561628421E+00    0.2468102044E+00    0.5234248973E-03    0.1241174514E+00    0.4364953976E+00
    0.9000000000E+07    0.5561216614E+00    0.2464808441E+00    0.4577285172E-03    0.1241647467E+00    0.4369340556E+00
    0.1100000000E+08    0.5560880011E+00    0.2462143041E+00    0.4112343560E-03    0.1242023573E+00    0.4372778683E+00
    0.1300000000E+08    0.5560595492E+00    0.2459902941E+00    0.3761471609E-03    0.1242335843E+00    0.4375601870E+00
    0.1500000000E+08    0.5560349135E+00    0.2457970222E+00    0.3484784246E-03    0.1242602844E+00    0.4377994588E+00
    0.1700000000E+08    0.5560131927E+00    0.2456270200E+00    0.3259497474E-03    0.1242836061E+00    0.4380069434E+00
    0.1900000000E+08    0.5559937706E+00    0.2454752547E+00    0.3071535371E-03    0.1243043095E+00    0.4381900109E+00
    0.2100000000E+08    0.5559762075E+00    0.2453381717E+00    0.2911675372E-03    0.1243229241E+00    0.4383537451E+00
    0.2300000000E+08    0.5559601787E+00    0.2452131664E+00    0.2773591553E-03    0.1243398332E+00    0.4385017984E+00
    0.2500000000E+08    0.5559454376E+00    0.2450982725E+00    0.2652782394E-03    0.1243553235E+00    0.4386368819E+00
    0.2700000000E+08    0.5559317928E+00    0.2449919691E+00    0.2545946530E-03    0.1243696149E+00    0.4387610627E+00
