  Pressure (Pa) 22mC5-400 (mol/kg) 3mC6-400 (mol/kg) 33mC5-400 (mol/kg) 23mC5-400 (mol/kg) C7-400 (mol/kg)
    0.1000000000E+01    0.2123451236E-02    0.5191170519E-03    0.1917771202E-03    0.1864272106E-03    0.1684876948E-01
    0.3000000000E+01    0.6324900089E-02    0.1481367199E-02    0.5500855649E-03    0.5552945671E-03    0.4809191323E-01
    0.5000000000E+01    0.1046684965E-01    0.2354072723E-02    0.8786058458E-03    0.9189427860E-03    0.7644203848E-01
    0.7000000000E+01    0.1455059270E-01    0.3149160830E-02    0.1181247613E-02    0.1277485236E-02    0.1022838647E+00
    0.9000000000E+01    0.1857738456E-01    0.3876531132E-02    0.1461241572E-02    0.1631032001E-02    0.1259367625E+00
    0.1100000000E+02    0.2254844443E-01    0.4544468871E-02    0.1721280586E-02    0.1979690001E-02    0.1476680654E+00
    0.1300000000E+02    0.2646495672E-01    0.5159961056E-02    0.1963627172E-02    0.2323563099E-02    0.1677032547E+00
    0.1500000000E+02    0.3032807222E-01    0.5728941115E-02    0.2190196343E-02    0.2662752217E-02    0.1862338430E+00
    0.1700000000E+02    0.3413890932E-01    0.6256480239E-02    0.2402620110E-02    0.2997355431E-02    0.2034235391E+00
    0.1900000000E+02    0.3789855515E-01    0.6746938493E-02    0.2602298213E-02    0.3327468078E-02    0.2194131187E+00
    0.2100000000E+02    0.4160806661E-01    0.7204085224E-02    0.2790438356E-02    0.3653182846E-02    0.2343243044E+00
    0.2300000000E+02    0.4526847148E-01    0.7631195810E-02    0.2968088404E-02    0.3974589866E-02    0.2482628848E+00
    0.2500000000E+02    0.4888076937E-01    0.8031129996E-02    0.3136162328E-02    0.4291776800E-02    0.2613212397E+00
    0.2700000000E+02    0.5244593267E-01    0.8406395789E-02    0.3295461278E-02    0.4604828926E-02    0.2735803998E+00
    0.2900000000E+02    0.5596490752E-01    0.8759201910E-02    0.3446690809E-02    0.4913829217E-02    0.2851117380E+00
    0.3100000000E+02    0.5943861462E-01    0.9091501142E-02    0.3590475042E-02    0.5218858418E-02    0.2959783673E+00
    0.3300000000E+02    0.6286795016E-01    0.9405026347E-02    0.3727368395E-02    0.5519995121E-02    0.3062363023E+00
    0.3500000000E+02    0.6625378656E-01    0.9701320576E-02    0.3857865333E-02    0.5817315837E-02    0.3159354300E+00
    0.3700000000E+02    0.6959697326E-01    0.9981762360E-02    0.3982408530E-02    0.6110895063E-02    0.3251203263E+00
    0.3900000000E+02    0.7289833753E-01    0.1024758707E-01    0.4101395731E-02    0.6400805347E-02    0.3338309439E+00
    0.4100000000E+02    0.7615868511E-01    0.1049990501E-01    0.4215185542E-02    0.6687117354E-02    0.3421031975E+00
    0.4300000000E+02    0.7937880097E-01    0.1073971687E-01    0.4324102348E-02    0.6969899926E-02    0.3499694610E+00
    0.4500000000E+02    0.8255944994E-01    0.1096792692E-01    0.4428440503E-02    0.7249220137E-02    0.3574589939E+00
    0.4700000000E+02    0.8570137734E-01    0.1118535434E-01    0.4528467910E-02    0.7525143355E-02    0.3645983071E+00
    0.4900000000E+02    0.8880530966E-01    0.1139274301E-01    0.4624429101E-02    0.7797733292E-02    0.3714114783E+00
    0.1000000000E+02    0.2056980617E-01    0.4217465122E-02    0.1593605026E-02    0.1805965535E-02    0.1370276418E+00
    0.3000000000E+02    0.5770736296E-01    0.8927801808E-02    0.3519477426E-02    0.5066835242E-02    0.2906244862E+00
    0.5000000000E+02    0.9034324966E-01    0.1149288678E-01    0.4670955552E-02    0.7932797749E-02    0.3747026876E+00
    0.7000000000E+02    0.1192707532E+00    0.1310459013E-01    0.5433555247E-02    0.1047342418E-01    0.4278042547E+00
    0.9000000000E+02    0.1451053794E+00    0.1421000631E-01    0.5959878447E-02    0.1274269645E-01    0.4644126629E+00
    0.1100000000E+03    0.1683320594E+00    0.1501456079E-01    0.6327045745E-02    0.1478314627E-01    0.4911942556E+00
    0.1300000000E+03    0.1893381011E+00    0.1562584274E-01    0.6580474417E-02    0.1662874450E-01    0.5116465552E+00
    0.1500000000E+03    0.2084366564E+00    0.1610564406E-01    0.6749670225E-02    0.1830695879E-01    0.5277818147E+00
    0.1700000000E+03    0.2258837354E+00    0.1649197852E-01    0.6855073808E-02    0.1984024558E-01    0.5408401233E+00
    0.1900000000E+03    0.2418907432E+00    0.1680951229E-01    0.6911470400E-02    0.2124714936E-01    0.5516275578E+00
    0.2100000000E+03    0.2566338529E+00    0.1707494741E-01    0.6929879381E-02    0.2254312469E-01    0.5606908906E+00
    0.2300000000E+03    0.2702611082E+00    0.1729999445E-01    0.6918691338E-02    0.2374115898E-01    0.5684141657E+00
    0.2500000000E+03    0.2828978703E+00    0.1749310649E-01    0.6884397005E-02    0.2485225022E-01    0.5750750872E+00
    0.2700000000E+03    0.2946510440E+00    0.1766053736E-01    0.6832077888E-02    0.2588577753E-01    0.5808794709E+00
    0.2900000000E+03    0.3056123885E+00    0.1780701262E-01    0.6765749085E-02    0.2684979160E-01    0.5859831107E+00
    0.3100000000E+03    0.3158611377E+00    0.1793616908E-01    0.6688605975E-02    0.2775124445E-01    0.5905061178E+00
    0.3300000000E+03    0.3254660921E+00    0.1805085096E-01    0.6603205855E-02    0.2859617287E-01    0.5945425924E+00
    0.3500000000E+03    0.3344873026E+00    0.1815331442E-01    0.6511604207E-02    0.2938984617E-01    0.5981673092E+00
    0.3700000000E+03    0.3429774360E+00    0.1824537182E-01    0.6415458474E-02    0.3013688587E-01    0.6014404414E+00
    0.3900000000E+03    0.3509828913E+00    0.1832849564E-01    0.6316108098E-02    0.3084136367E-01    0.6044109618E+00
    0.4100000000E+03    0.3585447173E+00    0.1840389439E-01    0.6214636913E-02    0.3150688190E-01    0.6071191358E+00
    0.4300000000E+03    0.3656993730E+00    0.1847256920E-01    0.6111922216E-02    0.3213664023E-01    0.6095983763E+00
    0.4500000000E+03    0.3724793602E+00    0.1853535633E-01    0.6008673666E-02    0.3273349115E-01    0.6118766430E+00
    0.4700000000E+03    0.3789137537E+00    0.1859295972E-01    0.5905464341E-02    0.3329998648E-01    0.6139775128E+00
    0.4900000000E+03    0.3850286476E+00    0.1864597613E-01    0.5802755671E-02    0.3383841652E-01    0.6159210070E+00
    0.1000000000E+03    0.1570185304E+00    0.1464170465E-01    0.6160026108E-02    0.1378922774E-01    0.4787658155E+00
    0.3000000000E+03    0.3108213144E+00    0.1787356211E-01    0.6728356314E-02    0.2730794131E-01    0.5883107924E+00
    0.5000000000E+03    0.3879737157E+00    0.1867092630E-01    0.5751707785E-02    0.3409775952E-01    0.6168391847E+00
    0.7000000000E+03    0.4347269679E+00    0.1902065316E-01    0.4813599295E-02    0.3821723623E-01    0.6300270020E+00
    0.9000000000E+03    0.4661546630E+00    0.1921208224E-01    0.4067194912E-02    0.4098964306E-01    0.6376427035E+00
    0.1100000000E+04    0.4887356796E+00    0.1933016810E-01    0.3488672758E-02    0.4298398142E-01    0.6426084933E+00
    0.1300000000E+04    0.5057390895E+00    0.1940865032E-01    0.3037468857E-02    0.4448747285E-01    0.6461057677E+00
    0.1500000000E+04    0.5189985635E+00    0.1946350892E-01    0.2680449703E-02    0.4566128990E-01    0.6487038999E+00
    0.1700000000E+04    0.5296236573E+00    0.1950325196E-01    0.2393414552E-02    0.4660299758E-01    0.6507113087E+00
    0.1900000000E+04    0.5383254195E+00    0.1953280557E-01    0.2159073548E-02    0.4737514465E-01    0.6523096695E+00
    0.2100000000E+04    0.5455805705E+00    0.1955520825E-01    0.1965031280E-02    0.4801968345E-01    0.6536129923E+00
    0.2300000000E+04    0.5517206355E+00    0.1957242920E-01    0.1802293139E-02    0.4856580045E-01    0.6546964608E+00
    0.2500000000E+04    0.5569832619E+00    0.1958579645E-01    0.1664234563E-02    0.4903442570E-01    0.6556116747E+00
    0.2700000000E+04    0.5615432117E+00    0.1959623538E-01    0.1545901189E-02    0.4944095688E-01    0.6563952316E+00
    0.2900000000E+04    0.5655318429E+00    0.1960440867E-01    0.1443532328E-02    0.4979697206E-01    0.6570738138E+00
    0.3100000000E+04    0.5690497758E+00    0.1961080204E-01    0.1354233134E-02    0.5011134358E-01    0.6576673358E+00
    0.3300000000E+04    0.5721753726E+00    0.1961577863E-01    0.1275746048E-02    0.5039098382E-01    0.6581909644E+00
    0.3500000000E+04    0.5749705594E+00    0.1961961470E-01    0.1206289170E-02    0.5064135749E-01    0.6586564551E+00
    0.3700000000E+04    0.5774849129E+00    0.1962252363E-01    0.1144440325E-02    0.5086684126E-01    0.6590730608E+00
    0.3900000000E+04    0.5797585881E+00    0.1962467242E-01    0.1089052754E-02    0.5107098140E-01    0.6594481653E+00
    0.4100000000E+04    0.5818244506E+00    0.1962619333E-01    0.1039192991E-02    0.5125668160E-01    0.6597877327E+00
    0.4300000000E+04    0.5837096563E+00    0.1962719227E-01    0.9940945242E-03    0.5142634202E-01    0.6600966334E+00
    0.4500000000E+04    0.5854368378E+00    0.1962775478E-01    0.9531228242E-03    0.5158196381E-01    0.6603788844E+00
    0.4700000000E+04    0.5870250065E+00    0.1962795063E-01    0.9157486640E-03    0.5172522865E-01    0.6606378282E+00
    0.4900000000E+04    0.5884902486E+00    0.1962783710E-01    0.8815275575E-03    0.5185755997E-01    0.6608762691E+00
    0.1000000000E+04    0.4783002541E+00    0.1927756571E-01    0.3759577602E-02    0.4206204226E-01    0.6403617787E+00
    0.3000000000E+04    0.5673443058E+00    0.1960780276E-01    0.1397402897E-02    0.4995889222E-01    0.6573801663E+00
    0.5000000000E+04    0.5891811347E+00    0.1962767946E-01    0.8654796569E-03    0.5192001173E-01    0.6609885563E+00
    0.7000000000E+04    0.5990022793E+00    0.1961635353E-01    0.6436138389E-03    0.5281270636E-01    0.6625781615E+00
    0.9000000000E+04    0.6045771982E+00    0.1959904863E-01    0.5227550862E-03    0.5332546280E-01    0.6634801802E+00
    0.1100000000E+05    0.6081679607E+00    0.1958103040E-01    0.4464928461E-03    0.5365959863E-01    0.6640648631E+00
    0.1300000000E+05    0.6106729471E+00    0.1956370635E-01    0.3937131029E-03    0.5389540001E-01    0.6644765141E+00
    0.1500000000E+05    0.6125195452E+00    0.1954744562E-01    0.3548082716E-03    0.5407121778E-01    0.6647831891E+00
    0.1700000000E+05    0.6139369452E+00    0.1953229150E-01    0.3247953350E-03    0.5420770107E-01    0.6650212462E+00
    0.1900000000E+05    0.6150590616E+00    0.1951818096E-01    0.3008348565E-03    0.5431696345E-01    0.6652119069E+00
    0.2100000000E+05    0.6159693672E+00    0.1950502045E-01    0.2811898512E-03    0.5440658575E-01    0.6653684073E+00
    0.2300000000E+05    0.6167225932E+00    0.1949271342E-01    0.2647371560E-03    0.5448155827E-01    0.6654994405E+00
    0.2500000000E+05    0.6173561163E+00    0.1948117000E-01    0.2507174623E-03    0.5454530238E-01    0.6656109573E+00
    0.2700000000E+05    0.6178963307E+00    0.1947030993E-01    0.2385983643E-03    0.5460024363E-01    0.6657071722E+00
    0.2900000000E+05    0.6183624049E+00    0.1946006279E-01    0.2279950131E-03    0.5464815044E-01    0.6657911558E+00
    0.3100000000E+05    0.6187685953E+00    0.1945036715E-01    0.2186219569E-03    0.5469034317E-01    0.6658652002E+00
    0.3300000000E+05    0.6191257249E+00    0.1944116954E-01    0.2102627399E-03    0.5472782810E-01    0.6659310514E+00
    0.3500000000E+05    0.6194421577E+00    0.1943242339E-01    0.2027500543E-03    0.5476138586E-01    0.6659900645E+00
    0.3700000000E+05    0.6197244597E+00    0.1942408799E-01    0.1959523995E-03    0.5479163165E-01    0.6660433069E+00
    0.3900000000E+05    0.6199778570E+00    0.1941612763E-01    0.1897648836E-03    0.5481905699E-01    0.6660916321E+00
    0.4100000000E+05    0.6202065611E+00    0.1940851092E-01    0.1841027372E-03    0.5484405949E-01    0.6661357305E+00
    0.4300000000E+05    0.6204140037E+00    0.1940121010E-01    0.1788966478E-03    0.5486696439E-01    0.6661761670E+00
    0.4500000000E+05    0.6206030091E+00    0.1939420055E-01    0.1740893430E-03    0.5488804035E-01    0.6662134085E+00
    0.4700000000E+05    0.6207759228E+00    0.1938746037E-01    0.1696330480E-03    0.5490751135E-01    0.6662478442E+00
    0.4900000000E+05    0.6209347090E+00    0.1938096998E-01    0.1654875661E-03    0.5492556564E-01    0.6662798017E+00
    0.1000000000E+05    0.6065480364E+00    0.1959000129E-01    0.4807769209E-03    0.5350838055E-01    0.6638004985E+00
    0.3000000000E+05    0.6185722420E+00    0.1945514955E-01    0.2231695718E-03    0.5466989202E-01    0.6658293006E+00
    0.5000000000E+05    0.6210093324E+00    0.1937781289E-01    0.1635205222E-03    0.5493411232E-01    0.6662949395E+00
    0.7000000000E+05    0.6220530365E+00    0.1932434418E-01    0.1344102696E-03    0.5505904389E-01    0.6665169998E+00
    0.9000000000E+05    0.6226309354E+00    0.1928352086E-01    0.1164633733E-03    0.5513472668E-01    0.6666523496E+00
    0.1100000000E+06    0.6229970399E+00    0.1925051475E-01    0.1040184249E-03    0.5518682476E-01    0.6667459407E+00
    0.1300000000E+06    0.6232491877E+00    0.1922281771E-01    0.9475167667E-04    0.5522559620E-01    0.6668158274E+00
    0.1500000000E+06    0.6234330536E+00    0.1919896125E-01    0.8751307173E-04    0.5525600121E-01    0.6668707761E+00
    0.1700000000E+06    0.6235728134E+00    0.1917801194E-01    0.8166063018E-04    0.5528075531E-01    0.6669156034E+00
    0.1900000000E+06    0.6236824559E+00    0.1915933959E-01    0.7680440485E-04    0.5530148170E-01    0.6669531973E+00
    0.2100000000E+06    0.6237706333E+00    0.1914249884E-01    0.7269219924E-04    0.5531921650E-01    0.6669854062E+00
    0.2300000000E+06    0.6238429829E+00    0.1912716325E-01    0.6915279523E-04    0.5533465568E-01    0.6670134750E+00
    0.2500000000E+06    0.6239033336E+00    0.1911308650E-01    0.6606536464E-04    0.5534828621E-01    0.6670382763E+00
    0.2700000000E+06    0.6239543764E+00    0.1910007810E-01    0.6334190147E-04    0.5536046038E-01    0.6670604427E+00
    0.2900000000E+06    0.6239980571E+00    0.1908798775E-01    0.6091659722E-04    0.5537144020E-01    0.6670804454E+00
    0.3100000000E+06    0.6240358175E+00    0.1907669475E-01    0.5873913500E-04    0.5538142520E-01    0.6670986439E+00
    0.3300000000E+06    0.6240687480E+00    0.1906610072E-01    0.5677030220E-04    0.5539057042E-01    0.6671153178E+00
    0.3500000000E+06    0.6240976885E+00    0.1905612444E-01    0.5497903083E-04    0.5539899841E-01    0.6671306884E+00
    0.3700000000E+06    0.6241232963E+00    0.1904669802E-01    0.5334034734E-04    0.5540680760E-01    0.6671449338E+00
    0.3900000000E+06    0.6241460928E+00    0.1903776420E-01    0.5183391929E-04    0.5541407805E-01    0.6671581988E+00
    0.4100000000E+06    0.6241664970E+00    0.1902927420E-01    0.5044300398E-04    0.5542087569E-01    0.6671706029E+00
    0.4300000000E+06    0.6241848494E+00    0.1902118615E-01    0.4915367394E-04    0.5542725540E-01    0.6671822456E+00
    0.4500000000E+06    0.6242014294E+00    0.1901346382E-01    0.4795423714E-04    0.5543326329E-01    0.6671932106E+00
    0.4700000000E+06    0.6242164684E+00    0.1900607568E-01    0.4683479665E-04    0.5543893846E-01    0.6672035688E+00
    0.4900000000E+06    0.6242301597E+00    0.1899899408E-01    0.4578691173E-04    0.5544431430E-01    0.6672133809E+00
    0.1000000000E+06    0.6228325140E+00    0.1926623088E-01    0.1097389336E-03    0.5516289827E-01    0.6667029138E+00
    0.3000000000E+06    0.6240176023E+00    0.1908224818E-01    0.5979955680E-04    0.5537654649E-01    0.6670897511E+00
    0.5000000000E+06    0.6242365517E+00    0.1899556052E-01    0.4528749691E-04    0.5544689910E-01    0.6672180989E+00
    0.7000000000E+06    0.6243222485E+00    0.1893834697E-01    0.3773534073E-04    0.5548814148E-01    0.6672933638E+00
    0.9000000000E+06    0.6243651919E+00    0.1889560220E-01    0.3293556848E-04    0.5551711439E-01    0.6673461972E+00
    0.1100000000E+07    0.6243894838E+00    0.1886147957E-01    0.2954815567E-04    0.5553938115E-01    0.6673867622E+00
    0.1300000000E+07    0.6244041646E+00    0.1883308546E-01    0.2699689963E-04    0.5555743768E-01    0.6674196251E+00
    0.1500000000E+07    0.6244133431E+00    0.1880877481E-01    0.2498811843E-04    0.5557261137E-01    0.6674472161E+00
    0.1700000000E+07    0.6244191354E+00    0.1878752252E-01    0.2335451158E-04    0.5558569003E-01    0.6674709776E+00
    0.1900000000E+07    0.6244227313E+00    0.1876864650E-01    0.2199293837E-04    0.5559717863E-01    0.6674918343E+00
    0.2100000000E+07    0.6244248456E+00    0.1875166994E-01    0.2083593396E-04    0.5560741989E-01    0.6675104133E+00
    0.2300000000E+07    0.6244259298E+00    0.1873624643E-01    0.1983728670E-04    0.5561665683E-01    0.6675271595E+00
    0.2500000000E+07    0.6244262811E+00    0.1872211636E-01    0.1896415062E-04    0.5562506802E-01    0.6675423996E+00
    0.2700000000E+07    0.6244261013E+00    0.1870908016E-01    0.1819246082E-04    0.5563278840E-01    0.6675563801E+00
    0.2900000000E+07    0.6244255315E+00    0.1869698113E-01    0.1750413350E-04    0.5563992242E-01    0.6675692922E+00
    0.3100000000E+07    0.6244246726E+00    0.1868569396E-01    0.1688528410E-04    0.5564655257E-01    0.6675812866E+00
    0.3300000000E+07    0.6244235980E+00    0.1867511689E-01    0.1632505352E-04    0.5565274510E-01    0.6675924842E+00
    0.3500000000E+07    0.6244223619E+00    0.1866516612E-01    0.1581481148E-04    0.5565855406E-01    0.6676029837E+00
    0.3700000000E+07    0.6244210052E+00    0.1865577188E-01    0.1534760190E-04    0.5566402406E-01    0.6676128667E+00
    0.3900000000E+07    0.6244195588E+00    0.1864687542E-01    0.1491774794E-04    0.5566919237E-01    0.6676222010E+00
    0.4100000000E+07    0.6244180464E+00    0.1863842682E-01    0.1452056515E-04    0.5567409046E-01    0.6676310441E+00
    0.4300000000E+07    0.6244164865E+00    0.1863038329E-01    0.1415214941E-04    0.5567874512E-01    0.6676394448E+00
    0.4500000000E+07    0.6244148933E+00    0.1862270792E-01    0.1380921770E-04    0.5568317935E-01    0.6676474452E+00
    0.4700000000E+07    0.6244132782E+00    0.1861536858E-01    0.1348898681E-04    0.5568741304E-01    0.6676550813E+00
    0.4900000000E+07    0.6244116499E+00    0.1860833719E-01    0.1318907977E-04    0.5569146351E-01    0.6676623848E+00
    0.1000000000E+07    0.6243789298E+00    0.1887768480E-01    0.3111095932E-04    0.5552889065E-01    0.6673676559E+00
    0.3000000000E+07    0.6244251331E+00    0.1869124290E-01    0.1718676289E-04    0.5564329601E-01    0.6675753960E+00
    0.5000000000E+07    0.6244108330E+00    0.1860492914E-01    0.1304609767E-04    0.5569342486E-01    0.6676659206E+00
    0.7000000000E+07    0.6243948870E+00    0.1854824057E-01    0.1088039828E-04    0.5572589530E-01    0.6677243844E+00
    0.9000000000E+07    0.6243805688E+00    0.1850599071E-01    0.9500952711E-05    0.5574994883E-01    0.6677676062E+00
    0.1100000000E+08    0.6243679694E+00    0.1847231292E-01    0.8526223821E-05    0.5576906039E-01    0.6678018951E+00
    0.1300000000E+08    0.6243568224E+00    0.1844431706E-01    0.7791531296E-05    0.5578491770E-01    0.6678303102E+00
    0.1500000000E+08    0.6243468636E+00    0.1842036488E-01    0.7212750396E-05    0.5579846898E-01    0.6678545677E+00
    0.1700000000E+08    0.6243378793E+00    0.1839943763E-01    0.6741886210E-05    0.5581030037E-01    0.6678757275E+00
    0.1900000000E+08    0.6243297028E+00    0.1838085851E-01    0.6349318271E-05    0.5582079956E-01    0.6678944898E+00
    0.2100000000E+08    0.6243222044E+00    0.1836415497E-01    0.6015656234E-05    0.5583023637E-01    0.6679113416E+00
    0.2300000000E+08    0.6243152820E+00    0.1834898403E-01    0.5727610024E-05    0.5583880615E-01    0.6679266353E+00
    0.2500000000E+08    0.6243088545E+00    0.1833508886E-01    0.5475728779E-05    0.5584665487E-01    0.6679406339E+00
    0.2700000000E+08    0.6243028565E+00    0.1832227216E-01    0.5253085485E-05    0.5585389450E-01    0.6679535392E+00
