  Pressure (Pa) 22mC5-400 (mol/kg) 3mC6-400 (mol/kg) 33mC5-400 (mol/kg) 23mC5-400 (mol/kg) C7-400 (mol/kg)
    0.1000000000E+01    0.2121602477E-02    0.5294383477E-03    0.3894915826E-03    0.6519276142E-03    0.3436420639E-02
    0.3000000000E+01    0.6308546945E-02    0.1568644251E-02    0.1150015049E-02    0.1938510070E-02    0.1018217194E-01
    0.5000000000E+01    0.1042219772E-01    0.2582432713E-02    0.1886708020E-02    0.3202590178E-02    0.1676369703E-01
    0.7000000000E+01    0.1446455279E-01    0.3571734428E-02    0.2600470446E-02    0.4444781194E-02    0.2318700000E-01
    0.9000000000E+01    0.1843753739E-01    0.4537435084E-02    0.3292160053E-02    0.5665674048E-02    0.2945779480E-01
    0.1100000000E+02    0.2234300729E-01    0.5480378054E-02    0.3962594749E-02    0.6865838347E-02    0.3558152262E-01
    0.1300000000E+02    0.2618275189E-01    0.6401366893E-02    0.4612554880E-02    0.8045823332E-02    0.4156336798E-01
    0.1500000000E+02    0.2995849714E-01    0.7301167665E-02    0.5242785316E-02    0.9206158769E-02    0.4740827368E-01
    0.1700000000E+02    0.3367190832E-01    0.8180511102E-02    0.5853997417E-02    0.1034735581E-01    0.5312095475E-01
    0.1900000000E+02    0.3732459271E-01    0.9040094619E-02    0.6446870857E-02    0.1146990780E-01    0.5870591144E-01
    0.2100000000E+02    0.4091810204E-01    0.9880584199E-02    0.7022055341E-02    0.1257429104E-01    0.6416744131E-01
    0.2300000000E+02    0.4445393491E-01    0.1070261614E-01    0.7580172203E-02    0.1366096552E-01    0.6950965054E-01
    0.2500000000E+02    0.4793353901E-01    0.1150679868E-01    0.8121815908E-02    0.1473037562E-01    0.7473646447E-01
    0.2700000000E+02    0.5135831327E-01    0.1229371357E-01    0.8647555458E-02    0.1578295073E-01    0.7985163747E-01
    0.2900000000E+02    0.5472960992E-01    0.1306391743E-01    0.9157935713E-02    0.1681910592E-01    0.8485876212E-01
    0.3100000000E+02    0.5804873636E-01    0.1381794318E-01    0.9653478629E-02    0.1783924252E-01    0.8976127789E-01
    0.3300000000E+02    0.6131695707E-01    0.1455630122E-01    0.1013468442E-01    0.1884374865E-01    0.9456247920E-01
    0.3500000000E+02    0.6453549531E-01    0.1527948062E-01    0.1060203265E-01    0.1983299982E-01    0.9926552300E-01
    0.3700000000E+02    0.6770553482E-01    0.1598795026E-01    0.1105598328E-01    0.2080735937E-01    0.1038734358E+00
    0.3900000000E+02    0.7082822135E-01    0.1668215984E-01    0.1149697760E-01    0.2176717902E-01    0.1083891206E+00
    0.4100000000E+02    0.7390466423E-01    0.1736254082E-01    0.1192543917E-01    0.2271279927E-01    0.1128153628E+00
    0.4300000000E+02    0.7693593780E-01    0.1802950739E-01    0.1234177467E-01    0.2364454992E-01    0.1171548362E+00
    0.4500000000E+02    0.7992308273E-01    0.1868345731E-01    0.1274637471E-01    0.2456275041E-01    0.1214101088E+00
    0.4700000000E+02    0.8286710738E-01    0.1932477268E-01    0.1313961461E-01    0.2546771029E-01    0.1255836476E+00
    0.4900000000E+02    0.8576898903E-01    0.1995382077E-01    0.1352185508E-01    0.2635972953E-01    0.1296778239E+00
    0.1000000000E+02    0.2039859832E-01    0.5011700152E-02    0.3629984638E-02    0.6268312473E-02    0.3253771222E-01
    0.3000000000E+02    0.5639561440E-01    0.1344292016E-01    0.9407530079E-02    0.1733115198E-01    0.8732288691E-01
    0.5000000000E+02    0.8720442343E-01    0.2026385546E-01    0.1370895944E-01    0.2680097764E-01    0.1316958669E+00
    0.7000000000E+02    0.1139165544E+00    0.2589956912E-01    0.1695119352E-01    0.3501284782E-01    0.1684006664E+00
    0.9000000000E+02    0.1373330570E+00    0.3063724456E-01    0.1941583509E-01    0.4221266631E-01    0.1992919469E+00
    0.1100000000E+03    0.1580553022E+00    0.3467794235E-01    0.2129884703E-01    0.4858504859E-01    0.2256686891E+00
    0.1300000000E+03    0.1765437934E+00    0.3816666538E-01    0.2274000532E-01    0.5427137138E-01    0.2484680702E+00
    0.1500000000E+03    0.1931573718E+00    0.4121064682E-01    0.2384110233E-01    0.5938180557E-01    0.2683834240E+00
    0.1700000000E+03    0.2081800220E+00    0.4389091387E-01    0.2467759455E-01    0.6400354352E-01    0.2859388465E+00
    0.1900000000E+03    0.2218396141E+00    0.4626984569E-01    0.2530627802E-01    0.6820655162E-01    0.3015379700E+00
    0.2100000000E+03    0.2343212711E+00    0.4839625637E-01    0.2577047584E-01    0.7204767353E-01    0.3154967730E+00
    0.2300000000E+03    0.2457770779E+00    0.5030889997E-01    0.2610362203E-01    0.7557361024E-01    0.3280662093E+00
    0.2500000000E+03    0.2563332460E+00    0.5203894111E-01    0.2633178586E-01    0.7882311952E-01    0.3394481637E+00
    0.2700000000E+03    0.2660954816E+00    0.5361173077E-01    0.2647548045E-01    0.8182866358E-01    0.3498069221E+00
    0.2900000000E+03    0.2751530602E+00    0.5504810523E-01    0.2655097854E-01    0.8461766008E-01    0.3592775637E+00
    0.3100000000E+03    0.2835819596E+00    0.5636535108E-01    0.2657128280E-01    0.8721344376E-01    0.3679721981E+00
    0.3300000000E+03    0.2914472948E+00    0.5757793265E-01    0.2654685043E-01    0.8963601405E-01    0.3759846663E+00
    0.3500000000E+03    0.2988052319E+00    0.5869804718E-01    0.2648614019E-01    0.9190262260E-01    0.3833941307E+00
    0.3700000000E+03    0.3057045065E+00    0.5973605379E-01    0.2639602970E-01    0.9402823933E-01    0.3902678491E+00
    0.3900000000E+03    0.3121876384E+00    0.6070080836E-01    0.2628213673E-01    0.9602592562E-01    0.3966633408E+00
    0.4100000000E+03    0.3182919138E+00    0.6159992769E-01    0.2614906871E-01    0.9790713555E-01    0.4026300956E+00
    0.4300000000E+03    0.3240501829E+00    0.6243999970E-01    0.2600061794E-01    0.9968196109E-01    0.4082109341E+00
    0.4500000000E+03    0.3294915153E+00    0.6322675215E-01    0.2583991561E-01    0.1013593331E+00    0.4134430999E+00
    0.4700000000E+03    0.3346417396E+00    0.6396518921E-01    0.2566955391E-01    0.1029471870E+00    0.4183591435E+00
    0.4900000000E+03    0.3395238924E+00    0.6465970265E-01    0.2549168364E-01    0.1044526010E+00    0.4229876424E+00
    0.1000000000E+03    0.1479994124E+00    0.3273459524E-01    0.2042024566E-01    0.4549260130E-01    0.2129792337E+00
    0.3000000000E+03    0.2794417952E+00    0.5572065628E-01    0.2656732380E-01    0.8593838295E-01    0.3637156353E+00
    0.5000000000E+03    0.3418709710E+00    0.6499171580E-01    0.2540050383E-01    0.1051763991E+00    0.4252020547E+00
    0.7000000000E+03    0.3787598206E+00    0.7006017538E-01    0.2348346636E-01    0.1165599089E+00    0.4591768335E+00
    0.9000000000E+03    0.4031561494E+00    0.7327490376E-01    0.2170912115E-01    0.1240987498E+00    0.4809482468E+00
    0.1100000000E+04    0.4204738885E+00    0.7550336962E-01    0.2019275394E-01    0.1294575513E+00    0.4961917516E+00
    0.1300000000E+04    0.4333889269E+00    0.7714254659E-01    0.1891176286E-01    0.1334594741E+00    0.5075142548E+00
    0.1500000000E+04    0.4433803931E+00    0.7840055587E-01    0.1782373805E-01    0.1365597477E+00    0.5162874432E+00
    0.1700000000E+04    0.4513330661E+00    0.7939734214E-01    0.1689035030E-01    0.1390308081E+00    0.5233046618E+00
    0.1900000000E+04    0.4578085568E+00    0.8020704131E-01    0.1608098900E-01    0.1410456647E+00    0.5290579801E+00
    0.2100000000E+04    0.4631803277E+00    0.8087801437E-01    0.1537196574E-01    0.1427194196E+00    0.5338694948E+00
    0.2300000000E+04    0.4677062488E+00    0.8144319087E-01    0.1474501926E-01    0.1441315859E+00    0.5379592715E+00
    0.2500000000E+04    0.4715700066E+00    0.8192579050E-01    0.1418598415E-01    0.1453388288E+00    0.5414830062E+00
    0.2700000000E+04    0.4749059226E+00    0.8234266869E-01    0.1368376140E-01    0.1463826043E+00    0.5445540966E+00
    0.2900000000E+04    0.4778144480E+00    0.8270636487E-01    0.1322955625E-01    0.1472939290E+00    0.5472571810E+00
    0.3100000000E+04    0.4803721767E+00    0.8302640559E-01    0.1281632039E-01    0.1480964642E+00    0.5496567709E+00
    0.3300000000E+04    0.4826385104E+00    0.8331016119E-01    0.1243834302E-01    0.1488085687E+00    0.5518029378E+00
    0.3500000000E+04    0.4846602127E+00    0.8356342519E-01    0.1209094919E-01    0.1494447018E+00    0.5537351673E+00
    0.3700000000E+04    0.4864745904E+00    0.8379081600E-01    0.1177027491E-01    0.1500164043E+00    0.5554850354E+00
    0.3900000000E+04    0.4881117621E+00    0.8399606135E-01    0.1147309789E-01    0.1505329977E+00    0.5570781098E+00
    0.4100000000E+04    0.4895963055E+00    0.8418220382E-01    0.1119670872E-01    0.1510020921E+00    0.5585353238E+00
    0.4300000000E+04    0.4909484716E+00    0.8435175182E-01    0.1093881182E-01    0.1514299608E+00    0.5598739895E+00
    0.4500000000E+04    0.4921850944E+00    0.8450679217E-01    0.1069744843E-01    0.1518218210E+00    0.5611085538E+00
    0.4700000000E+04    0.4933202802E+00    0.8464907536E-01    0.1047093625E-01    0.1521820467E+00    0.5622511728E+00
    0.4900000000E+04    0.4943659374E+00    0.8478008089E-01    0.1025782166E-01    0.1525143319E+00    0.5633121519E+00
    0.1000000000E+04    0.4124936240E+00    0.7448129675E-01    0.2091906276E-01    0.1269872270E+00    0.4891818138E+00
    0.3000000000E+04    0.4791331079E+00    0.8287133883E-01    0.1301820146E-01    0.1477075426E+00    0.5484914970E+00
    0.5000000000E+04    0.4948584161E+00    0.8484175546E-01    0.1015588717E-01    0.1526709973E+00    0.5638148267E+00
    0.7000000000E+04    0.5018165032E+00    0.8570877863E-01    0.8586219797E-02    0.1548992804E+00    0.5711673264E+00
    0.9000000000E+04    0.5057252928E+00    0.8618666526E-01    0.7561710979E-02    0.1561691103E+00    0.5755778244E+00
    0.1100000000E+05    0.5082231855E+00    0.8648319019E-01    0.6826337917E-02    0.1569922071E+00    0.5785569053E+00
    0.1300000000E+05    0.5099544700E+00    0.8668103983E-01    0.6265817849E-02    0.1575708048E+00    0.5807239530E+00
    0.1500000000E+05    0.5112234941E+00    0.8681958244E-01    0.5820477687E-02    0.1580009041E+00    0.5823824519E+00
    0.1700000000E+05    0.5121925740E+00    0.8691990830E-01    0.5455726402E-02    0.1583339544E+00    0.5836995973E+00
    0.1900000000E+05    0.5129561253E+00    0.8699430618E-01    0.5149951448E-02    0.1586000275E+00    0.5847755265E+00
    0.2100000000E+05    0.5135727758E+00    0.8705040267E-01    0.4888863760E-02    0.1588178868E+00    0.5856740996E+00
    0.2300000000E+05    0.5140808389E+00    0.8709316954E-01    0.4662588917E-02    0.1589998534E+00    0.5864380855E+00
    0.2500000000E+05    0.5145064015E+00    0.8712597824E-01    0.4464056034E-02    0.1591543566E+00    0.5870972762E+00
    0.2700000000E+05    0.5148678359E+00    0.8715119019E-01    0.4288051413E-02    0.1592873614E+00    0.5876731054E+00
    0.2900000000E+05    0.5151784514E+00    0.8717050460E-01    0.4130635374E-02    0.1594032095E+00    0.5881814151E+00
    0.3100000000E+05    0.5154481242E+00    0.8718517248E-01    0.3988768288E-02    0.1595051382E+00    0.5886341857E+00
    0.3300000000E+05    0.5156843356E+00    0.8719613307E-01    0.3860062540E-02    0.1595956112E+00    0.5890406578E+00
    0.3500000000E+05    0.5158928553E+00    0.8720410366E-01    0.3742613201E-02    0.1596765378E+00    0.5894080811E+00
    0.3700000000E+05    0.5160782039E+00    0.8720964021E-01    0.3634879507E-02    0.1597494207E+00    0.5897422302E+00
    0.3900000000E+05    0.5162439728E+00    0.8721317933E-01    0.3535600048E-02    0.1598154597E+00    0.5900477654E+00
    0.4100000000E+05    0.5163930510E+00    0.8721506789E-01    0.3443730909E-02    0.1598756242E+00    0.5903284929E+00
    0.4300000000E+05    0.5165277884E+00    0.8721558435E-01    0.3358399761E-02    0.1599307065E+00    0.5905875543E+00
    0.4500000000E+05    0.5166501156E+00    0.8721495432E-01    0.3278871257E-02    0.1599813606E+00    0.5908275674E+00
    0.4700000000E+05    0.5167616337E+00    0.8721336212E-01    0.3204520594E-02    0.1600281315E+00    0.5910507327E+00
    0.4900000000E+05    0.5168636809E+00    0.8721095949E-01    0.3134813044E-02    0.1600714767E+00    0.5912589144E+00
    0.1000000000E+05    0.5070984540E+00    0.8635092199E-01    0.7166866316E-02    0.1566201531E+00    0.5771966676E+00
    0.3000000000E+05    0.5153178913E+00    0.8717835457E-01    0.4057920434E-02    0.1594557447E+00    0.5884141112E+00
    0.5000000000E+05    0.5169115124E+00    0.8720949443E-01    0.3101553950E-02    0.1600919881E+00    0.5913578928E+00
    0.7000000000E+05    0.5175696841E+00    0.8715911521E-01    0.2595781723E-02    0.1603912230E+00    0.5928375573E+00
    0.9000000000E+05    0.5179214486E+00    0.8709420665E-01    0.2271694454E-02    0.1605719294E+00    0.5937648623E+00
    0.1100000000E+06    0.5181364530E+00    0.8702880288E-01    0.2041802010E-02    0.1606960635E+00    0.5944163134E+00
    0.1300000000E+06    0.5182791771E+00    0.8696654668E-01    0.1868043411E-02    0.1607883083E+00    0.5949071980E+00
    0.1500000000E+06    0.5183793489E+00    0.8690828147E-01    0.1730871924E-02    0.1608605701E+00    0.5952950434E+00
    0.1700000000E+06    0.5184525148E+00    0.8685398580E-01    0.1619092014E-02    0.1609193548E+00    0.5956121247E+00
    0.1900000000E+06    0.5185075642E+00    0.8680336983E-01    0.1525773289E-02    0.1609685450E+00    0.5958781165E+00
    0.2100000000E+06    0.5185499309E+00    0.8675607912E-01    0.1446367869E-02    0.1610106161E+00    0.5961057805E+00
    0.2300000000E+06    0.5185831140E+00    0.8671176662E-01    0.1377752382E-02    0.1610472288E+00    0.5963038030E+00
    0.2500000000E+06    0.5186094625E+00    0.8667011654E-01    0.1317701965E-02    0.1610795440E+00    0.5964783295E+00
    0.2700000000E+06    0.5186306077E+00    0.8663084983E-01    0.1264583529E-02    0.1611084009E+00    0.5966338470E+00
    0.2900000000E+06    0.5186477155E+00    0.8659372295E-01    0.1217167916E-02    0.1611344231E+00    0.5967737190E+00
    0.3100000000E+06    0.5186616395E+00    0.8655852414E-01    0.1174510079E-02    0.1611580852E+00    0.5969005241E+00
    0.3300000000E+06    0.5186730174E+00    0.8652506928E-01    0.1135869995E-02    0.1611797557E+00    0.5970162769E+00
    0.3500000000E+06    0.5186823345E+00    0.8649319795E-01    0.1100658888E-02    0.1611997260E+00    0.5971225779E+00
    0.3700000000E+06    0.5186899661E+00    0.8646276992E-01    0.1068401737E-02    0.1612182297E+00    0.5972207172E+00
    0.3900000000E+06    0.5186962060E+00    0.8643366210E-01    0.1038710539E-02    0.1612354569E+00    0.5973117480E+00
    0.4100000000E+06    0.5187012874E+00    0.8640576609E-01    0.1011264863E-02    0.1612515640E+00    0.5973965402E+00
    0.4300000000E+06    0.5187053976E+00    0.8637898598E-01    0.9857974596E-03    0.1612666813E+00    0.5974758196E+00
    0.4500000000E+06    0.5187086880E+00    0.8635323657E-01    0.9620834464E-03    0.1612809182E+00    0.5975501969E+00
    0.4700000000E+06    0.5187112825E+00    0.8632844193E-01    0.9399320597E-03    0.1612943672E+00    0.5976201911E+00
    0.4900000000E+06    0.5187132834E+00    0.8630453406E-01    0.9191802866E-03    0.1613071075E+00    0.5976862458E+00
    0.1000000000E+06    0.5180407905E+00    0.8706123249E-01    0.2147981591E-02    0.1606390801E+00    0.5941158775E+00
    0.3000000000E+06    0.5186550315E+00    0.8657589464E-01    0.1195294605E-02    0.1611465240E+00    0.5968386178E+00
    0.5000000000E+06    0.5187140882E+00    0.8629289335E-01    0.9092846550E-03    0.1613132336E+00    0.5977179174E+00
    0.7000000000E+06    0.5187135549E+00    0.8609464032E-01    0.7592319405E-03    0.1614110143E+00    0.5982145680E+00
    0.9000000000E+06    0.5186990781E+00    0.8594192202E-01    0.6634926204E-03    0.1614797611E+00    0.5985524012E+00
    0.1100000000E+07    0.5186808811E+00    0.8581764195E-01    0.5957655719E-03    0.1615326369E+00    0.5988051338E+00
    0.1300000000E+07    0.5186620750E+00    0.8571282646E-01    0.5446745398E-03    0.1615755453E+00    0.5990054744E+00
    0.1500000000E+07    0.5186437350E+00    0.8562217902E-01    0.5043997132E-03    0.1616116257E+00    0.5991705899E+00
    0.1700000000E+07    0.5186262333E+00    0.8554231052E-01    0.4716172021E-03    0.1616427419E+00    0.5993105312E+00
    0.1900000000E+07    0.5186096715E+00    0.8547092052E-01    0.4442739119E-03    0.1616700887E+00    0.5994316559E+00
    0.2100000000E+07    0.5185940425E+00    0.8540637550E-01    0.4210249106E-03    0.1616944772E+00    0.5995382242E+00
    0.2300000000E+07    0.5185792962E+00    0.8534747346E-01    0.4009478585E-03    0.1617164829E+00    0.5996332217E+00
    0.2500000000E+07    0.5185653674E+00    0.8529330406E-01    0.3833865386E-03    0.1617365288E+00    0.5997188168E+00
    0.2700000000E+07    0.5185521884E+00    0.8524316122E-01    0.3678597717E-03    0.1617549344E+00    0.5997966312E+00
    0.2900000000E+07    0.5185396948E+00    0.8519648617E-01    0.3540057159E-03    0.1617719473E+00    0.5998679075E+00
    0.3100000000E+07    0.5185278266E+00    0.8515282910E-01    0.3415463835E-03    0.1617877631E+00    0.5999336179E+00
    0.3300000000E+07    0.5185165300E+00    0.8511182253E-01    0.3302642439E-03    0.1618025389E+00    0.5999945364E+00
    0.3500000000E+07    0.5185057563E+00    0.8507316236E-01    0.3199863324E-03    0.1618164028E+00    0.6000512889E+00
    0.3700000000E+07    0.5184954622E+00    0.8503659406E-01    0.3105731792E-03    0.1618294607E+00    0.6001043880E+00
    0.3900000000E+07    0.5184856090E+00    0.8500190244E-01    0.3019109196E-03    0.1618418010E+00    0.6001542589E+00
    0.4100000000E+07    0.5184761620E+00    0.8496890395E-01    0.2939055615E-03    0.1618534985E+00    0.6002012579E+00
    0.4300000000E+07    0.5184670905E+00    0.8493744073E-01    0.2864787454E-03    0.1618646167E+00    0.6002456863E+00
    0.4500000000E+07    0.5184583665E+00    0.8490737606E-01    0.2795645589E-03    0.1618752103E+00    0.6002878012E+00
    0.4700000000E+07    0.5184499653E+00    0.8487859072E-01    0.2731071090E-03    0.1618853265E+00    0.6003278233E+00
    0.4900000000E+07    0.5184418644E+00    0.8485098013E-01    0.2670586495E-03    0.1618950064E+00    0.6003659441E+00
    0.1000000000E+07    0.5186901747E+00    0.8587690602E-01    0.6270276406E-03    0.1615077207E+00    0.5986868355E+00
    0.3000000000E+07    0.5185336860E+00    0.8517430503E-01    0.3476165070E-03    0.1617799942E+00    0.5999014061E+00
    0.5000000000E+07    0.5184379201E+00    0.8483758611E-01    0.2641747311E-03    0.1618996942E+00    0.6003843443E+00
    0.7000000000E+07    0.5183707937E+00    0.8461377724E-01    0.2204701960E-03    0.1619773512E+00    0.6006836374E+00
    0.9000000000E+07    0.5183191994E+00    0.8444585500E-01    0.1926096794E-03    0.1620349355E+00    0.6008993364E+00
    0.1100000000E+08    0.5182773102E+00    0.8431140884E-01    0.1729120076E-03    0.1620807212E+00    0.6010674270E+00
    0.1300000000E+08    0.5182420545E+00    0.8419928593E-01    0.1580586950E-03    0.1621187313E+00    0.6012048617E+00
    0.1500000000E+08    0.5182116185E+00    0.8410312032E-01    0.1463534302E-03    0.1621512280E+00    0.6013209486E+00
    0.1700000000E+08    0.5181848424E+00    0.8401893285E-01    0.1368279527E-03    0.1621796104E+00    0.6014213370E+00
    0.1900000000E+08    0.5181609402E+00    0.8394406928E-01    0.1288844559E-03    0.1622048047E+00    0.6015097082E+00
    0.2100000000E+08    0.5181393543E+00    0.8387667031E-01    0.1221314711E-03    0.1622274555E+00    0.6015885915E+00
    0.2300000000E+08    0.5181196753E+00    0.8381538274E-01    0.1163006121E-03    0.1622480300E+00    0.6016597986E+00
    0.2500000000E+08    0.5181015934E+00    0.8375919094E-01    0.1112009773E-03    0.1622668772E+00    0.6017246702E+00
    0.2700000000E+08    0.5180848687E+00    0.8370731314E-01    0.1066926155E-03    0.1622842649E+00    0.6017842262E+00
