  Pressure (Pa) 22mC5-400 (mol/kg) 3mC6-400 (mol/kg) 33mC5-400 (mol/kg) 23mC5-400 (mol/kg) C7-400 (mol/kg)
    0.1000000000E+01    0.2122221290E-02    0.5292745430E-03    0.6491477310E-03    0.2794789375E-03    0.3435361822E-02
    0.3000000000E+01    0.6314039533E-02    0.1567210561E-02    0.1916664504E-02    0.8315124387E-03    0.1017290432E-01
    0.5000000000E+01    0.1043724677E-01    0.2578558460E-02    0.3144481619E-02    0.1374517974E-02    0.1673865211E-01
    0.7000000000E+01    0.1449365045E-01    0.3564344764E-02    0.4334135690E-02    0.1908733315E-02    0.2313922783E-01
    0.9000000000E+01    0.1848499405E-01    0.4525543600E-02    0.5487088050E-02    0.2434387821E-02    0.2938091634E-01
    0.1100000000E+02    0.2241295986E-01    0.5463080003E-02    0.6604729285E-02    0.2951702801E-02    0.3546968598E-01
    0.1300000000E+02    0.2627917167E-01    0.6377832971E-02    0.7688383447E-02    0.3460891869E-02    0.4141120837E-01
    0.1500000000E+02    0.3008519724E-01    0.7270638302E-02    0.8739311963E-02    0.3962161272E-02    0.4721087655E-01
    0.1700000000E+02    0.3383255073E-01    0.8142291213E-02    0.9758717271E-02    0.4455710202E-02    0.5287382194E-01
    0.1900000000E+02    0.3752269494E-01    0.8993548781E-02    0.1074774621E-01    0.4941731097E-02    0.5840493007E-01
    0.2100000000E+02    0.4115704345E-01    0.9825132203E-02    0.1170749317E-01    0.5420409925E-02    0.6380885511E-01
    0.2300000000E+02    0.4473696272E-01    0.1063772890E-01    0.1263900303E-01    0.5891926449E-02    0.6909003343E-01
    0.2500000000E+02    0.4826377399E-01    0.1143199447E-01    0.1354327391E-01    0.6356454488E-02    0.7425269626E-01
    0.2700000000E+02    0.5173875515E-01    0.1220855453E-01    0.1442125973E-01    0.6814162158E-02    0.7930088137E-01
    0.2900000000E+02    0.5516314250E-01    0.1296800638E-01    0.1527387260E-01    0.7265212103E-02    0.8423844407E-01
    0.3100000000E+02    0.5853813241E-01    0.1371092061E-01    0.1610198508E-01    0.7709761717E-02    0.8906906740E-01
    0.3300000000E+02    0.6186488295E-01    0.1443784258E-01    0.1690643224E-01    0.8147963353E-02    0.9379627165E-01
    0.3500000000E+02    0.6514451539E-01    0.1514929381E-01    0.1768801368E-01    0.8579964526E-02    0.9842342331E-01
    0.3700000000E+02    0.6837811564E-01    0.1584577324E-01    0.1844749532E-01    0.9005908097E-02    0.1029537433E+00
    0.3900000000E+02    0.7156673566E-01    0.1652775847E-01    0.1918561116E-01    0.9425932465E-02    0.1073903150E+00
    0.4100000000E+02    0.7471139476E-01    0.1719570688E-01    0.1990306491E-01    0.9840171729E-02    0.1117360912E+00
    0.4300000000E+02    0.7781308086E-01    0.1785005668E-01    0.2060053148E-01    0.1024875586E-01    0.1159939012E+00
    0.4500000000E+02    0.8087275168E-01    0.1849122793E-01    0.2127865846E-01    0.1065181086E-01    0.1201664571E+00
    0.4700000000E+02    0.8389133592E-01    0.1911962346E-01    0.2193806742E-01    0.1104945892E-01    0.1242563599E+00
    0.4900000000E+02    0.8686973430E-01    0.1973562973E-01    0.2257935522E-01    0.1144181853E-01    0.1282661050E+00
    0.1000000000E+02    0.2045679635E-01    0.4997213624E-02    0.6050238293E-02    0.2694074224E-02    0.3244405481E-01
    0.3000000000E+02    0.5685673887E-01    0.1334149603E-01    0.1569093834E-01    0.7488289813E-02    0.8666689943E-01
    0.5000000000E+02    0.8834413790E-01    0.2003910340E-01    0.2289338374E-01    0.1163605123E-01    0.1302416708E+00
    0.7000000000E+02    0.1159219633E+00    0.2554088009E-01    0.2835066702E-01    0.1526931047E-01    0.1660790390E+00
    0.9000000000E+02    0.1403317388E+00    0.3014617108E-01    0.3252663378E-01    0.1848562732E-01    0.1961123840E+00
    0.1100000000E+03    0.1621337258E+00    0.3406161231E-01    0.3574225762E-01    0.2135871638E-01    0.2216768489E+00
    0.1300000000E+03    0.1817593774E+00    0.3743450340E-01    0.3822580439E-01    0.2394534685E-01    0.2437245684E+00
    0.1500000000E+03    0.1995466055E+00    0.4037272351E-01    0.4014335281E-01    0.2628998166E-01    0.2629531446E+00
    0.1700000000E+03    0.2157640715E+00    0.4295712368E-01    0.4161809072E-01    0.2842797296E-01    0.2798856089E+00
    0.1900000000E+03    0.2306282796E+00    0.4524951619E-01    0.4274291542E-01    0.3038781068E-01    0.2949219871E+00
    0.2100000000E+03    0.2443158375E+00    0.4729798475E-01    0.4358889166E-01    0.3219273557E-01    0.3083735804E+00
    0.2300000000E+03    0.2569724041E+00    0.4914050882E-01    0.4421106599E-01    0.3386191630E-01    0.3204863698E+00
    0.2500000000E+03    0.2687193221E+00    0.5080749549E-01    0.4465254790E-01    0.3541132208E-01    0.3314573685E+00
    0.2700000000E+03    0.2796586050E+00    0.5232358500E-01    0.4494742742E-01    0.3685437879E-01    0.3414462872E+00
    0.2900000000E+03    0.2898767364E+00    0.5370896223E-01    0.4512289517E-01    0.3820246878E-01    0.3505840086E+00
    0.3100000000E+03    0.2994475981E+00    0.5498032493E-01    0.4520080554E-01    0.3946531623E-01    0.3589788456E+00
    0.3300000000E+03    0.3084347533E+00    0.5615160953E-01    0.4519884447E-01    0.4065128747E-01    0.3667212342E+00
    0.3500000000E+03    0.3168932447E+00    0.5723454230E-01    0.4513141228E-01    0.4176762757E-01    0.3738872970E+00
    0.3700000000E+03    0.3248710229E+00    0.5823906334E-01    0.4501029830E-01    0.4282064838E-01    0.3805415863E+00
    0.3900000000E+03    0.3324100937E+00    0.5917365618E-01    0.4484520145E-01    0.4381587934E-01    0.3867392160E+00
    0.4100000000E+03    0.3395474444E+00    0.6004560680E-01    0.4464413570E-01    0.4475818950E-01    0.3925275381E+00
    0.4300000000E+03    0.3463157997E+00    0.6086120915E-01    0.4441374836E-01    0.4565188694E-01    0.3979474726E+00
    0.4500000000E+03    0.3527442420E+00    0.6162592951E-01    0.4415957192E-01    0.4650080034E-01    0.4030345720E+00
    0.4700000000E+03    0.3588587239E+00    0.6234453919E-01    0.4388622473E-01    0.4730834652E-01    0.4078198803E+00
    0.4900000000E+03    0.3646824947E+00    0.6302122235E-01    0.4359757191E-01    0.4807758647E-01    0.4123306315E+00
    0.1000000000E+03    0.1515291998E+00    0.3217980651E-01    0.3423847652E-01    0.1996119306E-01    0.2093865507E+00
    0.3000000000E+03    0.2947388845E+00    0.5435796683E-01    0.4517285348E-01    0.3884399614E-01    0.3548682628E+00
    0.5000000000E+03    0.3674919787E+00    0.6334501053E-01    0.4344854026E-01    0.4844871261E-01    0.4144906599E+00
    0.7000000000E+03    0.4125330691E+00    0.6831808184E-01    0.4021936399E-01    0.5440183618E-01    0.4478280914E+00
    0.9000000000E+03    0.4433122285E+00    0.7151261419E-01    0.3714367502E-01    0.5847452436E-01    0.4694536369E+00
    0.1100000000E+04    0.4656777646E+00    0.7375389316E-01    0.3448222236E-01    0.6143721975E-01    0.4847684370E+00
    0.1300000000E+04    0.4826437051E+00    0.7542098702E-01    0.3222159084E-01    0.6368714491E-01    0.4962625504E+00
    0.1500000000E+04    0.4959358330E+00    0.7671367206E-01    0.3029813959E-01    0.6545183408E-01    0.5052529857E+00
    0.1700000000E+04    0.5066168327E+00    0.7774775464E-01    0.2864862853E-01    0.6687145114E-01    0.5125058384E+00
    0.1900000000E+04    0.5153774091E+00    0.7859524150E-01    0.2722049825E-01    0.6803713281E-01    0.5184990665E+00
    0.2100000000E+04    0.5226858571E+00    0.7930338405E-01    0.2597217182E-01    0.6901069318E-01    0.5235473461E+00
    0.2300000000E+04    0.5288707165E+00    0.7990454321E-01    0.2487116862E-01    0.6983551548E-01    0.5278668850E+00
    0.2500000000E+04    0.5341691137E+00    0.8042166606E-01    0.2389208317E-01    0.7054292385E-01    0.5316114818E+00
    0.2700000000E+04    0.5387563575E+00    0.8087150045E-01    0.2301490767E-01    0.7115608517E-01    0.5348937354E+00
    0.2900000000E+04    0.5427647583E+00    0.8126657075E-01    0.2222374114E-01    0.7169249071E-01    0.5377981075E+00
    0.3100000000E+04    0.5462959839E+00    0.8161643973E-01    0.2150582141E-01    0.7216558595E-01    0.5403892817E+00
    0.3300000000E+04    0.5494293996E+00    0.8192854141E-01    0.2085080397E-01    0.7258587083E-01    0.5427176917E+00
    0.3500000000E+04    0.5522278333E+00    0.8220874641E-01    0.2025022358E-01    0.7296166057E-01    0.5448232821E+00
    0.3700000000E+04    0.5547416471E+00    0.8246175545E-01    0.1969708978E-01    0.7329962302E-01    0.5467381292E+00
    0.3900000000E+04    0.5570116659E+00    0.8269137898E-01    0.1918558058E-01    0.7360516544E-01    0.5484883091E+00
    0.4100000000E+04    0.5590713215E+00    0.8290073996E-01    0.1871080837E-01    0.7388271752E-01    0.5500952536E+00
    0.4300000000E+04    0.5609482446E+00    0.8309242334E-01    0.1826863934E-01    0.7413594170E-01    0.5515767516E+00
    0.4500000000E+04    0.5626654644E+00    0.8326858792E-01    0.1785555297E-01    0.7436789166E-01    0.5529477008E+00
    0.4700000000E+04    0.5642423232E+00    0.8343105135E-01    0.1746853164E-01    0.7458113318E-01    0.5542206786E+00
    0.4900000000E+04    0.5656951822E+00    0.8358135539E-01    0.1710497320E-01    0.7477783742E-01    0.5554063826E+00
    0.1000000000E+04    0.4553169572E+00    0.7272273141E-01    0.3575966776E-01    0.6006434669E-01    0.4777051190E+00
    0.3000000000E+04    0.5445846124E+00    0.8144664854E-01    0.2185632155E-01    0.7193623707E-01    0.5391294091E+00
    0.5000000000E+04    0.5663795474E+00    0.8365236674E-01    0.1693127553E-01    0.7487057688E-01    0.5559694218E+00
    0.7000000000E+04    0.5760523433E+00    0.8467159377E-01    0.1427209315E-01    0.7618867573E-01    0.5643078648E+00
    0.9000000000E+04    0.5814853770E+00    0.8525694339E-01    0.1255114062E-01    0.7693798051E-01    0.5694166137E+00
    0.1100000000E+05    0.5849558968E+00    0.8563426052E-01    0.1132205035E-01    0.7742238579E-01    0.5729218249E+00
    0.1300000000E+05    0.5873608509E+00    0.8589560767E-01    0.1038816888E-01    0.7776208344E-01    0.5755031115E+00
    0.1500000000E+05    0.5891238523E+00    0.8608571095E-01    0.9647748092E-02    0.7801407101E-01    0.5774984729E+00
    0.1700000000E+05    0.5904706549E+00    0.8622896086E-01    0.9042193353E-02    0.7820884807E-01    0.5790964090E+00
    0.1900000000E+05    0.5915324589E+00    0.8633980056E-01    0.8535072087E-02    0.7836421212E-01    0.5804109885E+00
    0.2100000000E+05    0.5923906648E+00    0.8642732921E-01    0.8102385680E-02    0.7849125016E-01    0.5815156069E+00
    0.2300000000E+05    0.5930984262E+00    0.8649756308E-01    0.7727597299E-02    0.7859723130E-01    0.5824598049E+00
    0.2500000000E+05    0.5936919110E+00    0.8655463753E-01    0.7398891931E-02    0.7868712174E-01    0.5832783325E+00
    0.2700000000E+05    0.5941965761E+00    0.8660148709E-01    0.7107573546E-02    0.7876443113E-01    0.5839963463E+00
    0.2900000000E+05    0.5946308549E+00    0.8664025041E-01    0.6847080717E-02    0.7883171108E-01    0.5846325456E+00
    0.3100000000E+05    0.5950084206E+00    0.8667252176E-01    0.6612357120E-02    0.7889086187E-01    0.5852011443E+00
    0.3300000000E+05    0.5953396276E+00    0.8669951293E-01    0.6399434998E-02    0.7894332835E-01    0.5857131576E+00
    0.3500000000E+05    0.5956324599E+00    0.8672216069E-01    0.6205151367E-02    0.7899022907E-01    0.5861772655E+00
    0.3700000000E+05    0.5958931715E+00    0.8674119997E-01    0.6026949695E-02    0.7903244375E-01    0.5866004092E+00
    0.3900000000E+05    0.5961267310E+00    0.8675721499E-01    0.5862738218E-02    0.7907067401E-01    0.5869882120E+00
    0.4100000000E+05    0.5963371348E+00    0.8677067554E-01    0.5710786709E-02    0.7910548651E-01    0.5873452825E+00
    0.4300000000E+05    0.5965276335E+00    0.8678196341E-01    0.5569649958E-02    0.7913734397E-01    0.5876754369E+00
    0.4500000000E+05    0.5967008982E+00    0.8679139177E-01    0.5438110145E-02    0.7916662812E-01    0.5879818653E+00
    0.4700000000E+05    0.5968591438E+00    0.8679921969E-01    0.5315132850E-02    0.7919365675E-01    0.5882672568E+00
    0.4900000000E+05    0.5970042222E+00    0.8680566318E-01    0.5199833026E-02    0.7921869663E-01    0.5885338956E+00
    0.1000000000E+05    0.5833933573E+00    0.8546421497E-01    0.1189061631E-01    0.7720357841E-01    0.5713154479E+00
    0.3000000000E+05    0.5948260150E+00    0.8665711434E-01    0.6726767429E-02    0.7886220340E-01    0.5849245433E+00
    0.5000000000E+05    0.5970723212E+00    0.8680842359E-01    0.5144819762E-02    0.7923054268E-01    0.5886608047E+00
    0.7000000000E+05    0.5980182194E+00    0.8682265784E-01    0.4308082418E-02    0.7940313626E-01    0.5905682475E+00
    0.9000000000E+05    0.5985349887E+00    0.8679946879E-01    0.3771682496E-02    0.7950716070E-01    0.5917725047E+00
    0.1100000000E+06    0.5988584852E+00    0.8676378696E-01    0.3391020973E-02    0.7957853327E-01    0.5926216706E+00
    0.1300000000E+06    0.5990788136E+00    0.8672405677E-01    0.3103197757E-02    0.7963152814E-01    0.5932626528E+00
    0.1500000000E+06    0.5992377601E+00    0.8668360729E-01    0.2875904505E-02    0.7967301933E-01    0.5937693776E+00
    0.1700000000E+06    0.5993573153E+00    0.8664384848E-01    0.2690632064E-02    0.7970675829E-01    0.5941835776E+00
    0.1900000000E+06    0.5994501375E+00    0.8660538007E-01    0.2535919820E-02    0.7973498186E-01    0.5945308127E+00
    0.2100000000E+06    0.5995240187E+00    0.8656843313E-01    0.2404245209E-02    0.7975911494E-01    0.5948277226E+00
    0.2300000000E+06    0.5995840129E+00    0.8653306366E-01    0.2290440705E-02    0.7978011303E-01    0.5950856658E+00
    0.2500000000E+06    0.5996335377E+00    0.8649924348E-01    0.2190824526E-02    0.7979864370E-01    0.5953126962E+00
    0.2700000000E+06    0.5996749854E+00    0.8646690502E-01    0.2102693626E-02    0.7981518927E-01    0.5955147052E+00
    0.2900000000E+06    0.5997100789E+00    0.8643596406E-01    0.2024013141E-02    0.7983010809E-01    0.5956961154E+00
    0.3100000000E+06    0.5997400895E+00    0.8640633150E-01    0.1953218277E-02    0.7984367280E-01    0.5958603210E+00
    0.3300000000E+06    0.5997659754E+00    0.8637791934E-01    0.1889083507E-02    0.7985609503E-01    0.5960099763E+00
    0.3500000000E+06    0.5997884717E+00    0.8635064369E-01    0.1830633630E-02    0.7986754201E-01    0.5961471914E+00
    0.3700000000E+06    0.5998081515E+00    0.8632442611E-01    0.1777081747E-02    0.7987814788E-01    0.5962736681E+00
    0.3900000000E+06    0.5998254679E+00    0.8629919402E-01    0.1727785017E-02    0.7988802175E-01    0.5963907964E+00
    0.4100000000E+06    0.5998407835E+00    0.8627488073E-01    0.1682212487E-02    0.7989725339E-01    0.5964997243E+00
    0.4300000000E+06    0.5998543922E+00    0.8625142514E-01    0.1639921271E-02    0.7990591750E-01    0.5966014098E+00
    0.4500000000E+06    0.5998665340E+00    0.8622877138E-01    0.1600538653E-02    0.7991407682E-01    0.5966966596E+00
    0.4700000000E+06    0.5998774071E+00    0.8620686836E-01    0.1563748428E-02    0.7992178451E-01    0.5967861584E+00
    0.4900000000E+06    0.5998871765E+00    0.8618566937E-01    0.1529280366E-02    0.7992908596E-01    0.5968704921E+00
    0.1000000000E+06    0.5987135629E+00    0.8678247682E-01    0.3566854871E-02    0.7954577834E-01    0.5922297909E+00
    0.3000000000E+06    0.5997256536E+00    0.8642098980E-01    0.1987713351E-02    0.7983704528E-01    0.5957801882E+00
    0.5000000000E+06    0.5998916914E+00    0.8617532038E-01    0.1512843204E-02    0.7993259678E-01    0.5969108824E+00
    0.7000000000E+06    0.5999482243E+00    0.8599665013E-01    0.1263531659E-02    0.7998863291E-01    0.5975399178E+00
    0.9000000000E+06    0.5999716085E+00    0.8585641863E-01    0.1104394877E-02    0.8002803078E-01    0.5979623908E+00
    0.1100000000E+07    0.5999814037E+00    0.8574096576E-01    0.9917874805E-03    0.8005833461E-01    0.5982750795E+00
    0.1300000000E+07    0.5999846687E+00    0.8564280475E-01    0.9068221529E-03    0.8008292719E-01    0.5985206936E+00
    0.1500000000E+07    0.5999844851E+00    0.8555739968E-01    0.8398332763E-03    0.8010360742E-01    0.5987215252E+00
    0.1700000000E+07    0.5999823730E+00    0.8548179580E-01    0.7852990232E-03    0.8012144310E-01    0.5988905563E+00
    0.1900000000E+07    0.5999791485E+00    0.8541396089E-01    0.7398079516E-03    0.8013711885E-01    0.5990359566E+00
    0.2100000000E+07    0.5999752773E+00    0.8535243710E-01    0.7011249152E-03    0.8015109941E-01    0.5991631746E+00
    0.2300000000E+07    0.5999710371E+00    0.8529614284E-01    0.6677168450E-03    0.8016371451E-01    0.5992760113E+00
    0.2500000000E+07    0.5999665997E+00    0.8524425346E-01    0.6384928687E-03    0.8017520643E-01    0.5993772154E+00
    0.2700000000E+07    0.5999620733E+00    0.8519612563E-01    0.6126530005E-03    0.8018575836E-01    0.5994688345E+00
    0.2900000000E+07    0.5999575275E+00    0.8515124780E-01    0.5895955998E-03    0.8019551214E-01    0.5995524317E+00
    0.3100000000E+07    0.5999530075E+00    0.8510920642E-01    0.5688584109E-03    0.8020457981E-01    0.5996292253E+00
    0.3300000000E+07    0.5999485424E+00    0.8506966238E-01    0.5500796810E-03    0.8021305142E-01    0.5997001821E+00
    0.3500000000E+07    0.5999441507E+00    0.8503233411E-01    0.5329717502E-03    0.8022100038E-01    0.5997660812E+00
    0.3700000000E+07    0.5999398440E+00    0.8499698526E-01    0.5173026484E-03    0.8022848738E-01    0.5998275589E+00
    0.3900000000E+07    0.5999356292E+00    0.8496341547E-01    0.5028829819E-03    0.8023556309E-01    0.5998851415E+00
    0.4100000000E+07    0.5999315097E+00    0.8493145344E-01    0.4895564028E-03    0.8024227032E-01    0.5999392686E+00
    0.4300000000E+07    0.5999274869E+00    0.8490095151E-01    0.4771925599E-03    0.8024864551E-01    0.5999903110E+00
    0.4500000000E+07    0.5999235605E+00    0.8487178154E-01    0.4656818025E-03    0.8025471997E-01    0.6000385841E+00
    0.4700000000E+07    0.5999197293E+00    0.8484383158E-01    0.4549311444E-03    0.8026052078E-01    0.6000843586E+00
    0.4900000000E+07    0.5999159913E+00    0.8481700327E-01    0.4448611488E-03    0.8026607151E-01    0.6001278681E+00
    0.1000000000E+07    0.5999776216E+00    0.8579615604E-01    0.1043769195E-02    0.8004405462E-01    0.5981290977E+00
    0.3000000000E+07    0.5999552622E+00    0.8512989527E-01    0.5789615869E-03    0.8020012567E-01    0.5995916135E+00
    0.5000000000E+07    0.5999141566E+00    0.8480398218E-01    0.4400596706E-03    0.8026875966E-01    0.6001488379E+00
    0.7000000000E+07    0.5998816857E+00    0.8458581921E-01    0.3672887667E-03    0.8031329359E-01    0.6004870928E+00
    0.9000000000E+07    0.5998554926E+00    0.8442148989E-01    0.3208927140E-03    0.8034631967E-01    0.6007276511E+00
    0.1100000000E+08    0.5998336571E+00    0.8428958064E-01    0.2880871679E-03    0.8037258083E-01    0.6009133294E+00
    0.1300000000E+08    0.5998149693E+00    0.8417936872E-01    0.2633479915E-03    0.8039438336E-01    0.6010640339E+00
    0.1500000000E+08    0.5997986481E+00    0.8408470777E-01    0.2438510748E-03    0.8041302424E-01    0.6011905833E+00
    0.1700000000E+08    0.5997841669E+00    0.8400174387E-01    0.2279842625E-03    0.8042930572E-01    0.6012994897E+00
    0.1900000000E+08    0.5997711552E+00    0.8392790002E-01    0.2147521345E-03    0.8044375879E-01    0.6013949670E+00
    0.2100000000E+08    0.5997593436E+00    0.8386136748E-01    0.2035028109E-03    0.8045675317E-01    0.6014798937E+00
    0.2300000000E+08    0.5997485301E+00    0.8380082767E-01    0.1937893491E-03    0.8046855666E-01    0.6015563207E+00
    0.2500000000E+08    0.5997385595E+00    0.8374528959E-01    0.1852938282E-03    0.8047936946E-01    0.6016257592E+00
    0.2700000000E+08    0.5997293102E+00    0.8369398948E-01    0.1777831698E-03    0.8048934517E-01    0.6016893539E+00
