  Pressure (Pa) 22mC5-400 (mol/kg) 3mC6-400 (mol/kg) 33mC5-400 (mol/kg) 23mC5-400 (mol/kg) C7-400 (mol/kg)
    0.1000000000E+01    0.2122280358E-02    0.3165533119E-02    0.6474149004E-04    0.6521358125E-03    0.3424475790E-02
    0.3000000000E+01    0.6314514307E-02    0.9315091323E-02    0.1901584429E-03    0.1940342845E-02    0.1007799858E-01
    0.5000000000E+01    0.1043841335E-01    0.1523398358E-01    0.3103954276E-03    0.3207570575E-02    0.1648314503E-01
    0.7000000000E+01    0.1449564920E-01    0.2093494664E-01    0.4257242951E-03    0.4454332079E-02    0.2265360764E-01
    0.9000000000E+01    0.1848783936E-01    0.2642979652E-01    0.5363981369E-03    0.5681123797E-02    0.2860208987E-01
    0.1100000000E+02    0.2241654930E-01    0.3172951022E-01    0.6426529112E-03    0.6888426204E-02    0.3434039389E-01
    0.1300000000E+02    0.2628329453E-01    0.3684429887E-01    0.7447088995E-03    0.8076704443E-02    0.3987949915E-01
    0.1500000000E+02    0.3008954258E-01    0.4178367341E-01    0.8427720149E-03    0.9246408933E-02    0.4522963283E-01
    0.1700000000E+02    0.3383671487E-01    0.4655650354E-01    0.9370349798E-03    0.1039797594E-01    0.5040033321E-01
    0.1900000000E+02    0.3752618855E-01    0.5117107092E-01    0.1027678388E-02    0.1153182815E-01    0.5540050676E-01
    0.2100000000E+02    0.4115929813E-01    0.5563511706E-01    0.1114871662E-02    0.1264837516E-01    0.6023847957E-01
    0.2300000000E+02    0.4473733719E-01    0.5995588669E-01    0.1198773925E-02    0.1374801401E-01    0.6492204392E-01
    0.2500000000E+02    0.4826155991E-01    0.6414016692E-01    0.1279534785E-02    0.1483112964E-01    0.6945850038E-01
    0.2700000000E+02    0.5173318254E-01    0.6819432287E-01    0.1357295050E-02    0.1589809537E-01    0.7385469598E-01
    0.2900000000E+02    0.5515338485E-01    0.7212432993E-01    0.1432187378E-02    0.1694927329E-01    0.7811705898E-01
    0.3100000000E+02    0.5852331148E-01    0.7593580314E-01    0.1504336869E-02    0.1798501474E-01    0.8225163031E-01
    0.3300000000E+02    0.6184407323E-01    0.7963402394E-01    0.1573861609E-02    0.1900566067E-01    0.8626409240E-01
    0.3500000000E+02    0.6511674831E-01    0.8322396463E-01    0.1640873159E-02    0.2001154202E-01    0.9015979537E-01
    0.3700000000E+02    0.6834238352E-01    0.8671031060E-01    0.1705477009E-02    0.2100298009E-01    0.9394378097E-01
    0.3900000000E+02    0.7152199538E-01    0.9009748075E-01    0.1767772993E-02    0.2198028689E-01    0.9762080449E-01
    0.4100000000E+02    0.7465657123E-01    0.9338964620E-01    0.1827855669E-02    0.2294376549E-01    0.1011953548E+00
    0.4300000000E+02    0.7774707027E-01    0.9659074738E-01    0.1885814666E-02    0.2389371031E-01    0.1046716730E+00
    0.4500000000E+02    0.8079442455E-01    0.9970450977E-01    0.1941735010E-02    0.2483040742E-01    0.1080537687E+00
    0.4700000000E+02    0.8379953991E-01    0.1027344584E+00    0.1995697416E-02    0.2575413488E-01    0.1113454364E+00
    0.4900000000E+02    0.8676329692E-01    0.1056839310E+00    0.2047778561E-02    0.2666516297E-01    0.1145502689E+00
    0.1000000000E+02    0.2046003349E-01    0.2910339005E-01    0.5900637885E-03    0.6287181741E-02    0.3149680952E-01
    0.3000000000E+02    0.5684456242E-01    0.7404454565E-01    0.1468597439E-02    0.1746905203E-01    0.8019995536E-01
    0.5000000000E+02    0.8822993453E-01    0.1071294837E+00    0.2073136581E-02    0.2711599717E-01    0.1161211932E+00
    0.7000000000E+02    0.1155878125E+00    0.1325022529E+00    0.2497465866E-02    0.3552626217E-01    0.1437201986E+00
    0.9000000000E+02    0.1396526196E+00    0.1525771239E+00    0.2798016992E-02    0.4292528417E-01    0.1655967958E+00
    0.1100000000E+03    0.1609898129E+00    0.1688558445E+00    0.3010849312E-02    0.4948664311E-01    0.1833691892E+00
    0.1300000000E+03    0.1800418752E+00    0.1823215565E+00    0.3160058386E-02    0.5534617589E-01    0.1980974384E+00
    0.1500000000E+03    0.1971600658E+00    0.1936448761E+00    0.3262306600E-02    0.6061172007E-01    0.2105050865E+00
    0.1700000000E+03    0.2126268180E+00    0.2032989396E+00    0.3329430297E-02    0.6536998763E-01    0.2211029359E+00
    0.1900000000E+03    0.2266718448E+00    0.2116271132E+00    0.3370020646E-02    0.6969150796E-01    0.2302619224E+00
    0.2100000000E+03    0.2394839228E+00    0.2188846317E+00    0.3390423680E-02    0.7363424435E-01    0.2382579483E+00
    0.2300000000E+03    0.2512196473E+00    0.2252651704E+00    0.3395395294E-02    0.7724628131E-01    0.2453005037E+00
    0.2500000000E+03    0.2620100309E+00    0.2309183505E+00    0.3388542844E-02    0.8056784981E-01    0.2515515286E+00
    0.2700000000E+03    0.2719655398E+00    0.2359615912E+00    0.3372630224E-02    0.8363287316E-01    0.2571381897E+00
    0.2900000000E+03    0.2811799841E+00    0.2404883315E+00    0.3349793047E-02    0.8647016102E-01    0.2621617458E+00
    0.3100000000E+03    0.2897335540E+00    0.2445738548E+00    0.3321693157E-02    0.8910434156E-01    0.2667038317E+00
    0.3300000000E+03    0.2976952142E+00    0.2482794944E+00    0.3289631308E-02    0.9155659641E-01    0.2708309962E+00
    0.3500000000E+03    0.3051246097E+00    0.2516557219E+00    0.3254630471E-02    0.9384524557E-01    0.2745980371E+00
    0.3700000000E+03    0.3120735943E+00    0.2547444497E+00    0.3217498158E-02    0.9598621680E-01    0.2780504873E+00
    0.3900000000E+03    0.3185874673E+00    0.2575807714E+00    0.3178873547E-02    0.9799342526E-01    0.2812264957E+00
    0.4100000000E+03    0.3247059820E+00    0.2601942947E+00    0.3139263464E-02    0.9987908297E-01    0.2841582673E+00
    0.4300000000E+03    0.3304641718E+00    0.2626101728E+00    0.3099070085E-02    0.1016539526E+00    0.2868731787E+00
    0.4500000000E+03    0.3358930336E+00    0.2648499119E+00    0.3058612424E-02    0.1033275573E+00    0.2893946515E+00
    0.4700000000E+03    0.3410200946E+00    0.2669320087E+00    0.3018143132E-02    0.1049083544E+00    0.2917428423E+00
    0.4900000000E+03    0.3458698868E+00    0.2688724593E+00    0.2977861694E-02    0.1064038817E+00    0.2939351932E+00
    0.1000000000E+03    0.1506320578E+00    0.1611204156E+00    0.2913677258E-02    0.4630142822E-01    0.1749199235E+00
    0.3000000000E+03    0.2855348294E+00    0.2425821257E+00    0.3336312277E-02    0.8781124257E-01    0.2644885036E+00
    0.5000000000E+03    0.3481977535E+00    0.2697939846E+00    0.2957841838E-02    0.1071218036E+00    0.2949777480E+00
    0.7000000000E+03    0.3844627947E+00    0.2833641103E+00    0.2590462786E-02    0.1183140050E+00    0.3104611666E+00
    0.9000000000E+03    0.4081128763E+00    0.2914697745E+00    0.2297681432E-02    0.1256236870E+00    0.3198769297E+00
    0.1100000000E+04    0.4247514463E+00    0.2968437941E+00    0.2068311628E-02    0.1307738170E+00    0.3262316001E+00
    0.1300000000E+04    0.4370906335E+00    0.3006586076E+00    0.1886251239E-02    0.1345987518E+00    0.3308231566E+00
    0.1500000000E+04    0.4466038154E+00    0.3035005635E+00    0.1739002476E-02    0.1375519866E+00    0.3343047260E+00
    0.1700000000E+04    0.4541604752E+00    0.3056953098E+00    0.1617679804E-02    0.1399012752E+00    0.3370412478E+00
    0.1900000000E+04    0.4603068171E+00    0.3074381008E+00    0.1516025219E-02    0.1418149022E+00    0.3392528544E+00
    0.2100000000E+04    0.4654031982E+00    0.3088530690E+00    0.1429580245E-02    0.1434039475E+00    0.3410803327E+00
    0.2300000000E+04    0.4696969464E+00    0.3100228710E+00    0.1355112079E-02    0.1447446876E+00    0.3426179881E+00
    0.2500000000E+04    0.4733634348E+00    0.3110046523E+00    0.1290232211E-02    0.1458912342E+00    0.3439314077E+00
    0.2700000000E+04    0.4765304617E+00    0.3118391694E+00    0.1233143537E-02    0.1468830393E+00    0.3450676455E+00
    0.2900000000E+04    0.4792933493E+00    0.3125562613E+00    0.1182470785E-02    0.1477495436E+00    0.3460613553E+00
    0.3100000000E+04    0.4817246383E+00    0.3131782685E+00    0.1137144969E-02    0.1485131626E+00    0.3469386351E+00
    0.3300000000E+04    0.4838805058E+00    0.3137222431E+00    0.1096323290E-02    0.1491912639E+00    0.3477195231E+00
    0.3500000000E+04    0.4858051302E+00    0.3142014227E+00    0.1059332617E-02    0.1497975123E+00    0.3484196663E+00
    0.3700000000E+04    0.4875337305E+00    0.3146262371E+00    0.1025628970E-02    0.1503428067E+00    0.3490514654E+00
    0.3900000000E+04    0.4890947267E+00    0.3150050131E+00    0.9947679927E-03    0.1508359461E+00    0.3496248787E+00
    0.4100000000E+04    0.4905113038E+00    0.3153444769E+00    0.9663831329E-03    0.1512841124E+00    0.3501479981E+00
    0.4300000000E+04    0.4918025631E+00    0.3156501201E+00    0.9401692921E-03    0.1516932254E+00    0.3506274683E+00
    0.4500000000E+04    0.4929843834E+00    0.3159264690E+00    0.9158704223E-03    0.1520682084E+00    0.3510687985E+00
    0.4700000000E+04    0.4940700721E+00    0.3161772871E+00    0.8932700043E-03    0.1524131898E+00    0.3514765962E+00
    0.4900000000E+04    0.4950708657E+00    0.3164057283E+00    0.8721836596E-03    0.1527316568E+00    0.3518547453E+00
    0.1000000000E+04    0.4170984526E+00    0.2944049900E+00    0.2176140354E-02    0.1284040555E+00    0.3233338392E+00
    0.3000000000E+04    0.4805466081E+00    0.3128779809E+00    0.1159196731E-02    0.1481430282E+00    0.3465131772E+00
    0.5000000000E+04    0.4955424689E+00    0.3165124061E+00    0.8621579838E-03    0.1528818921E+00    0.3520337520E+00
    0.7000000000E+04    0.5022258755E+00    0.3179418052E+00    0.7124774276E-03    0.1550255458E+00    0.3546465591E+00
    0.9000000000E+04    0.5060006461E+00    0.3186532100E+00    0.6192159214E-03    0.1562540642E+00    0.3562201322E+00
    0.1100000000E+05    0.5084225404E+00    0.3190502661E+00    0.5542149269E-03    0.1570537251E+00    0.3572952089E+00
    0.1300000000E+05    0.5101062867E+00    0.3192854908E+00    0.5056644579E-03    0.1576176585E+00    0.3580890814E+00
    0.1500000000E+05    0.5113434485E+00    0.3194283893E+00    0.4676579749E-03    0.1580379262E+00    0.3587069717E+00
    0.1700000000E+05    0.5122900487E+00    0.3195147607E+00    0.4368786262E-03    0.1583640381E+00    0.3592064566E+00
    0.1900000000E+05    0.5130370990E+00    0.3195647126E+00    0.4113040468E-03    0.1586250169E+00    0.3596218987E+00
    0.2100000000E+05    0.5136412495E+00    0.3195902924E+00    0.3896228314E-03    0.1588390162E+00    0.3599751851E+00
    0.2300000000E+05    0.5141395969E+00    0.3195990880E+00    0.3709429140E-03    0.1590179820E+00    0.3602809801E+00
    0.2500000000E+05    0.5145574454E+00    0.3195960725E+00    0.3546338006E-03    0.1591701020E+00    0.3605495159E+00
    0.2700000000E+05    0.5149126435E+00    0.3195846114E+00    0.3402356905E-03    0.1593011797E+00    0.3607881730E+00
    0.2900000000E+05    0.5152181393E+00    0.3195670438E+00    0.3274043928E-03    0.1594154456E+00    0.3610024249E+00
    0.3100000000E+05    0.5154835528E+00    0.3195450313E+00    0.3158764978E-03    0.1595160576E+00    0.3611964272E+00
    0.3300000000E+05    0.5157161791E+00    0.3195197767E+00    0.3054465597E-03    0.1596054221E+00    0.3613733993E+00
    0.3500000000E+05    0.5159216503E+00    0.3194921638E+00    0.2959516844E-03    0.1596854059E+00    0.3615358789E+00
    0.3700000000E+05    0.5161043828E+00    0.3194628510E+00    0.2872608440E-03    0.1597574796E+00    0.3616858977E+00
    0.3900000000E+05    0.5162678885E+00    0.3194323340E+00    0.2792672951E-03    0.1598228183E+00    0.3618251041E+00
    0.4100000000E+05    0.5164149942E+00    0.3194009895E+00    0.2718830890E-03    0.1598823724E+00    0.3619548515E+00
    0.4300000000E+05    0.5165480013E+00    0.3193691059E+00    0.2650350261E-03    0.1599369192E+00    0.3620762635E+00
    0.4500000000E+05    0.5166688014E+00    0.3193369053E+00    0.2586616245E-03    0.1599871006E+00    0.3621902818E+00
    0.4700000000E+05    0.5167789643E+00    0.3193045594E+00    0.2527108168E-03    0.1600334518E+00    0.3622977024E+00
    0.4900000000E+05    0.5168798030E+00    0.3192722015E+00    0.2471381763E-03    0.1600764227E+00    0.3623992038E+00
    0.1000000000E+05    0.5073310049E+00    0.3188785691E+00    0.5841237201E-03    0.1566919089E+00    0.3568025071E+00
    0.3000000000E+05    0.5153553549E+00    0.3195565092E+00    0.3214915101E-03    0.1594672932E+00    0.3611017376E+00
    0.5000000000E+05    0.5169270784E+00    0.3192560512E+00    0.2444815283E-03    0.1600967618E+00    0.3624479200E+00
    0.7000000000E+05    0.5175783106E+00    0.3189477956E+00    0.2042437871E-03    0.1603938447E+00    0.3632176369E+00
    0.9000000000E+05    0.5179269465E+00    0.3186775918E+00    0.1786026252E-03    0.1605735781E+00    0.3637501688E+00
    0.1100000000E+06    0.5181402549E+00    0.3184428034E+00    0.1604707224E-03    0.1606971831E+00    0.3641551973E+00
    0.1300000000E+06    0.5182819478E+00    0.3182367720E+00    0.1467931523E-03    0.1607891049E+00    0.3644811536E+00
    0.1500000000E+06    0.5183814417E+00    0.3180537898E+00    0.1360099390E-03    0.1608611535E+00    0.3647534796E+00
    0.1700000000E+06    0.5184541357E+00    0.3178894666E+00    0.1272310605E-03    0.1609197889E+00    0.3649871260E+00
    0.1900000000E+06    0.5185088417E+00    0.3177404712E+00    0.1199071132E-03    0.1609688700E+00    0.3651915982E+00
    0.2100000000E+06    0.5185509501E+00    0.3176042532E+00    0.1136783322E-03    0.1610108584E+00    0.3653733029E+00
    0.2300000000E+06    0.5185839333E+00    0.3174788315E+00    0.1082980491E-03    0.1610474066E+00    0.3655367574E+00
    0.2500000000E+06    0.5186101234E+00    0.3173626427E+00    0.1035907877E-03    0.1610796704E+00    0.3656852633E+00
    0.2700000000E+06    0.5186311407E+00    0.3172544347E+00    0.9942788427E-04    0.1611084855E+00    0.3658213049E+00
    0.2900000000E+06    0.5186481436E+00    0.3171531907E+00    0.9571258512E-04    0.1611344730E+00    0.3659467978E+00
    0.3100000000E+06    0.5186619802E+00    0.3170580744E+00    0.9237055629E-04    0.1611581060E+00    0.3660632494E+00
    0.3300000000E+06    0.5186732844E+00    0.3169683905E+00    0.8934362676E-04    0.1611797518E+00    0.3661718669E+00
    0.3500000000E+06    0.5186825387E+00    0.3168835549E+00    0.8658553982E-04    0.1611997007E+00    0.3662736317E+00
    0.3700000000E+06    0.5186901162E+00    0.3168030723E+00    0.8405899317E-04    0.1612181859E+00    0.3663693524E+00
    0.3900000000E+06    0.5186963092E+00    0.3167265192E+00    0.8173353002E-04    0.1612353968E+00    0.3664597030E+00
    0.4100000000E+06    0.5187013495E+00    0.3166535308E+00    0.7958400662E-04    0.1612514895E+00    0.3665452510E+00
    0.4300000000E+06    0.5187054235E+00    0.3165837906E+00    0.7758945886E-04    0.1612665940E+00    0.3666264787E+00
    0.4500000000E+06    0.5187086818E+00    0.3165170224E+00    0.7573225077E-04    0.1612808193E+00    0.3667037997E+00
    0.4700000000E+06    0.5187112477E+00    0.3164529836E+00    0.7399742570E-04    0.1612942579E+00    0.3667775707E+00
    0.4900000000E+06    0.5187132228E+00    0.3163914602E+00    0.7237220550E-04    0.1613069888E+00    0.3668481021E+00
    0.1000000000E+06    0.5180453260E+00    0.3185561936E+00    0.1688398682E-03    0.1606404289E+00    0.3639648155E+00
    0.3000000000E+06    0.5186554139E+00    0.3171049129E+00    0.9399886898E-04    0.1611465588E+00    0.3660060723E+00
    0.5000000000E+06    0.5187140157E+00    0.3163615816E+00    0.7159720173E-04    0.1613131105E+00    0.3668822391E+00
    0.7000000000E+06    0.5187133292E+00    0.3158594984E+00    0.5984404913E-04    0.1614108310E+00    0.3674459842E+00
    0.9000000000E+06    0.5186987769E+00    0.3154799190E+00    0.5234235288E-04    0.1614795440E+00    0.3678621129E+00
    0.1100000000E+07    0.5186805346E+00    0.3151746338E+00    0.4703332215E-04    0.1615323968E+00    0.3681919927E+00
    0.1300000000E+07    0.5186616975E+00    0.3149192602E+00    0.4302668748E-04    0.1615752877E+00    0.3684652610E+00
    0.1500000000E+07    0.5186433348E+00    0.3146997435E+00    0.3986701927E-04    0.1616113539E+00    0.3686985059E+00
    0.1700000000E+07    0.5186258151E+00    0.3145072394E+00    0.3729418439E-04    0.1616424580E+00    0.3689019526E+00
    0.1900000000E+07    0.5186092387E+00    0.3143358201E+00    0.3514748243E-04    0.1616697943E+00    0.3690823501E+00
    0.2100000000E+07    0.5185935974E+00    0.3141813177E+00    0.3332162552E-04    0.1616941734E+00    0.3692443876E+00
    0.2300000000E+07    0.5185788404E+00    0.3140406900E+00    0.3174439580E-04    0.1617161706E+00    0.3693914550E+00
    0.2500000000E+07    0.5185649022E+00    0.3139116481E+00    0.3036440330E-04    0.1617362085E+00    0.3695260830E+00
    0.2700000000E+07    0.5185517149E+00    0.3137924268E+00    0.2914395890E-04    0.1617546069E+00    0.3696502104E+00
    0.2900000000E+07    0.5185392136E+00    0.3136816360E+00    0.2805471576E-04    0.1617716130E+00    0.3697653557E+00
    0.3100000000E+07    0.5185273385E+00    0.3135781613E+00    0.2707489238E-04    0.1617874224E+00    0.3698727301E+00
    0.3300000000E+07    0.5185160354E+00    0.3134810959E+00    0.2618744141E-04    0.1618021921E+00    0.3699733155E+00
    0.3500000000E+07    0.5185052557E+00    0.3133896915E+00    0.2537880581E-04    0.1618160502E+00    0.3700679187E+00
    0.3700000000E+07    0.5184949561E+00    0.3133033239E+00    0.2463805206E-04    0.1618291026E+00    0.3701572108E+00
    0.3900000000E+07    0.5184850976E+00    0.3132214667E+00    0.2395625251E-04    0.1618414377E+00    0.3702417559E+00
    0.4100000000E+07    0.5184756457E+00    0.3131436721E+00    0.2332603655E-04    0.1618531302E+00    0.3703220330E+00
    0.4300000000E+07    0.5184665694E+00    0.3130695555E+00    0.2274125847E-04    0.1618642435E+00    0.3703984518E+00
    0.4500000000E+07    0.5184578410E+00    0.3129987849E+00    0.2219674806E-04    0.1618748324E+00    0.3704713660E+00
    0.4700000000E+07    0.5184494355E+00    0.3129310710E+00    0.2168812042E-04    0.1618849441E+00    0.3705410827E+00
    0.4900000000E+07    0.5184413305E+00    0.3128661607E+00    0.2121162925E-04    0.1618946197E+00    0.3706078703E+00
    0.1000000000E+07    0.5186898484E+00    0.3153198490E+00    0.4948419321E-04    0.1615074912E+00    0.3680355514E+00
    0.3000000000E+07    0.5185332013E+00    0.3136290450E+00    0.2755228619E-04    0.1617796567E+00    0.3698199482E+00
    0.5000000000E+07    0.5184373843E+00    0.3128346861E+00    0.2098441001E-04    0.1618993053E+00    0.3706402406E+00
    0.7000000000E+07    0.5183702249E+00    0.3123099397E+00    0.1753864876E-04    0.1619769254E+00    0.3711786630E+00
    0.9000000000E+07    0.5183186056E+00    0.3119174460E+00    0.1533943672E-04    0.1620344800E+00    0.3715800725E+00
    0.1100000000E+08    0.5182766961E+00    0.3116037807E+00    0.1378310563E-04    0.1620802406E+00    0.3719002126E+00
    0.1300000000E+08    0.5182414231E+00    0.3113425144E+00    0.1260861713E-04    0.1621182287E+00    0.3721664989E+00
    0.1500000000E+08    0.5182109719E+00    0.3111186208E+00    0.1168243698E-04    0.1621507056E+00    0.3723944586E+00
    0.1700000000E+08    0.5181841823E+00    0.3109227341E+00    0.1092829517E-04    0.1621790702E+00    0.3725937434E+00
    0.1900000000E+08    0.5181602679E+00    0.3107486205E+00    0.1029907637E-04    0.1622042481E+00    0.3727707642E+00
    0.2100000000E+08    0.5181386709E+00    0.3105919208E+00    0.9763912382E-05    0.1622268837E+00    0.3729299968E+00
    0.2300000000E+08    0.5181189817E+00    0.3104494664E+00    0.9301630991E-05    0.1622474440E+00    0.3730746902E+00
    0.2500000000E+08    0.5181008902E+00    0.3103188820E+00    0.8897166477E-05    0.1622662778E+00    0.3732072773E+00
    0.2700000000E+08    0.5180841565E+00    0.3101983409E+00    0.8539469971E-05    0.1622836530E+00    0.3733296274E+00
