  Pressure (Pa) 22mC5-400 (mol/kg) 3mC6-400 (mol/kg) 33mC5-400 (mol/kg) 23mC5-400 (mol/kg) C7-400 (mol/kg)
    0.1000000000E+01    0.2123345166E-02    0.3688839218E-02    0.3882385613E-03    0.9320894611E-04    0.3420523008E-02
    0.3000000000E+01    0.6323973352E-02    0.1083065075E-01    0.1139178938E-02    0.2776065749E-03    0.1004388795E-01
    0.5000000000E+01    0.1046435075E-01    0.1767447537E-01    0.1857765490E-02    0.4593616203E-03    0.1639221760E-01
    0.7000000000E+01    0.1454583851E-01    0.2423868886E-01    0.2545889535E-02    0.6385337676E-03    0.2248244550E-01
    0.9000000000E+01    0.1856975660E-01    0.3054018435E-01    0.3205293838E-02    0.8151808954E-03    0.2833013996E-01
    0.1100000000E+02    0.2253738531E-01    0.3659451889E-01    0.3837587211E-02    0.9893591435E-03    0.3394963900E-01
    0.1300000000E+02    0.2644996674E-01    0.4241604305E-01    0.4444257417E-02    0.1161122977E-02    0.3935416960E-01
    0.1500000000E+02    0.3030870623E-01    0.4801801569E-01    0.5026682585E-02    0.1330525250E-02    0.4455595339E-01
    0.1700000000E+02    0.3411477366E-01    0.5341270590E-01    0.5586141358E-02    0.1497617261E-02    0.4956630039E-01
    0.1900000000E+02    0.3786930480E-01    0.5861148366E-01    0.6123821917E-02    0.1662448813E-02    0.5439569257E-01
    0.2100000000E+02    0.4157340249E-01    0.6362490082E-01    0.6640830027E-02    0.1825068265E-02    0.5905385830E-01
    0.2300000000E+02    0.4522813783E-01    0.6846276335E-01    0.7138196237E-02    0.1985522587E-02    0.6354983897E-01
    0.2500000000E+02    0.4883455137E-01    0.7313419622E-01    0.7616882322E-02    0.2143857405E-02    0.6789204857E-01
    0.2700000000E+02    0.5239365409E-01    0.7764770146E-01    0.8077787075E-02    0.2300117052E-02    0.7208832729E-01
    0.2900000000E+02    0.5590642853E-01    0.8201121053E-01    0.8521751506E-02    0.2454344614E-02    0.7614598965E-01
    0.3100000000E+02    0.5937382973E-01    0.8623213136E-01    0.8949563534E-02    0.2606581969E-02    0.8007186784E-01
    0.3300000000E+02    0.6279678621E-01    0.9031739091E-01    0.9361962219E-02    0.2756869834E-02    0.8387235091E-01
    0.3500000000E+02    0.6617620087E-01    0.9427347362E-01    0.9759641596E-02    0.2905247802E-02    0.8755342015E-01
    0.3700000000E+02    0.6951295186E-01    0.9810645616E-01    0.1014325414E-01    0.3051754382E-02    0.9112068114E-01
    0.3900000000E+02    0.7280789347E-01    0.1018220391E+00    0.1051341391E-01    0.3196427035E-02    0.9457939283E-01
    0.4100000000E+02    0.7606185684E-01    0.1054255755E+00    0.1087069942E-01    0.3339302208E-02    0.9793449396E-01
    0.4300000000E+02    0.7927565085E-01    0.1089220970E+00    0.1121565625E-01    0.3480415372E-02    0.1011906271E+00
    0.4500000000E+02    0.8245006277E-01    0.1123163377E+00    0.1154879940E-01    0.3619801051E-02    0.1043521605E+00
    0.4700000000E+02    0.8558585904E-01    0.1156127559E+00    0.1187061547E-01    0.3757492854E-02    0.1074232082E+00
    0.4900000000E+02    0.8868378590E-01    0.1188155537E+00    0.1218156467E-01    0.3893523506E-02    0.1104076482E+00
    0.1000000000E+02    0.2056052862E-01    0.3359732296E-01    0.3524733709E-02    0.9025751868E-03    0.3116756248E-01
    0.3000000000E+02    0.5764574214E-01    0.8413905073E-01    0.8737629281E-02    0.2530709496E-02    0.7812499249E-01
    0.5000000000E+02    0.9021877616E-01    0.1203830925E+00    0.1233310122E-01    0.3960925893E-02    0.1118685418E+00
    0.7000000000E+02    0.1190977867E+00    0.1476716588E+00    0.1488773215E-01    0.5229101952E-02    0.1373267483E+00
    0.9000000000E+02    0.1449112231E+00    0.1689764490E+00    0.1673327364E-01    0.6362797327E-02    0.1572431396E+00
    0.1100000000E+03    0.1681498795E+00    0.1860828914E+00    0.1807583853E-01    0.7383535802E-02    0.1732672164E+00
    0.1300000000E+03    0.1892027465E+00    0.2001287919E+00    0.1905092715E-01    0.8308377192E-02    0.1864508980E+00
    0.1500000000E+03    0.2083822374E+00    0.2118738269E+00    0.1975151641E-01    0.9151023359E-02    0.1974970080E+00
    0.1700000000E+03    0.2259422771E+00    0.2218447487E+00    0.2024356168E-01    0.9922611371E-02    0.2068932167E+00
    0.1900000000E+03    0.2420914980E+00    0.2304184153E+00    0.2057509946E-01    0.1063229209E-01    0.2149886640E+00
    0.2100000000E+03    0.2570030155E+00    0.2378716453E+00    0.2078186753E-01    0.1128765881E-01    0.2220399856E+00
    0.2300000000E+03    0.2708217725E+00    0.2444124006E+00    0.2089092083E-01    0.1189506934E-01    0.2282401143E+00
    0.2500000000E+03    0.2836701295E+00    0.2501999804E+00    0.2092303896E-01    0.1245989109E-01    0.2337369384E+00
    0.2700000000E+03    0.2956521684E+00    0.2553584952E+00    0.2089437589E-01    0.1298668984E-01    0.2386457578E+00
    0.2900000000E+03    0.3068570442E+00    0.2599860943E+00    0.2081761844E-01    0.1347937669E-01    0.2430578162E+00
    0.3100000000E+03    0.3173616199E+00    0.2641614315E+00    0.2070281693E-01    0.1394132363E-01    0.2470462835E+00
    0.3300000000E+03    0.3272325586E+00    0.2679482868E+00    0.2055799179E-01    0.1437545527E-01    0.2506705334E+00
    0.3500000000E+03    0.3365279985E+00    0.2713989325E+00    0.2038958347E-01    0.1478432231E-01    0.2539792600E+00
    0.3700000000E+03    0.3452989049E+00    0.2745566224E+00    0.2020279092E-01    0.1517016084E-01    0.2570127833E+00
    0.3900000000E+03    0.3535901704E+00    0.2774574615E+00    0.2000182929E-01    0.1553494056E-01    0.2598047822E+00
    0.4100000000E+03    0.3614415153E+00    0.2801318278E+00    0.1979012829E-01    0.1588040431E-01    0.2623836128E+00
    0.4300000000E+03    0.3688882315E+00    0.2826054679E+00    0.1957048645E-01    0.1620810067E-01    0.2647733239E+00
    0.4500000000E+03    0.3759617986E+00    0.2849003493E+00    0.1934519201E-01    0.1651941098E-01    0.2669944483E+00
    0.4700000000E+03    0.3826903992E+00    0.2870353312E+00    0.1911611854E-01    0.1681557196E-01    0.2690646252E+00
    0.4900000000E+03    0.3890993511E+00    0.2890266973E+00    0.1888480102E-01    0.1709769466E-01    0.2709990952E+00
    0.1000000000E+03    0.1568260382E+00    0.1779721606E+00    0.1745771722E-01    0.6886130104E-02    0.1656656436E+00
    0.3000000000E+03    0.3121924854E+00    0.2621260053E+00    0.2076443025E-01    0.1371400032E-01    0.2451010057E+00
    0.5000000000E+03    0.3921911782E+00    0.2899730154E+00    0.1876870309E-01    0.1723380848E-01    0.2719196458E+00
    0.7000000000E+03    0.4417523088E+00    0.3039731466E+00    0.1653289168E-01    0.1941684325E-01    0.2856569273E+00
    0.9000000000E+03    0.4756118443E+00    0.3124261505E+00    0.1464295571E-01    0.2090988717E-01    0.2941012020E+00
    0.1100000000E+04    0.5002237225E+00    0.3180921895E+00    0.1311395787E-01    0.2199632227E-01    0.2998607457E+00
    0.1300000000E+04    0.5189104998E+00    0.3221570825E+00    0.1187807844E-01    0.2282209278E-01    0.3040635860E+00
    0.1500000000E+04    0.5335696769E+00    0.3252160547E+00    0.1086870265E-01    0.2347057868E-01    0.3072795808E+00
    0.1700000000E+04    0.5453669883E+00    0.3276012089E+00    0.1003336963E-01    0.2399302396E-01    0.3098286711E+00
    0.1900000000E+04    0.5550588907E+00    0.3295126601E+00    0.9332825724E-02    0.2442269372E-01    0.3119048270E+00
    0.2100000000E+04    0.5631577663E+00    0.3310782766E+00    0.8737956444E-02    0.2478212823E-01    0.3136327381E+00
    0.2300000000E+04    0.5700229343E+00    0.3323836326E+00    0.8227046608E-02    0.2508714017E-01    0.3150963475E+00
    0.2500000000E+04    0.5759137354E+00    0.3334881843E+00    0.7783722656E-02    0.2534914656E-01    0.3163543204E+00
    0.2700000000E+04    0.5810219601E+00    0.3344345417E+00    0.7395481463E-02    0.2557659375E-01    0.3174489440E+00
    0.2900000000E+04    0.5854924348E+00    0.3352540477E+00    0.7052651170E-02    0.2577586211E-01    0.3184115028E+00
    0.3100000000E+04    0.5894365219E+00    0.3359702763E+00    0.6747655573E-02    0.2595185955E-01    0.3192656605E+00
    0.3300000000E+04    0.5929412250E+00    0.3366013015E+00    0.6474489065E-02    0.2610842181E-01    0.3200296626E+00
    0.3500000000E+04    0.5960754802E+00    0.3371612144E+00    0.6228337780E-02    0.2624858921E-01    0.3207178136E+00
    0.3700000000E+04    0.5988945971E+00    0.3376611645E+00    0.6005302955E-02    0.2637480198E-01    0.3213414945E+00
    0.3900000000E+04    0.6014434558E+00    0.3381100890E+00    0.5802196503E-02    0.2648904090E-01    0.3219098789E+00
    0.4100000000E+04    0.6037588447E+00    0.3385152365E+00    0.5616388168E-02    0.2659293025E-01    0.3224304478E+00
    0.4300000000E+04    0.6058711993E+00    0.3388825478E+00    0.5445689935E-02    0.2668781426E-01    0.3229093659E+00
    0.4500000000E+04    0.6078059117E+00    0.3392169382E+00    0.5288267693E-02    0.2677481486E-01    0.3233517613E+00
    0.4700000000E+04    0.6095843301E+00    0.3395225095E+00    0.5142573013E-02    0.2685487562E-01    0.3237619368E+00
    0.4900000000E+04    0.6112245299E+00    0.3398027118E+00    0.5007289980E-02    0.2692879576E-01    0.3241435307E+00
    0.1000000000E+04    0.4888202946E+00    0.3155133060E+00    0.1383723924E-01    0.2149279937E-01    0.2972270809E+00
    0.3000000000E+04    0.5875243527E+00    0.3356238338E+00    0.6895831167E-02    0.2586650855E-01    0.3188508845E+00
    0.5000000000E+04    0.6119977024E+00    0.3399342308E+00    0.4943194702E-02    0.2696367003E-01    0.3243245963E+00
    0.7000000000E+04    0.6229689623E+00    0.3417525969E+00    0.4004915463E-02    0.2746112505E-01    0.3270019309E+00
    0.9000000000E+04    0.6291736137E+00    0.3427237806E+00    0.3439329075E-02    0.2774562724E-01    0.3286498126E+00
    0.1100000000E+05    0.6331572633E+00    0.3433097415E+00    0.3054180081E-02    0.2793033306E-01    0.3297933025E+00
    0.1300000000E+05    0.6359289863E+00    0.3436901309E+00    0.2771328263E-02    0.2806027258E-01    0.3306475651E+00
    0.1500000000E+05    0.6379677034E+00    0.3439489940E+00    0.2552707204E-02    0.2815690003E-01    0.3313184269E+00
    0.1700000000E+05    0.6395296517E+00    0.3441307079E+00    0.2377397804E-02    0.2823173795E-01    0.3318645455E+00
    0.1900000000E+05    0.6407642329E+00    0.3442608074E+00    0.2232871040E-02    0.2829153027E-01    0.3323213127E+00
    0.2100000000E+05    0.6417643961E+00    0.3443549618E+00    0.2111122623E-02    0.2834048855E-01    0.3327114838E+00
    0.2300000000E+05    0.6425909807E+00    0.3444232805E+00    0.2006775690E-02    0.2838137989E-01    0.3330504306E+00
    0.2500000000E+05    0.6432854707E+00    0.3444725518E+00    0.1916070399E-02    0.2841609815E-01    0.3333489566E+00
    0.2700000000E+05    0.6438771191E+00    0.3445074866E+00    0.1836289890E-02    0.2844598383E-01    0.3336149048E+00
    0.2900000000E+05    0.6443871437E+00    0.3445314438E+00    0.1765416552E-02    0.2847201287E-01    0.3338541251E+00
    0.3100000000E+05    0.6448313065E+00    0.3445468746E+00    0.1701917009E-02    0.2849491297E-01    0.3340710820E+00
    0.3300000000E+05    0.6452215608E+00    0.3445556036E+00    0.1644602611E-02    0.2851523804E-01    0.3342692500E+00
    0.3500000000E+05    0.6455671349E+00    0.3445590117E+00    0.1592535994E-02    0.2853341729E-01    0.3344513800E+00
    0.3700000000E+05    0.6458752667E+00    0.3445581603E+00    0.1544966799E-02    0.2854978862E-01    0.3346196825E+00
    0.3900000000E+05    0.6461517122E+00    0.3445538755E+00    0.1501286374E-02    0.2856462173E-01    0.3347759572E+00
    0.4100000000E+05    0.6464011063E+00    0.3445468078E+00    0.1460995185E-02    0.2857813460E-01    0.3349216870E+00
    0.4300000000E+05    0.6466272230E+00    0.3445374746E+00    0.1423678925E-02    0.2859050535E-01    0.3350581061E+00
    0.4500000000E+05    0.6468331659E+00    0.3445262914E+00    0.1388990724E-02    0.2860188102E-01    0.3351862518E+00
    0.4700000000E+05    0.6470215112E+00    0.3445135943E+00    0.1356637674E-02    0.2861238409E-01    0.3353070033E+00
    0.4900000000E+05    0.6471944145E+00    0.3444996573E+00    0.1326370517E-02    0.2862211743E-01    0.3354211115E+00
    0.1000000000E+05    0.6313615105E+00    0.3430503363E+00    0.3230472496E-02    0.2784681906E-01    0.3292673796E+00
    0.3000000000E+05    0.6446166363E+00    0.3445400988E+00    0.1732826157E-02    0.2848381602E-01    0.3339651497E+00
    0.5000000000E+05    0.6472756549E+00    0.3444922958E+00    0.1311951183E-02    0.2862672320E-01    0.3354758798E+00
    0.7000000000E+05    0.6484108038E+00    0.3443176152E+00    0.1094275648E-02    0.2869390432E-01    0.3363406138E+00
    0.9000000000E+05    0.6490386621E+00    0.3441328550E+00    0.9561774568E-03    0.2873446514E-01    0.3369370373E+00
    0.1100000000E+06    0.6494364052E+00    0.3439585513E+00    0.8587570801E-03    0.2876232472E-01    0.3373888674E+00
    0.1300000000E+06    0.6497105131E+00    0.3437981380E+00    0.7853771669E-03    0.2878302634E-01    0.3377510459E+00
    0.1500000000E+06    0.6499106062E+00    0.3436510917E+00    0.7275814988E-03    0.2879924322E-01    0.3380525037E+00
    0.1700000000E+06    0.6500629154E+00    0.3435159911E+00    0.6805603625E-03    0.2881243575E-01    0.3383102535E+00
    0.1900000000E+06    0.6501826042E+00    0.3433913419E+00    0.6413512145E-03    0.2882347540E-01    0.3385351084E+00
    0.2100000000E+06    0.6502790451E+00    0.3432757988E+00    0.6080172090E-03    0.2883291765E-01    0.3387343502E+00
    0.2300000000E+06    0.6503583417E+00    0.3431682077E+00    0.5792319964E-03    0.2884113517E-01    0.3389131074E+00
    0.2500000000E+06    0.6504246379E+00    0.3430675939E+00    0.5540529361E-03    0.2884838847E-01    0.3390751227E+00
    0.2700000000E+06    0.6504808457E+00    0.3429731373E+00    0.5317893897E-03    0.2885486582E-01    0.3392232085E+00
    0.2900000000E+06    0.6505290702E+00    0.3428841457E+00    0.5119223291E-03    0.2886070715E-01    0.3393595297E+00
    0.3100000000E+06    0.6505708714E+00    0.3428000326E+00    0.4940532003E-03    0.2886601893E-01    0.3394857874E+00
    0.3300000000E+06    0.6506074289E+00    0.3427202981E+00    0.4778702438E-03    0.2887088387E-01    0.3396033416E+00
    0.3500000000E+06    0.6506396516E+00    0.3426445132E+00    0.4631256435E-03    0.2887536729E-01    0.3397132964E+00
    0.3700000000E+06    0.6506682507E+00    0.3425723079E+00    0.4496196175E-03    0.2887952164E-01    0.3398165600E+00
    0.3900000000E+06    0.6506937907E+00    0.3425033609E+00    0.4371890902E-03    0.2888338956E-01    0.3399138881E+00
    0.4100000000E+06    0.6507167253E+00    0.3424373918E+00    0.4256994646E-03    0.2888700614E-01    0.3400059165E+00
    0.4300000000E+06    0.6507374232E+00    0.3423741543E+00    0.4150385403E-03    0.2889040061E-01    0.3400931845E+00
    0.4500000000E+06    0.6507561870E+00    0.3423134314E+00    0.4051119457E-03    0.2889359749E-01    0.3401761537E+00
    0.4700000000E+06    0.6507732676E+00    0.3422550307E+00    0.3958396586E-03    0.2889661758E-01    0.3402552223E+00
    0.4900000000E+06    0.6507888745E+00    0.3421987809E+00    0.3871533219E-03    0.2889947863E-01    0.3403307358E+00
    0.1000000000E+06    0.6492576435E+00    0.3440440216E+00    0.9037016639E-03    0.2874953613E-01    0.3371767134E+00
    0.3000000000E+06    0.6505506926E+00    0.3428415124E+00    0.5027592334E-03    0.2886342359E-01    0.3394238246E+00
    0.5000000000E+06    0.6507961815E+00    0.3421714141E+00    0.3830111875E-03    0.2890085438E-01    0.3403672553E+00
    0.7000000000E+06    0.6508960184E+00    0.3417071472E+00    0.3201957518E-03    0.2892281649E-01    0.3409677040E+00
    0.9000000000E+06    0.6509485102E+00    0.3413513575E+00    0.2801009918E-03    0.2893826129E-01    0.3414079000E+00
    0.1100000000E+07    0.6509800185E+00    0.3410626834E+00    0.2517231894E-03    0.2895014276E-01    0.3417551775E+00
    0.1300000000E+07    0.6510005155E+00    0.3408196878E+00    0.2303050340E-03    0.2895978590E-01    0.3420418113E+00
    0.1500000000E+07    0.6510145785E+00    0.3406098151E+00    0.2134130135E-03    0.2896789553E-01    0.3422857617E+00
    0.1700000000E+07    0.6510245899E+00    0.3404250733E+00    0.1996571597E-03    0.2897489006E-01    0.3424980477E+00
    0.1900000000E+07    0.6510319060E+00    0.3402600585E+00    0.1881787857E-03    0.2898103781E-01    0.3426859148E+00
    0.2100000000E+07    0.6510373517E+00    0.3401109445E+00    0.1784152775E-03    0.2898652093E-01    0.3428543803E+00
    0.2300000000E+07    0.6510414555E+00    0.3399749224E+00    0.1699807183E-03    0.2899146866E-01    0.3430070615E+00
    0.2500000000E+07    0.6510445705E+00    0.3398498689E+00    0.1626004793E-03    0.2899597599E-01    0.3431466519E+00
    0.2700000000E+07    0.6510469405E+00    0.3397341393E+00    0.1560731405E-03    0.2900011473E-01    0.3432752109E+00
    0.2900000000E+07    0.6510487388E+00    0.3396264341E+00    0.1502472027E-03    0.2900394049E-01    0.3433943480E+00
    0.3100000000E+07    0.6510500916E+00    0.3395257081E+00    0.1450062504E-03    0.2900749720E-01    0.3435053451E+00
    0.3300000000E+07    0.6510510925E+00    0.3394311084E+00    0.1402591667E-03    0.2901082015E-01    0.3436092393E+00
    0.3500000000E+07    0.6510518125E+00    0.3393419296E+00    0.1359334872E-03    0.2901393814E-01    0.3437068821E+00
    0.3700000000E+07    0.6510523059E+00    0.3392575819E+00    0.1319707682E-03    0.2901687496E-01    0.3437989803E+00
    0.3900000000E+07    0.6510526150E+00    0.3391775667E+00    0.1283232868E-03    0.2901965048E-01    0.3438861279E+00
    0.4100000000E+07    0.6510527733E+00    0.3391014591E+00    0.1249516414E-03    0.2902228149E-01    0.3439688281E+00
    0.4300000000E+07    0.6510528072E+00    0.3390288940E+00    0.1218229774E-03    0.2902478227E-01    0.3440475113E+00
    0.4500000000E+07    0.6510527382E+00    0.3389595551E+00    0.1189096543E-03    0.2902716511E-01    0.3441225485E+00
    0.4700000000E+07    0.6510525835E+00    0.3388931668E+00    0.1161882293E-03    0.2902944062E-01    0.3441942615E+00
    0.4900000000E+07    0.6510523574E+00    0.3388294873E+00    0.1136386727E-03    0.2903161805E-01    0.3442629315E+00
    0.1000000000E+07    0.6509660736E+00    0.3412002570E+00    0.2648238834E-03    0.2894454372E-01    0.3415906634E+00
    0.3000000000E+07    0.6510494644E+00    0.3395752559E+00    0.1475598013E-03    0.2900575009E-01    0.3434507943E+00
    0.5000000000E+07    0.6510522212E+00    0.3387985958E+00    0.1124228657E-03    0.2903267256E-01    0.3442962037E+00
    0.7000000000E+07    0.6510477109E+00    0.3382823362E+00    0.9398295268E-04    0.2905014281E-01    0.3448486964E+00
    0.9000000000E+07    0.6510420682E+00    0.3378948195E+00    0.8221143283E-04    0.2906309917E-01    0.3452595652E+00
    0.1100000000E+08    0.6510364843E+00    0.3375843961E+00    0.7387967301E-04    0.2907340187E-01    0.3455867010E+00
    0.1300000000E+08    0.6510312385E+00    0.3373253813E+00    0.6759128882E-04    0.2908195553E-01    0.3458584749E+00
    0.1500000000E+08    0.6510263789E+00    0.3371031194E+00    0.6263185586E-04    0.2908926890E-01    0.3460909149E+00
    0.1700000000E+08    0.6510218877E+00    0.3369084507E+00    0.5859327161E-04    0.2909565667E-01    0.3462939651E+00
    0.1900000000E+08    0.6510177296E+00    0.3367352656E+00    0.5522340773E-04    0.2910132713E-01    0.3464742204E+00
    0.2100000000E+08    0.6510138673E+00    0.3365792841E+00    0.5235706466E-04    0.2910642533E-01    0.3466362795E+00
    0.2300000000E+08    0.6510102664E+00    0.3364373907E+00    0.4988092475E-04    0.2911105632E-01    0.3467834770E+00
    0.2500000000E+08    0.6510068969E+00    0.3363072471E+00    0.4771434786E-04    0.2911529863E-01    0.3469183079E+00
    0.2700000000E+08    0.6510037326E+00    0.3361870530E+00    0.4579819059E-04    0.2911921253E-01    0.3470426874E+00
