  Pressure (Pa) 22mC5-400 (mol/kg) 3mC6-400 (mol/kg) 33mC5-400 (mol/kg) 23mC5-400 (mol/kg) C7-400 (mol/kg)
    0.1000000000E+01    0.2122802121E-02    0.1585356321E-02    0.6484494307E-03    0.9318511954E-04    0.3430049735E-02
    0.3000000000E+01    0.6319179962E-02    0.4680069551E-02    0.1910588698E-02    0.2773962596E-03    0.1012647929E-01
    0.5000000000E+01    0.1045129015E-01    0.7677491005E-02    0.3128157509E-02    0.4587885688E-03    0.1661337109E-01
    0.7000000000E+01    0.1452072549E-01    0.1058220224E-01    0.4303174557E-02    0.6374318925E-03    0.2290057717E-01
    0.9000000000E+01    0.1852902566E-01    0.1339850058E-01    0.5437539085E-02    0.8133937479E-03    0.2899733890E-01
    0.1100000000E+02    0.2247767945E-01    0.1613042087E-01    0.6533039726E-02    0.9867394198E-03    0.3491233357E-01
    0.1300000000E+02    0.2636812681E-01    0.1878175520E-01    0.7591362558E-02    0.1157532052E-02    0.4065371686E-01
    0.1500000000E+02    0.3020176084E-01    0.2135607091E-01    0.8614098458E-02    0.1325832734E-02    0.4622916151E-01
    0.1700000000E+02    0.3397992967E-01    0.2385672704E-01    0.9602749823E-02    0.1491700584E-02    0.5164589256E-01
    0.1900000000E+02    0.3770393825E-01    0.2628688931E-01    0.1055873672E-01    0.1655192826E-02    0.5691071961E-01
    0.2100000000E+02    0.4137505009E-01    0.2864954385E-01    0.1148340253E-01    0.1816364868E-02    0.6203006626E-01
    0.2300000000E+02    0.4499448885E-01    0.3094750976E-01    0.1237801910E-01    0.1975270371E-02    0.6700999718E-01
    0.2500000000E+02    0.4856343992E-01    0.3318345067E-01    0.1324379154E-01    0.2131961316E-02    0.7185624280E-01
    0.2700000000E+02    0.5208305191E-01    0.3535988530E-01    0.1408186255E-01    0.2286488073E-02    0.7657422210E-01
    0.2900000000E+02    0.5555443802E-01    0.3747919719E-01    0.1489331649E-01    0.2438899459E-02    0.8116906352E-01
    0.3100000000E+02    0.5897867745E-01    0.3954364368E-01    0.1567918309E-01    0.2589242800E-02    0.8564562420E-01
    0.3300000000E+02    0.6235681665E-01    0.4155536417E-01    0.1644044085E-01    0.2737563987E-02    0.9000850769E-01
    0.3500000000E+02    0.6568987056E-01    0.4351638770E-01    0.1717802027E-01    0.2883907527E-02    0.9426208037E-01
    0.3700000000E+02    0.6897882379E-01    0.4542864003E-01    0.1789280674E-01    0.3028316600E-02    0.9841048651E-01
    0.3900000000E+02    0.7222463175E-01    0.4729395009E-01    0.1858564329E-01    0.3170833104E-02    0.1024576623E+00
    0.4100000000E+02    0.7542822171E-01    0.4911405604E-01    0.1925733310E-01    0.3311497703E-02    0.1064073486E+00
    0.4300000000E+02    0.7859049385E-01    0.5089061082E-01    0.1990864185E-01    0.3450349873E-02    0.1102631032E+00
    0.4500000000E+02    0.8171232220E-01    0.5262518734E-01    0.2054029991E-01    0.3587427945E-02    0.1140283118E+00
    0.4700000000E+02    0.8479455564E-01    0.5431928324E-01    0.2115300433E-01    0.3722769146E-02    0.1177061981E+00
    0.4900000000E+02    0.8783801877E-01    0.5597432538E-01    0.2174742077E-01    0.3856409637E-02    0.1212998338E+00
    0.1000000000E+02    0.2051071724E-01    0.1477476551E-01    0.5990039698E-02    0.9003896111E-03    0.3197703563E-01
    0.3000000000E+02    0.5727238491E-01    0.3851814222E-01    0.1528938589E-01    0.2514326734E-02    0.8342183548E-01
    0.5000000000E+02    0.8934546273E-01    0.5678762884E-01    0.2203797086E-01    0.3922603136E-02    0.1230659781E+00
    0.7000000000E+02    0.1176424409E+00    0.7130241001E-01    0.2702934889E-01    0.5165235062E-02    0.1546095386E+00
    0.9000000000E+02    0.1428482546E+00    0.8312753867E-01    0.3076646095E-01    0.6272260730E-02    0.1803459345E+00
    0.1100000000E+03    0.1654872100E+00    0.9295838353E-01    0.3358359353E-01    0.7266674709E-02    0.2017732925E+00
    0.1300000000E+03    0.1859676659E+00    0.1012684610E+00    0.3571133838E-01    0.8166387079E-02    0.2199122892E+00
    0.1500000000E+03    0.2046126174E+00    0.1083915395E+00    0.3731355597E-01    0.8985564447E-02    0.2354827315E+00
    0.1700000000E+03    0.2216810949E+00    0.1145697653E+00    0.3850954944E-01    0.9735568298E-02    0.2490070947E+00
    0.1900000000E+03    0.2373834348E+00    0.1199831630E+00    0.3938795220E-01    0.1042562462E-01    0.2608740074E+00
    0.2100000000E+03    0.2518923709E+00    0.1247684139E+00    0.4001574281E-01    0.1106331027E-01    0.2713786767E+00
    0.2300000000E+03    0.2653512197E+00    0.1290312022E+00    0.4044427575E-01    0.1165491193E-01    0.2807494732E+00
    0.2500000000E+03    0.2778800092E+00    0.1328545612E+00    0.4071342119E-01    0.1220569488E-01    0.2891659104E+00
    0.2700000000E+03    0.2895801292E+00    0.1363046571E+00    0.4085447057E-01    0.1272010694E-01    0.2967711048E+00
    0.2900000000E+03    0.3005379037E+00    0.1394348821E+00    0.4089221571E-01    0.1320193512E-01    0.3036805999E+00
    0.3100000000E+03    0.3108273643E+00    0.1422888090E+00    0.4084646223E-01    0.1365442727E-01    0.3099887348E+00
    0.3300000000E+03    0.3205124280E+00    0.1449023599E+00    0.4073314792E-01    0.1408038758E-01    0.3157733218E+00
    0.3500000000E+03    0.3296486217E+00    0.1473054229E+00    0.4056518036E-01    0.1448225225E-01    0.3210991340E+00
    0.3700000000E+03    0.3382844616E+00    0.1495230748E+00    0.4035307200E-01    0.1486214993E-01    0.3260205433E+00
    0.3900000000E+03    0.3464625650E+00    0.1515765167E+00    0.4010542680E-01    0.1522195052E-01    0.3305835404E+00
    0.4100000000E+03    0.3542205532E+00    0.1534837992E+00    0.3982931703E-01    0.1556330478E-01    0.3348273006E+00
    0.4300000000E+03    0.3615917915E+00    0.1552603901E+00    0.3953057754E-01    0.1588767676E-01    0.3387854093E+00
    0.4500000000E+03    0.3686059977E+00    0.1569196229E+00    0.3921403746E-01    0.1619637050E-01    0.3424868322E+00
    0.4700000000E+03    0.3752897480E+00    0.1584730555E+00    0.3888370415E-01    0.1649055223E-01    0.3459566884E+00
    0.4900000000E+03    0.3816668985E+00    0.1599307572E+00    0.3854291008E-01    0.1677126884E-01    0.3492168735E+00
    0.1000000000E+03    0.1544607623E+00    0.8825863303E-01    0.3227370993E-01    0.6782323730E-02    0.1915258002E+00
    0.3000000000E+03    0.3057619635E+00    0.1408939796E+00    0.4087870050E-01    0.1343166350E-01    0.3069046325E+00
    0.5000000000E+03    0.3847472982E+00    0.1606265074E+00    0.3836947670E-01    0.1690687612E-01    0.3507744264E+00
    0.7000000000E+03    0.4345033402E+00    0.1711692746E+00    0.3481961943E-01    0.1909838880E-01    0.3745183760E+00
    0.9000000000E+03    0.4689418983E+00    0.1777966922E+00    0.3161215940E-01    0.2061680508E-01    0.3896273574E+00
    0.1100000000E+04    0.4942126115E+00    0.1823756224E+00    0.2891294104E-01    0.2173213891E-01    0.4001885424E+00
    0.1300000000E+04    0.5135294120E+00    0.1857415393E+00    0.2666663499E-01    0.2258555786E-01    0.4080395789E+00
    0.1500000000E+04    0.5287553542E+00    0.1883267498E+00    0.2478792665E-01    0.2325892419E-01    0.4141355932E+00
    0.1700000000E+04    0.5410500662E+00    0.1903783697E+00    0.2320123174E-01    0.2380321022E-01    0.4190249217E+00
    0.1900000000E+04    0.5511743185E+00    0.1920483344E+00    0.2184652774E-01    0.2425186819E-01    0.4230461221E+00
    0.2100000000E+04    0.5596480681E+00    0.1934354172E+00    0.2067755272E-01    0.2462776947E-01    0.4264201965E+00
    0.2300000000E+04    0.5668386303E+00    0.1946067269E+00    0.1965881496E-01    0.2494707685E-01    0.4292979036E+00
    0.2500000000E+04    0.5730127047E+00    0.1956095207E+00    0.1876294751E-01    0.2522152990E-01    0.4317858254E+00
    0.2700000000E+04    0.5783684851E+00    0.1964780779E+00    0.1796865859E-01    0.2545985568E-01    0.4339615746E+00
    0.2900000000E+04    0.5830562270E+00    0.1972378930E+00    0.1725920999E-01    0.2566867272E-01    0.4358830942E+00
    0.3100000000E+04    0.5871918412E+00    0.1979083353E+00    0.1662130161E-01    0.2585308846E-01    0.4375945723E+00
    0.3300000000E+04    0.5908661233E+00    0.1985043946E+00    0.1604425392E-01    0.2601710505E-01    0.4391303326E+00
    0.3500000000E+04    0.5941511678E+00    0.1990378592E+00    0.1551940518E-01    0.2616390143E-01    0.4405174671E+00
    0.3700000000E+04    0.5971049199E+00    0.1995181322E+00    0.1503966350E-01    0.2629603351E-01    0.4417776644E+00
    0.3900000000E+04    0.5997744640E+00    0.1999528088E+00    0.1459917062E-01    0.2641557888E-01    0.4429285060E+00
    0.4100000000E+04    0.6021984395E+00    0.2003480933E+00    0.1419304712E-01    0.2652424306E-01    0.4439844047E+00
    0.4300000000E+04    0.6044088420E+00    0.2007091052E+00    0.1381719743E-01    0.2662343881E-01    0.4449572948E+00
    0.4500000000E+04    0.6064323844E+00    0.2010401077E+00    0.1346815912E-01    0.2671434606E-01    0.4458571491E+00
    0.4700000000E+04    0.6082915375E+00    0.2013446805E+00    0.1314298535E-01    0.2679795769E-01    0.4466923703E+00
    0.4900000000E+04    0.6100053352E+00    0.2016258519E+00    0.1283915242E-01    0.2687511502E-01    0.4474700913E+00
    0.1000000000E+04    0.4824791830E+00    0.1802764306E+00    0.3020082131E-01    0.2121413879E-01    0.3953319034E+00
    0.3000000000E+04    0.5851868729E+00    0.1975832622E+00    0.1693203422E-01    0.2576365850E-01    0.4367627477E+00
    0.5000000000E+04    0.6108128919E+00    0.2017584836E+00    0.1269454743E-01    0.2691150174E-01    0.4478393298E+00
    0.7000000000E+04    0.6222452028E+00    0.2036457753E+00    0.1052571509E-01    0.2742924213E-01    0.4533068927E+00
    0.9000000000E+04    0.6286811382E+00    0.2047130044E+00    0.9166311454E-02    0.2772392515E-01    0.4566640720E+00
    0.1100000000E+05    0.6327980519E+00    0.2053922711E+00    0.8215693135E-02    0.2791449924E-01    0.4589773887E+00
    0.1300000000E+05    0.6356540014E+00    0.2058574732E+00    0.7504048860E-02    0.2804814882E-01    0.4606899076E+00
    0.1500000000E+05    0.6377495828E+00    0.2061922781E+00    0.6945993235E-02    0.2814728172E-01    0.4620212733E+00
    0.1700000000E+05    0.6393518668E+00    0.2064419538E+00    0.6493420116E-02    0.2822389726E-01    0.4630937798E+00
    0.1900000000E+05    0.6406161787E+00    0.2066331278E+00    0.6116931326E-02    0.2828500011E-01    0.4639813851E+00
    0.2100000000E+05    0.6416389382E+00    0.2067824774E+00    0.5797430717E-02    0.2833495463E-01    0.4647316789E+00
    0.2300000000E+05    0.6424831327E+00    0.2069009718E+00    0.5521910284E-02    0.2837662250E-01    0.4653768007E+00
    0.2500000000E+05    0.6431916359E+00    0.2069961147E+00    0.5281165405E-02    0.2841195880E-01    0.4659393144E+00
    0.2700000000E+05    0.6437946339E+00    0.2070732072E+00    0.5068476531E-02    0.2844234513E-01    0.4664355734E+00
    0.2900000000E+05    0.6443139909E+00    0.2071360968E+00    0.4878809031E-02    0.2846878589E-01    0.4668777499E+00
    0.3100000000E+05    0.6447659286E+00    0.2071876401E+00    0.4708306709E-02    0.2849202905E-01    0.4672751103E+00
    0.3300000000E+05    0.6451627347E+00    0.2072300006E+00    0.4553959648E-02    0.2851264325E-01    0.4676348468E+00
    0.3500000000E+05    0.6455138861E+00    0.2072648442E+00    0.4413379676E-02    0.2853106867E-01    0.4679626370E+00
    0.3700000000E+05    0.6458268083E+00    0.2072934738E+00    0.4284644553E-02    0.2854765146E-01    0.4682630290E+00
    0.3900000000E+05    0.6461074016E+00    0.2073169211E+00    0.4166187354E-02    0.2856266770E-01    0.4685397141E+00
    0.4100000000E+05    0.6463604132E+00    0.2073360132E+00    0.4056716315E-02    0.2857634029E-01    0.4687957230E+00
    0.4300000000E+05    0.6465897054E+00    0.2073514201E+00    0.3955155720E-02    0.2858885127E-01    0.4690335705E+00
    0.4500000000E+05    0.6467984526E+00    0.2073636893E+00    0.3860601600E-02    0.2860035080E-01    0.4692553625E+00
    0.4700000000E+05    0.6469892878E+00    0.2073732726E+00    0.3772288037E-02    0.2861096385E-01    0.4694628776E+00
    0.4900000000E+05    0.6471644128E+00    0.2073805453E+00    0.3689561213E-02    0.2862079534E-01    0.4696576297E+00
    0.1000000000E+05    0.6309438884E+00    0.2050871326E+00    0.8653408330E-02    0.2782841290E-01    0.4579158309E+00
    0.3000000000E+05    0.6445475423E+00    0.2071631379E+00    0.4791367137E-02    0.2848076813E-01    0.4670815416E+00
    0.5000000000E+05    0.6472466757E+00    0.2073834154E+00    0.3650114091E-02    0.2862544627E-01    0.4697506326E+00
    0.7000000000E+05    0.6483946057E+00    0.2073741114E+00    0.3051948951E-02    0.2869319239E-01    0.4711764194E+00
    0.9000000000E+05    0.6490282383E+00    0.2073065743E+00    0.2670084281E-02    0.2873400879E-01    0.4721103457E+00
    0.1100000000E+06    0.6494291145E+00    0.2072220561E+00    0.2399729018E-02    0.2876200725E-01    0.4727896714E+00
    0.1300000000E+06    0.6497051273E+00    0.2071338928E+00    0.2195615479E-02    0.2878279343E-01    0.4733164221E+00
    0.1500000000E+06    0.6499064726E+00    0.2070470066E+00    0.2034591690E-02    0.2879906600E-01    0.4737428204E+00
    0.1700000000E+06    0.6500596532E+00    0.2069632692E+00    0.1903432728E-02    0.2881229736E-01    0.4740988115E+00
    0.1900000000E+06    0.6501799750E+00    0.2068833192E+00    0.1793967148E-02    0.2882336527E-01    0.4744030026E+00
    0.2100000000E+06    0.6502768920E+00    0.2068072668E+00    0.1700839878E-02    0.2883282882E-01    0.4746676710E+00
    0.2300000000E+06    0.6503565565E+00    0.2067349921E+00    0.1620376883E-02    0.2884106286E-01    0.4749013036E+00
    0.2500000000E+06    0.6504231437E+00    0.2066662806E+00    0.1549963067E-02    0.2884832924E-01    0.4751099896E+00
    0.2700000000E+06    0.6504795860E+00    0.2066008858E+00    0.1487680060E-02    0.2885481717E-01    0.4752982331E+00
    0.2900000000E+06    0.6505280027E+00    0.2065385586E+00    0.1432084675E-02    0.2886066720E-01    0.4754694512E+00
    0.3100000000E+06    0.6505699636E+00    0.2064790615E+00    0.1382067736E-02    0.2886598624E-01    0.4756262927E+00
    0.3300000000E+06    0.6506066555E+00    0.2064221738E+00    0.1336760964E-02    0.2887085730E-01    0.4757708487E+00
    0.3500000000E+06    0.6506389925E+00    0.2063676935E+00    0.1295473720E-02    0.2887534595E-01    0.4759047971E+00
    0.3700000000E+06    0.6506676898E+00    0.2063154373E+00    0.1257648914E-02    0.2887950481E-01    0.4760295026E+00
    0.3900000000E+06    0.6506933149E+00    0.2062652392E+00    0.1222831588E-02    0.2888337665E-01    0.4761460893E+00
    0.4100000000E+06    0.6507163237E+00    0.2062169495E+00    0.1190646068E-02    0.2888699667E-01    0.4762554931E+00
    0.4300000000E+06    0.6507370868E+00    0.2061704328E+00    0.1160779069E-02    0.2889039417E-01    0.4763585009E+00
    0.4500000000E+06    0.6507559083E+00    0.2061255667E+00    0.1132966995E-02    0.2889359375E-01    0.4764557803E+00
    0.4700000000E+06    0.6507730402E+00    0.2060822403E+00    0.1106986263E-02    0.2889661625E-01    0.4765479019E+00
    0.4900000000E+06    0.6507886931E+00    0.2060403533E+00    0.1082645824E-02    0.2889947947E-01    0.4766353575E+00
    0.1000000000E+06    0.6492489972E+00    0.2072652972E+00    0.2524549998E-02    0.2874915854E-01    0.4724737586E+00
    0.3000000000E+06    0.6505497085E+00    0.2065084705E+00    0.1406437958E-02    0.2886338743E-01    0.4755495272E+00
    0.5000000000E+06    0.6507960213E+00    0.2060199206E+00    0.1071038447E-02    0.2890085622E-01    0.4766774709E+00
    0.7000000000E+06    0.6508961275E+00    0.2056685428E+00    0.8949840193E-03    0.2892283140E-01    0.4773537464E+00
    0.9000000000E+06    0.6509487472E+00    0.2053941845E+00    0.7825963606E-03    0.2893828282E-01    0.4778316538E+00
    0.1100000000E+07    0.6509803295E+00    0.2051689901E+00    0.7030557455E-03    0.2895016837E-01    0.4781991133E+00
    0.1300000000E+07    0.6510008752E+00    0.2049779079E+00    0.6430290110E-03    0.2895981438E-01    0.4784965921E+00
    0.1500000000E+07    0.6510149727E+00    0.2048118934E+00    0.5956935997E-03    0.2896792618E-01    0.4787459348E+00
    0.1700000000E+07    0.6510250104E+00    0.2046650870E+00    0.5571519524E-03    0.2897492246E-01    0.4789602253E+00
    0.1900000000E+07    0.6510323473E+00    0.2045334744E+00    0.5249960526E-03    0.2898107167E-01    0.4791478983E+00
    0.2100000000E+07    0.6510378100E+00    0.2044141843E+00    0.4976481084E-03    0.2898655605E-01    0.4793146982E+00
    0.2300000000E+07    0.6510419282E+00    0.2043050917E+00    0.4740258549E-03    0.2899150490E-01    0.4794647079E+00
    0.2500000000E+07    0.6510450557E+00    0.2042045790E+00    0.4533591383E-03    0.2899601322E-01    0.4796009300E+00
    0.2700000000E+07    0.6510474366E+00    0.2041113867E+00    0.4350831268E-03    0.2900015287E-01    0.4797256350E+00
    0.2900000000E+07    0.6510492447E+00    0.2040245143E+00    0.4187729970E-03    0.2900397946E-01    0.4798405803E+00
    0.3100000000E+07    0.6510506063E+00    0.2039431539E+00    0.4041023206E-03    0.2900753694E-01    0.4799471531E+00
    0.3300000000E+07    0.6510516153E+00    0.2038666438E+00    0.3908156204E-03    0.2901086061E-01    0.4800464671E+00
    0.3500000000E+07    0.6510523426E+00    0.2037944350E+00    0.3787097294E-03    0.2901397928E-01    0.4801394295E+00
    0.3700000000E+07    0.6510528428E+00    0.2037260668E+00    0.3676208000E-03    0.2901691674E-01    0.4802267891E+00
    0.3900000000E+07    0.6510531583E+00    0.2036611493E+00    0.3574150478E-03    0.2901969287E-01    0.4803091706E+00
    0.4100000000E+07    0.6510533224E+00    0.2035993490E+00    0.3479820229E-03    0.2902232446E-01    0.4803871006E+00
    0.4300000000E+07    0.6510533620E+00    0.2035403788E+00    0.3392296340E-03    0.2902482580E-01    0.4804610271E+00
    0.4500000000E+07    0.6510532982E+00    0.2034839894E+00    0.3310804086E-03    0.2902720917E-01    0.4805313343E+00
    0.4700000000E+07    0.6510531486E+00    0.2034299635E+00    0.3234686441E-03    0.2902948519E-01    0.4805983540E+00
    0.4900000000E+07    0.6510529272E+00    0.2033781099E+00    0.3163382077E-03    0.2903166311E-01    0.4806623747E+00
    0.1000000000E+07    0.6509663519E+00    0.2052765734E+00    0.7397750130E-03    0.2894456749E-01    0.4780260376E+00
    0.3000000000E+07    0.6510499748E+00    0.2039831894E+00    0.4112501053E-03    0.2900578946E-01    0.4798948381E+00
    0.5000000000E+07    0.6510527934E+00    0.2033529442E+00    0.3129381323E-03    0.2903271785E-01    0.4806933406E+00
    0.7000000000E+07    0.6510483209E+00    0.2029314094E+00    0.2613886806E-03    0.2905019219E-01    0.4812027336E+00
    0.9000000000E+07    0.6510427063E+00    0.2026139729E+00    0.2285023483E-03    0.2906315177E-01    0.4815762197E+00
    0.1100000000E+08    0.6510371450E+00    0.2023591774E+00    0.2052378595E-03    0.2907345717E-01    0.4818707296E+00
    0.1300000000E+08    0.6510319184E+00    0.2021462865E+00    0.1876866557E-03    0.2908201318E-01    0.4821136523E+00
    0.1500000000E+08    0.6510270755E+00    0.2019634219E+00    0.1738497985E-03    0.2908932864E-01    0.4823202578E+00
    0.1700000000E+08    0.6510225991E+00    0.2018031390E+00    0.1625858131E-03    0.2909571830E-01    0.4824999238E+00
    0.1900000000E+08    0.6510184544E+00    0.2016604612E+00    0.1531896990E-03    0.2910139049E-01    0.4826588194E+00
    0.2100000000E+08    0.6510146043E+00    0.2015318964E+00    0.1451996488E-03    0.2910649029E-01    0.4828012177E+00
    0.2300000000E+08    0.6510110147E+00    0.2014148990E+00    0.1382989652E-03    0.2911112277E-01    0.4829301992E+00
    0.2500000000E+08    0.6510076556E+00    0.2013075562E+00    0.1322623271E-03    0.2911536648E-01    0.4830480577E+00
    0.2700000000E+08    0.6510045011E+00    0.2012083939E+00    0.1269245124E-03    0.2911928170E-01    0.4831565467E+00
