  Pressure (Pa) 22mC5-400 (mol/kg) 3mC6-400 (mol/kg) 33mC5-400 (mol/kg) 23mC5-400 (mol/kg) C7-400 (mol/kg)
    0.1000000000E+01    0.2122510334E-02    0.5279477230E-03    0.6478872073E-03    0.1863446450E-03    0.5140187773E-02
    0.3000000000E+01    0.6316596932E-02    0.1555636238E-02    0.1905704124E-02    0.5545659477E-03    0.1514721293E-01
    0.5000000000E+01    0.1044423162E-01    0.2547380159E-02    0.3115052019E-02    0.9169579934E-03    0.2480587803E-01
    0.7000000000E+01    0.1450711347E-01    0.3505055080E-02    0.4278349881E-02    0.1273669793E-02    0.3413433220E-01
    0.9000000000E+01    0.1850688315E-01    0.4430407946E-02    0.5397857981E-02    0.1624845236E-02    0.4314948074E-01
    0.1100000000E+02    0.2244512541E-01    0.5325067912E-02    0.6475690916E-02    0.1970623308E-02    0.5186708994E-01
    0.1300000000E+02    0.2632337145E-01    0.6190556108E-02    0.7513829361E-02    0.2311138299E-02    0.6030188156E-01
    0.1500000000E+02    0.3014310111E-01    0.7028294454E-02    0.8514130692E-02    0.2646519996E-02    0.6846761796E-01
    0.1700000000E+02    0.3390574505E-01    0.7839613626E-02    0.9478338599E-02    0.2976893871E-02    0.7637717914E-01
    0.1900000000E+02    0.3761268675E-01    0.8625760266E-02    0.1040809180E-01    0.3302381261E-02    0.8404263239E-01
    0.2100000000E+02    0.4126526443E-01    0.9387903519E-02    0.1130493195E-01    0.3623099532E-02    0.9147529549E-01
    0.2300000000E+02    0.4486477288E-01    0.1012714096E-01    0.1217031086E-01    0.3939162246E-02    0.9868579408E-01
    0.2500000000E+02    0.4841246524E-01    0.1084450402E-01    0.1300559701E-01    0.4250679306E-02    0.1056841138E+00
    0.2700000000E+02    0.5190955461E-01    0.1154096286E-01    0.1381208159E-01    0.4557757108E-02    0.1124796480E+00
    0.2900000000E+02    0.5535721566E-01    0.1221743089E-01    0.1459098392E-01    0.4860498677E-02    0.1190812408E+00
    0.3100000000E+02    0.5875658613E-01    0.1287476885E-01    0.1534345647E-01    0.5159003799E-02    0.1254972269E+00
    0.3300000000E+02    0.6210876828E-01    0.1351378857E-01    0.1607058947E-01    0.5453369150E-02    0.1317354679E+00
    0.3500000000E+02    0.6541483025E-01    0.1413525637E-01    0.1677341506E-01    0.5743688413E-02    0.1378033850E+00
    0.3700000000E+02    0.6867580739E-01    0.1473989625E-01    0.1745291120E-01    0.6030052394E-02    0.1437079900E+00
    0.3900000000E+02    0.7189270348E-01    0.1532839274E-01    0.1811000523E-01    0.6312549132E-02    0.1494559130E+00
    0.4100000000E+02    0.7506649193E-01    0.1590139358E-01    0.1874557710E-01    0.6591264003E-02    0.1550534279E+00
    0.4300000000E+02    0.7819811694E-01    0.1645951216E-01    0.1936046245E-01    0.6866279821E-02    0.1605064762E+00
    0.4500000000E+02    0.8128849459E-01    0.1700332975E-01    0.1995545534E-01    0.7137676932E-02    0.1658206888E+00
    0.4700000000E+02    0.8433851383E-01    0.1753339760E-01    0.2053131088E-01    0.7405533307E-02    0.1710014060E+00
    0.4900000000E+02    0.8734903755E-01    0.1805023885E-01    0.2108874757E-01    0.7669924629E-02    0.1760536960E+00
    0.1000000000E+02    0.2048359828E-01    0.4881477047E-02    0.5941857043E-02    0.1798400443E-02    0.4754453421E-01
    0.3000000000E+02    0.5706286751E-01    0.1254843929E-01    0.1497045437E-01    0.5010274680E-02    0.1223119327E+00
    0.5000000000E+02    0.8883975134E-01    0.1830385574E-01    0.2136077392E-01    0.7800843940E-02    0.1785331946E+00
    0.7000000000E+02    0.1167720990E+00    0.2279014879E-01    0.2598435484E-01    0.1025411892E-01    0.2224306618E+00
    0.9000000000E+02    0.1415734052E+00    0.2639004030E-01    0.2937432252E-01    0.1243268105E-01    0.2577134297E+00
    0.1100000000E+03    0.1637862392E+00    0.2934586836E-01    0.3187560576E-01    0.1438412144E-01    0.2867314311E+00
    0.1300000000E+03    0.1838307650E+00    0.3181863318E-01    0.3372113345E-01    0.1614529588E-01    0.3110467604E+00
    0.1500000000E+03    0.2020376534E+00    0.3391953758E-01    0.3507358198E-01    0.1774521102E-01    0.3317389658E+00
    0.1700000000E+03    0.2186709267E+00    0.3572789667E-01    0.3604967858E-01    0.1920702784E-01    0.3495784650E+00
    0.1900000000E+03    0.2339441457E+00    0.3730182987E-01    0.3673505767E-01    0.2054948131E-01    0.3651301097E+00
    0.2100000000E+03    0.2480320914E+00    0.3868491652E-01    0.3719371348E-01    0.2178790488E-01    0.3788176749E+00
    0.2300000000E+03    0.2610793378E+00    0.3991048862E-01    0.3747421869E-01    0.2293498234E-01    0.3909654683E+00
    0.2500000000E+03    0.2732066373E+00    0.4100448535E-01    0.3761393275E-01    0.2400130793E-01    0.4018260073E+00
    0.2700000000E+03    0.2845157438E+00    0.4198740214E-01    0.3764191930E-01    0.2499580933E-01    0.4115989248E+00
    0.2900000000E+03    0.2950931013E+00    0.4287565299E-01    0.3758101151E-01    0.2592607122E-01    0.4204441866E+00
    0.3100000000E+03    0.3050126979E+00    0.4368254227E-01    0.3744930105E-01    0.2679858557E-01    0.4284915238E+00
    0.3300000000E+03    0.3143382979E+00    0.4441897095E-01    0.3726122898E-01    0.2761894749E-01    0.4358472900E+00
    0.3500000000E+03    0.3231252047E+00    0.4509395825E-01    0.3702839649E-01    0.2839200983E-01    0.4425995277E+00
    0.3700000000E+03    0.3314216662E+00    0.4571503279E-01    0.3676017510E-01    0.2912200645E-01    0.4488217686E+00
    0.3900000000E+03    0.3392700051E+00    0.4628852979E-01    0.3646417122E-01    0.2981265139E-01    0.4545759215E+00
    0.4100000000E+03    0.3467075341E+00    0.4681981966E-01    0.3614658359E-01    0.3046721916E-01    0.4599144958E+00
    0.4300000000E+03    0.3537673048E+00    0.4731348592E-01    0.3581248068E-01    0.3108861040E-01    0.4648823309E+00
    0.4500000000E+03    0.3604787221E+00    0.4777346498E-01    0.3546601807E-01    0.3167940583E-01    0.4695179561E+00
    0.4700000000E+03    0.3668680541E+00    0.4820315705E-01    0.3511060988E-01    0.3224191091E-01    0.4738546705E+00
    0.4900000000E+03    0.3729588561E+00    0.4860551497E-01    0.3474906514E-01    0.3277819311E-01    0.4779214073E+00
    0.1000000000E+03    0.1529746976E+00    0.2793695201E-01    0.3071946883E-01    0.1343427543E-01    0.2728938690E+00
    0.3000000000E+03    0.3001309175E+00    0.4328853705E-01    0.3752302913E-01    0.2636917810E-01    0.4245604673E+00
    0.5000000000E+03    0.3758990162E+00    0.4879726196E-01    0.3456673121E-01    0.3303708940E-01    0.4798615563E+00
    0.7000000000E+03    0.4232087025E+00    0.5167811858E-01    0.3097832992E-01    0.3720517399E-01    0.5092106713E+00
    0.9000000000E+03    0.4557410303E+00    0.5346275008E-01    0.2786624207E-01    0.4007443186E-01    0.5276477221E+00
    0.1100000000E+04    0.4794935916E+00    0.5468164624E-01    0.2530460737E-01    0.4217157069E-01    0.5404108547E+00
    0.1300000000E+04    0.4975787951E+00    0.5556895896E-01    0.2320421539E-01    0.4377002825E-01    0.5498243172E+00
    0.1500000000E+04    0.5117895788E+00    0.5624462602E-01    0.2146683125E-01    0.4502738198E-01    0.5570846792E+00
    0.1700000000E+04    0.5232358008E+00    0.5677665687E-01    0.2001222450E-01    0.4604121190E-01    0.5628737804E+00
    0.1900000000E+04    0.5326421029E+00    0.5720658593E-01    0.1877914220E-01    0.4687525312E-01    0.5676100281E+00
    0.2100000000E+04    0.5405017031E+00    0.5756125829E-01    0.1772150737E-01    0.4757290217E-01    0.5715651223E+00
    0.2300000000E+04    0.5471617841E+00    0.5785881938E-01    0.1680456607E-01    0.4816471763E-01    0.5749235597E+00
    0.2500000000E+04    0.5528736492E+00    0.5811198777E-01    0.1600186186E-01    0.4867282695E-01    0.5778152447E+00
    0.2700000000E+04    0.5578235506E+00    0.5832995007E-01    0.1529301970E-01    0.4911363576E-01    0.5803344260E+00
    0.2900000000E+04    0.5621523615E+00    0.5851951172E-01    0.1466215541E-01    0.4949955705E-01    0.5825512311E+00
    0.3100000000E+04    0.5659685336E+00    0.5868582419E-01    0.1409673620E-01    0.4984015044E-01    0.5845189748E+00
    0.3300000000E+04    0.5693568675E+00    0.5883286033E-01    0.1358675955E-01    0.5014289352E-01    0.5862789514E+00
    0.3500000000E+04    0.5723845914E+00    0.5896373430E-01    0.1312415579E-01    0.5041371653E-01    0.5878636676E+00
    0.3700000000E+04    0.5751056640E+00    0.5908092237E-01    0.1270234881E-01    0.5065738087E-01    0.5892990808E+00
    0.3900000000E+04    0.5775638758E+00    0.5918641876E-01    0.1231592925E-01    0.5087775212E-01    0.5906061831E+00
    0.4100000000E+04    0.5797951235E+00    0.5928184782E-01    0.1196040871E-01    0.5107800019E-01    0.5918021444E+00
    0.4300000000E+04    0.5818291023E+00    0.5936854621E-01    0.1163203289E-01    0.5126074829E-01    0.5929011514E+00
    0.4500000000E+04    0.5836905823E+00    0.5944762402E-01    0.1132763797E-01    0.5142818536E-01    0.5939150348E+00
    0.4700000000E+04    0.5854003832E+00    0.5952001096E-01    0.1104453913E-01    0.5158215193E-01    0.5948537428E+00
    0.4900000000E+04    0.5869761281E+00    0.5958649158E-01    0.1078044334E-01    0.5172420647E-01    0.5957257050E+00
    0.1000000000E+04    0.4684779828E+00    0.5412442035E-01    0.2652127268E-01    0.4119871476E-01    0.5345552031E+00
    0.3000000000E+04    0.5641187548E+00    0.5860530251E-01    0.1437194172E-01    0.4967501077E-01    0.5835634168E+00
    0.5000000000E+04    0.5877185098E+00    0.5961772938E-01    0.1065489484E-01    0.5179118962E-01    0.5961389459E+00
    0.7000000000E+04    0.5982202017E+00    0.6005160689E-01    0.8783145766E-02    0.5274378734E-01    0.6021949405E+00
    0.9000000000E+04    0.6041262161E+00    0.6028423499E-01    0.7620843284E-02    0.5328570432E-01    0.6058424621E+00
    0.1100000000E+05    0.6079019909E+00    0.6042414961E-01    0.6813074932E-02    0.5363614283E-01    0.6083152504E+00
    0.1300000000E+05    0.6105202125E+00    0.6051418892E-01    0.6211063357E-02    0.5388192665E-01    0.6101198117E+00
    0.1500000000E+05    0.6124406900E+00    0.6057459892E-01    0.5740579367E-02    0.5406426020E-01    0.6115047821E+00
    0.1700000000E+05    0.6139086122E+00    0.6061614875E-01    0.5360047906E-02    0.5420520118E-01    0.6126074147E+00
    0.1900000000E+05    0.6150665339E+00    0.6064506859E-01    0.5044180172E-02    0.5431762411E-01    0.6135100776E+00
    0.2100000000E+05    0.6160029288E+00    0.6066519688E-01    0.4776611681E-02    0.5440955034E-01    0.6142654006E+00
    0.2300000000E+05    0.6167755849E+00    0.6067901711E-01    0.4546230500E-02    0.5448623951E-01    0.6149086960E+00
    0.2500000000E+05    0.6174238320E+00    0.6068820026E-01    0.4345194847E-02    0.5455128513E-01    0.6154646051E+00
    0.2700000000E+05    0.6179753587E+00    0.6069390719E-01    0.4167793348E-02    0.5460722684E-01    0.6159508847E+00
    0.2900000000E+05    0.6184502181E+00    0.6069696614E-01    0.4009755406E-02    0.5465591108E-01    0.6163806799E+00
    0.3100000000E+05    0.6188632876E+00    0.6069798148E-01    0.3867815857E-02    0.5469871295E-01    0.6167639461E+00
    0.3300000000E+05    0.6192258353E+00    0.6069740272E-01    0.3739430147E-02    0.5473667800E-01    0.6171083725E+00
    0.3500000000E+05    0.6195465514E+00    0.6069556979E-01    0.3622582206E-02    0.5477061564E-01    0.6174200000E+00
    0.3700000000E+05    0.6198322445E+00    0.6069274347E-01    0.3515651379E-02    0.5480116248E-01    0.6177036459E+00
    0.3900000000E+05    0.6200883242E+00    0.6068912631E-01    0.3417318112E-02    0.5482882623E-01    0.6179632028E+00
    0.4100000000E+05    0.6203191426E+00    0.6068487741E-01    0.3326495727E-02    0.5485401691E-01    0.6182018534E+00
    0.4300000000E+05    0.6205282403E+00    0.6068012296E-01    0.3242280173E-02    0.5487706938E-01    0.6184222274E+00
    0.4500000000E+05    0.6207185271E+00    0.6067496389E-01    0.3163912417E-02    0.5489825985E-01    0.6186265184E+00
    0.4700000000E+05    0.6208924163E+00    0.6066948154E-01    0.3090749874E-02    0.5491781827E-01    0.6188165719E+00
    0.4900000000E+05    0.6210519259E+00    0.6066374193E-01    0.3022244430E-02    0.5493593768E-01    0.6189939530E+00
    0.1000000000E+05    0.6062016827E+00    0.6036231594E-01    0.7184501778E-02    0.5347784064E-01    0.6071851360E+00
    0.3000000000E+05    0.6186637018E+00    0.6069769816E-01    0.3936946653E-02    0.5467797551E-01    0.6165776038E+00
    0.5000000000E+05    0.6211268305E+00    0.6066079290E-01    0.2989588375E-02    0.5494450979E-01    0.6190783168E+00
    0.7000000000E+05    0.6221700283E+00    0.6059722509E-01    0.2495174446E-02    0.5506940622E-01    0.6203415740E+00
    0.9000000000E+05    0.6227433083E+00    0.6053449254E-01    0.2180302960E-02    0.5514468761E-01    0.6211348101E+00
    0.1100000000E+06    0.6231043357E+00    0.6047675754E-01    0.1957739116E-02    0.5519634208E-01    0.6216923821E+00
    0.1300000000E+06    0.6233517348E+00    0.6042427294E-01    0.1789908917E-02    0.5523469782E-01    0.6221124400E+00
    0.1500000000E+06    0.6235313307E+00    0.6037650665E-01    0.1657633678E-02    0.5526472868E-01    0.6224441121E+00
    0.1700000000E+06    0.6236672858E+00    0.6033282440E-01    0.1549974444E-02    0.5528914923E-01    0.6227150229E+00
    0.1900000000E+06    0.6237735354E+00    0.6029265095E-01    0.1460180176E-02    0.5530957808E-01    0.6229420402E+00
    0.2100000000E+06    0.6238586747E+00    0.6025549945E-01    0.1383830899E-02    0.5532704638E-01    0.6231361185E+00
    0.2300000000E+06    0.6239282890E+00    0.6022096603E-01    0.1317896589E-02    0.5534224560E-01    0.6233047211E+00
    0.2500000000E+06    0.6239861632E+00    0.6018871672E-01    0.1260222032E-02    0.5535565887E-01    0.6234531313E+00
    0.2700000000E+06    0.6240349516E+00    0.6015847435E-01    0.1209227179E-02    0.5536763525E-01    0.6235852087E+00
    0.2900000000E+06    0.6240765698E+00    0.6013000745E-01    0.1163723992E-02    0.5537843411E-01    0.6237038476E+00
    0.3100000000E+06    0.6241124342E+00    0.6010312130E-01    0.1122799831E-02    0.5538825277E-01    0.6238112670E+00
    0.3300000000E+06    0.6241436143E+00    0.6007765087E-01    0.1085740578E-02    0.5539724441E-01    0.6239092009E+00
    0.3500000000E+06    0.6241709324E+00    0.6005345527E-01    0.1051978435E-02    0.5540553007E-01    0.6239990269E+00
    0.3700000000E+06    0.6241950308E+00    0.6003041335E-01    0.1021055570E-02    0.5541320686E-01    0.6240818553E+00
    0.3900000000E+06    0.6242164186E+00    0.6000842027E-01    0.9925982036E-03    0.5542035374E-01    0.6241585927E+00
    0.4100000000E+06    0.6242355040E+00    0.5998738476E-01    0.9662977925E-03    0.5542703570E-01    0.6242299872E+00
    0.4300000000E+06    0.6242526182E+00    0.5996722686E-01    0.9418971061E-03    0.5543330681E-01    0.6242966634E+00
    0.4500000000E+06    0.6242680326E+00    0.5994787618E-01    0.9191797710E-03    0.5543921249E-01    0.6243591466E+00
    0.4700000000E+06    0.6242819718E+00    0.5992927045E-01    0.8979623020E-03    0.5544479122E-01    0.6244178828E+00
    0.4900000000E+06    0.6242946231E+00    0.5991135429E-01    0.8780879537E-03    0.5545007587E-01    0.6244732535E+00
    0.1000000000E+06    0.6229423310E+00    0.6050495071E-01    0.2060457643E-02    0.5517263603E-01    0.6214352358E+00
    0.3000000000E+06    0.6240951476E+00    0.6011637772E-01    0.1142738112E-02    0.5538345552E-01    0.6237588417E+00
    0.5000000000E+06    0.6243005159E+00    0.5990263914E-01    0.8686115749E-03    0.5545261691E-01    0.6244997813E+00
    0.7000000000E+06    0.6243783700E+00    0.5975491809E-01    0.7249805086E-03    0.5549317205E-01    0.6249137932E+00
    0.9000000000E+06    0.6244160271E+00    0.5964185071E-01    0.6333980310E-03    0.5552168227E-01    0.6251929977E+00
    0.1100000000E+07    0.6244364335E+00    0.5955018819E-01    0.5686378664E-03    0.5554360936E-01    0.6254003994E+00
    0.1300000000E+07    0.6244480958E+00    0.5947307996E-01    0.5197988484E-03    0.5556140234E-01    0.6255638324E+00
    0.1500000000E+07    0.6244548375E+00    0.5940651868E-01    0.4813075237E-03    0.5557636352E-01    0.6256978449E+00
    0.1700000000E+07    0.6244586060E+00    0.5934795568E-01    0.4499820409E-03    0.5558926591E-01    0.6258109219E+00
    0.1900000000E+07    0.6244604845E+00    0.5929566856E-01    0.4238576606E-03    0.5560060511E-01    0.6259084114E+00
    0.2100000000E+07    0.6244611161E+00    0.5924843836E-01    0.4016476508E-03    0.5561071752E-01    0.6259938852E+00
    0.2300000000E+07    0.6244609023E+00    0.5920537050E-01    0.3824697631E-03    0.5561984182E-01    0.6260698388E+00
    0.2500000000E+07    0.6244601041E+00    0.5916578892E-01    0.3656964107E-03    0.5562815336E-01    0.6261380794E+00
    0.2700000000E+07    0.6244588967E+00    0.5912917019E-01    0.3508674740E-03    0.5563578475E-01    0.6261999550E+00
    0.2900000000E+07    0.6244574004E+00    0.5909510072E-01    0.3376369909E-03    0.5564283863E-01    0.6262564959E+00
    0.3100000000E+07    0.6244557003E+00    0.5906324801E-01    0.3257392026E-03    0.5564939610E-01    0.6263085062E+00
    0.3300000000E+07    0.6244538572E+00    0.5903334072E-01    0.3149661679E-03    0.5565552231E-01    0.6263566247E+00
    0.3500000000E+07    0.6244519151E+00    0.5900515451E-01    0.3051525614E-03    0.5566127041E-01    0.6264013668E+00
    0.3700000000E+07    0.6244499068E+00    0.5897850181E-01    0.2961650836E-03    0.5566668429E-01    0.6264431539E+00
    0.3900000000E+07    0.6244478563E+00    0.5895322415E-01    0.2878949151E-03    0.5567180064E-01    0.6264823349E+00
    0.4100000000E+07    0.6244457818E+00    0.5892918644E-01    0.2802522345E-03    0.5567665043E-01    0.6265192014E+00
    0.4300000000E+07    0.6244436969E+00    0.5890627260E-01    0.2731621639E-03    0.5568126002E-01    0.6265539998E+00
    0.4500000000E+07    0.6244416119E+00    0.5888438213E-01    0.2665617227E-03    0.5568565208E-01    0.6265869399E+00
    0.4700000000E+07    0.6244395347E+00    0.5886342747E-01    0.2603975072E-03    0.5568984619E-01    0.6266182016E+00
    0.4900000000E+07    0.6244374711E+00    0.5884333181E-01    0.2546238994E-03    0.5569385941E-01    0.6266479405E+00
    0.1000000000E+07    0.6244276888E+00    0.5959386368E-01    0.5985278113E-03    0.5553327698E-01    0.6253034846E+00
    0.3000000000E+07    0.6244565716E+00    0.5907891548E-01    0.3315356558E-03    0.5564617502E-01    0.6262830241E+00
    0.5000000000E+07    0.6244364458E+00    0.5883358465E-01    0.2518710961E-03    0.5569580293E-01    0.6266622819E+00
    0.7000000000E+07    0.6244172672E+00    0.5867083030E-01    0.2101588960E-03    0.5572799830E-01    0.6268943798E+00
    0.9000000000E+07    0.6244008061E+00    0.5854884444E-01    0.1835740006E-03    0.5575187124E-01    0.6270603184E+00
    0.1100000000E+08    0.6243866458E+00    0.5845124423E-01    0.1647810668E-03    0.5577085245E-01    0.6271888939E+00
    0.1300000000E+08    0.6243742930E+00    0.5836989006E-01    0.1506116799E-03    0.5578660995E-01    0.6272935618E+00
    0.1500000000E+08    0.6243633646E+00    0.5830014107E-01    0.1394464873E-03    0.5580008165E-01    0.6273816638E+00
    0.1700000000E+08    0.6243535773E+00    0.5823909877E-01    0.1303612686E-03    0.5581184769E-01    0.6274576331E+00
    0.1900000000E+08    0.6243447209E+00    0.5818483095E-01    0.1227854636E-03    0.5582229199E-01    0.6275243466E+00
    0.2100000000E+08    0.6243366365E+00    0.5813598482E-01    0.1163454777E-03    0.5583168186E-01    0.6275837737E+00
    0.2300000000E+08    0.6243292019E+00    0.5809157619E-01    0.1107851975E-03    0.5584021092E-01    0.6276373209E+00
    0.2500000000E+08    0.6243223214E+00    0.5805086667E-01    0.1059224630E-03    0.5584802391E-01    0.6276860259E+00
    0.2700000000E+08    0.6243159186E+00    0.5801328805E-01    0.1016237391E-03    0.5585523187E-01    0.6277306765E+00
