  Pressure (Pa) 22mC5-400 (mol/kg) 3mC6-400 (mol/kg) 33mC5-400 (mol/kg) 23mC5-400 (mol/kg) C7-400 (mol/kg)
    0.1000000000E+01    0.2650057710E-02    0.1586458752E-02    0.6481802088E-04    0.8375784570E-03    0.3432424530E-02
    0.3000000000E+01    0.7868472751E-02    0.4689662965E-02    0.1908169351E-03    0.2486936290E-02    0.1014714591E-01
    0.5000000000E+01    0.1298074311E-01    0.7703269890E-02    0.3121453589E-03    0.4102775840E-02    0.1666890798E-01
    0.7000000000E+01    0.1799009679E-01    0.1063110366E-01    0.4290078385E-03    0.5686116144E-02    0.2300593334E-01
    0.9000000000E+01    0.2289963200E-01    0.1347677384E-01    0.5415978856E-03    0.7237935265E-02    0.2916598361E-01
    0.1100000000E+02    0.2771232356E-01    0.1624369027E-01    0.6500987007E-03    0.8759172327E-02    0.3515639132E-01
    0.1300000000E+02    0.3243102904E-01    0.1893507671E-01    0.7546838400E-03    0.1025072943E-01    0.4098408913E-01
    0.1500000000E+02    0.3705849442E-01    0.2155398333E-01    0.8555178316E-03    0.1171347348E-01    0.4665563676E-01
    0.1700000000E+02    0.4159735950E-01    0.2410329824E-01    0.9527567443E-03    0.1314823783E-01    0.5217724570E-01
    0.1900000000E+02    0.4605016300E-01    0.2658575814E-01    0.1046548714E-02    0.1455582397E-01    0.5755480207E-01
    0.2100000000E+02    0.5041934734E-01    0.2900395809E-01    0.1137034432E-02    0.1593700295E-01    0.6279388761E-01
    0.2300000000E+02    0.5470726316E-01    0.3136036056E-01    0.1224347596E-02    0.1729251688E-01    0.6789979916E-01
    0.2500000000E+02    0.5891617357E-01    0.3365730379E-01    0.1308615331E-02    0.1862308023E-01    0.7287756655E-01
    0.2700000000E+02    0.6304825822E-01    0.3589700952E-01    0.1389958578E-02    0.1992938112E-01    0.7773196925E-01
    0.2900000000E+02    0.6710561710E-01    0.3808159019E-01    0.1468492456E-02    0.2121208255E-01    0.8246755180E-01
    0.3100000000E+02    0.7109027414E-01    0.4021305551E-01    0.1544326602E-02    0.2247182347E-01    0.8708863798E-01
    0.3300000000E+02    0.7500418062E-01    0.4229331872E-01    0.1617565481E-02    0.2370921994E-01    0.9159934416E-01
    0.3500000000E+02    0.7884921840E-01    0.4432420223E-01    0.1688308683E-02    0.2492486608E-01    0.9600359152E-01
    0.3700000000E+02    0.8262720301E-01    0.4630744298E-01    0.1756651191E-02    0.2611933508E-01    0.1003051175E+00
    0.3900000000E+02    0.8633988650E-01    0.4824469740E-01    0.1822683644E-02    0.2729318009E-01    0.1045074865E+00
    0.4100000000E+02    0.8998896023E-01    0.5013754601E-01    0.1886492569E-02    0.2844693511E-01    0.1086140998E+00
    0.4300000000E+02    0.9357605745E-01    0.5198749771E-01    0.1948160604E-02    0.2958111579E-01    0.1126282045E+00
    0.4500000000E+02    0.9710275580E-01    0.5379599382E-01    0.2007766712E-02    0.3069622022E-01    0.1165529025E+00
    0.4700000000E+02    0.1005705796E+00    0.5556441179E-01    0.2065386372E-02    0.3179272968E-01    0.1203911586E+00
    0.4900000000E+02    0.1039810022E+00    0.5729406871E-01    0.2121091765E-02    0.3287110933E-01    0.1241458075E+00
    0.1000000000E+02    0.2531790196E-01    0.1486987058E-01    0.5963483813E-03    0.8002319326E-02    0.3218195045E-01
    0.3000000000E+02    0.6910690973E-01    0.3915384050E-01    0.1506740349E-02    0.2184478405E-01    0.8479214495E-01
    0.5000000000E+02    0.1056651351E+00    0.5814475768E-01    0.2148248307E-02    0.3340364160E-01    0.1259926314E+00
    0.7000000000E+02    0.1366569722E+00    0.7340265417E-01    0.2606166883E-02    0.4320437310E-01    0.1591404929E+00
    0.9000000000E+02    0.1632711439E+00    0.8592933615E-01    0.2935272194E-02    0.5162230434E-01    0.1863925909E+00
    0.1100000000E+03    0.1863793947E+00    0.9639756561E-01    0.3172027598E-02    0.5893269569E-01    0.2091980594E+00
    0.1300000000E+03    0.2066356443E+00    0.1052759031E+00    0.3341416267E-02    0.6534204029E-01    0.2285666627E+00
    0.1500000000E+03    0.2245401155E+00    0.1129007203E+00    0.3460966083E-02    0.7100830696E-01    0.2452236383E+00
    0.1700000000E+03    0.2404820622E+00    0.1195197466E+00    0.3543220529E-02    0.7605442832E-01    0.2597033575E+00
    0.1900000000E+03    0.2547689861E+00    0.1253194646E+00    0.3597308262E-02    0.8057752441E-01    0.2724082674E+00
    0.2100000000E+03    0.2676470783E+00    0.1304429370E+00    0.3629969185E-02    0.8465535587E-01    0.2836472563E+00
    0.2300000000E+03    0.2793158125E+00    0.1350017498E+00    0.3646241879E-02    0.8835093129E-01    0.2936613632E+00
    0.2500000000E+03    0.2899385540E+00    0.1390842183E+00    0.3649934034E-02    0.9171585679E-01    0.3026414485E+00
    0.2700000000E+03    0.2996503997E+00    0.1427611530E+00    0.3643950411E-02    0.9479281117E-01    0.3107406147E+00
    0.2900000000E+03    0.3085640559E+00    0.1460899925E+00    0.3630525248E-02    0.9761740207E-01    0.3180831096E+00
    0.3100000000E+03    0.3167743064E+00    0.1491178179E+00    0.3611389379E-02    0.1002195766E+00    0.3247708232E+00
    0.3300000000E+03    0.3243614489E+00    0.1518835865E+00    0.3587891973E-02    0.1026247066E+00    0.3308881046E+00
    0.3500000000E+03    0.3313939690E+00    0.1544198122E+00    0.3561090277E-02    0.1048544327E+00    0.3365053835E+00
    0.3700000000E+03    0.3379306406E+00    0.1567538446E+00    0.3531816470E-02    0.1069273283E+00    0.3416819308E+00
    0.3900000000E+03    0.3440221939E+00    0.1589088551E+00    0.3500727957E-02    0.1088594255E+00    0.3464679860E+00
    0.4100000000E+03    0.3497126494E+00    0.1609046058E+00    0.3468345544E-02    0.1106646370E+00    0.3509064161E+00
    0.4300000000E+03    0.3550403944E+00    0.1627580540E+00    0.3435082640E-02    0.1123550958E+00    0.3550340213E+00
    0.4500000000E+03    0.3600390586E+00    0.1644838333E+00    0.3401267776E-02    0.1139414320E+00    0.3588825731E+00
    0.4700000000E+03    0.3647382306E+00    0.1660946377E+00    0.3367162076E-02    0.1154329986E+00    0.3624796452E+00
    0.4900000000E+03    0.3691640487E+00    0.1676015332E+00    0.3332972910E-02    0.1168380587E+00    0.3658492858E+00
    0.1000000000E+03    0.1752184154E+00    0.9138771100E-01    0.3063420055E-02    0.5540170312E-01    0.1982799486E+00
    0.3000000000E+03    0.3127517832E+00    0.1476389287E+00    0.3621579065E-02    0.9894460931E-01    0.3215031784E+00
    0.5000000000E+03    0.3712817971E+00    0.1683190913E+00    0.3315899819E-02    0.1175104716E+00    0.3674555070E+00
    0.7000000000E+03    0.4037267650E+00    0.1790326990E+00    0.2995039034E-02    0.1278213447E+00    0.3915951686E+00
    0.9000000000E+03    0.4243425334E+00    0.1855680319E+00    0.2730055294E-02    0.1343851161E+00    0.4065249139E+00
    0.1100000000E+04    0.4385956913E+00    0.1899597609E+00    0.2515956996E-02    0.1389315223E+00    0.4166964829E+00
    0.1300000000E+04    0.4490346071E+00    0.1931069520E+00    0.2341048789E-02    0.1422674324E+00    0.4240863389E+00
    0.1500000000E+04    0.4570075628E+00    0.1954681706E+00    0.2195729852E-02    0.1448200114E+00    0.4297072959E+00
    0.1700000000E+04    0.4632947011E+00    0.1973017309E+00    0.2072981586E-02    0.1468365802E+00    0.4341325324E+00
    0.1900000000E+04    0.4683786871E+00    0.1987641892E+00    0.1967751868E-02    0.1484702490E+00    0.4377110391E+00
    0.2100000000E+04    0.4725741123E+00    0.1999559223E+00    0.1876368766E-02    0.1498208739E+00    0.4406676027E+00
    0.2300000000E+04    0.4760947662E+00    0.2009442288E+00    0.1796118362E-02    0.1509563569E+00    0.4431536251E+00
    0.2500000000E+04    0.4790909995E+00    0.2017759019E+00    0.1724958007E-02    0.1519244808E+00    0.4452748589E+00
    0.2700000000E+04    0.4816716189E+00    0.2024844751E+00    0.1661322979E-02    0.1527598467E+00    0.4471074364E+00
    0.2900000000E+04    0.4839173027E+00    0.2030946007E+00    0.1603994883E-02    0.1534881267E+00    0.4487075819E+00
    0.3100000000E+04    0.4858891341E+00    0.2036248014E+00    0.1552010713E-02    0.1541287693E+00    0.4501177332E+00
    0.3300000000E+04    0.4876342070E+00    0.2040892600E+00    0.1504598931E-02    0.1546967786E+00    0.4513705326E+00
    0.3500000000E+04    0.4891894118E+00    0.2044990170E+00    0.1461133764E-02    0.1552039148E+00    0.4524915060E+00
    0.3700000000E+04    0.4905840556E+00    0.2048627926E+00    0.1421101990E-02    0.1556595265E+00    0.4535009069E+00
    0.3900000000E+04    0.4918417146E+00    0.2051875642E+00    0.1384078426E-02    0.1560711390E+00    0.4544150147E+00
    0.4100000000E+04    0.4929815688E+00    0.2054789795E+00    0.1349707576E-02    0.1564448778E+00    0.4552470663E+00
    0.4300000000E+04    0.4940193804E+00    0.2057416577E+00    0.1317689710E-02    0.1567857803E+00    0.4560079378E+00
    0.4500000000E+04    0.4949682226E+00    0.2059794127E+00    0.1287770173E-02    0.1570980269E+00    0.4567066496E+00
    0.4700000000E+04    0.4958390291E+00    0.2061954204E+00    0.1259731079E-02    0.1573851161E+00    0.4573507476E+00
    0.4900000000E+04    0.4966410142E+00    0.2063923461E+00    0.1233384790E-02    0.1576499980E+00    0.4579465934E+00
    0.1000000000E+04    0.4320653085E+00    0.1879607774E+00    0.2617399122E-02    0.1368474521E+00    0.4120494357E+00
    0.3000000000E+04    0.4849342300E+00    0.2033687198E+00    0.1577386908E-02    0.1538183770E+00    0.4494341735E+00
    0.5000000000E+04    0.4970186896E+00    0.2064843711E+00    0.1220794788E-02    0.1577749092E+00    0.4582281424E+00
    0.7000000000E+04    0.5023538326E+00    0.2077221258E+00    0.1027846685E-02    0.1595545881E+00    0.4622907731E+00
    0.9000000000E+04    0.5053521677E+00    0.2083427300E+00    0.9028180399E-03    0.1605732128E+00    0.4646793679E+00
    0.1100000000E+05    0.5072695152E+00    0.2086916232E+00    0.8135077089E-03    0.1612364436E+00    0.4662747882E+00
    0.1300000000E+05    0.5085991100E+00    0.2089000443E+00    0.7456747915E-03    0.1617046377E+00    0.4674284326E+00
    0.1500000000E+05    0.5095739974E+00    0.2090280350E+00    0.6919293711E-03    0.1620540412E+00    0.4683090694E+00
    0.1700000000E+05    0.5103185478E+00    0.2091066161E+00    0.6480075406E-03    0.1623255991E+00    0.4690082608E+00
    0.1900000000E+05    0.5109051594E+00    0.2091532571E+00    0.6112550156E-03    0.1625432939E+00    0.4695801843E+00
    0.2100000000E+05    0.5113788220E+00    0.2091784503E+00    0.5799222573E-03    0.1627221207E+00    0.4700590541E+00
    0.2300000000E+05    0.5117689565E+00    0.2091888188E+00    0.5528033585E-03    0.1628719453E+00    0.4704676021E+00
    0.2500000000E+05    0.5120956074E+00    0.2091887129E+00    0.5290367040E-03    0.1629995304E+00    0.4708215592E+00
    0.2700000000E+05    0.5123728990E+00    0.2091810829E+00    0.5079882123E-03    0.1631096700E+00    0.4711321816E+00
    0.2900000000E+05    0.5126110682E+00    0.2091679838E+00    0.4891795650E-03    0.1632058599E+00    0.4714077515E+00
    0.3100000000E+05    0.5128177143E+00    0.2091508788E+00    0.4722422809E-03    0.1632907105E+00    0.4716545091E+00
    0.3300000000E+05    0.5129985958E+00    0.2091308293E+00    0.4568873162E-03    0.1633662119E+00    0.4718772527E+00
    0.3500000000E+05    0.5131581551E+00    0.2091086176E+00    0.4428843466E-03    0.1634339085E+00    0.4720797375E+00
    0.3700000000E+05    0.5132998736E+00    0.2090848276E+00    0.4300472885E-03    0.1634950179E+00    0.4722649486E+00
    0.3900000000E+05    0.5134265175E+00    0.2090599005E+00    0.4182239540E-03    0.1635505132E+00    0.4724352912E+00
    0.4100000000E+05    0.5135403127E+00    0.2090341725E+00    0.4072885154E-03    0.1636011819E+00    0.4725927274E+00
    0.4300000000E+05    0.5136430697E+00    0.2090079018E+00    0.3971359184E-03    0.1636476687E+00    0.4727388750E+00
    0.4500000000E+05    0.5137362763E+00    0.2089812883E+00    0.3876776775E-03    0.1636905062E+00    0.4728750816E+00
    0.4700000000E+05    0.5138211661E+00    0.2089544870E+00    0.3788386652E-03    0.1637301387E+00    0.4730024792E+00
    0.4900000000E+05    0.5138987706E+00    0.2089276188E+00    0.3705546302E-03    0.1637669399E+00    0.4731220269E+00
    0.1000000000E+05    0.5064060429E+00    0.2085404285E+00    0.8548197471E-03    0.1609362949E+00    0.4655479041E+00
    0.3000000000E+05    0.5127179358E+00    0.2091598580E+00    0.4804966497E-03    0.1632495660E+00    0.4715344036E+00
    0.5000000000E+05    0.5139351178E+00    0.2089141900E+00    0.3666031381E-03    0.1637843795E+00    0.4731791176E+00
    0.7000000000E+05    0.5144327467E+00    0.2086563436E+00    0.3065913580E-03    0.1640409273E+00    0.4740564516E+00
    0.9000000000E+05    0.5146954591E+00    0.2084289647E+00    0.2682114561E-03    0.1641982514E+00    0.4746367532E+00
    0.1100000000E+06    0.5148537934E+00    0.2082308438E+00    0.2410192647E-03    0.1643076878E+00    0.4750642559E+00
    0.1300000000E+06    0.5149572500E+00    0.2080567189E+00    0.2204835376E-03    0.1643898718E+00    0.4754001512E+00
    0.1500000000E+06    0.5150285854E+00    0.2079019229E+00    0.2042814475E-03    0.1644548349E+00    0.4756755702E+00
    0.1700000000E+06    0.5150796615E+00    0.2077628204E+00    0.1910843513E-03    0.1645080960E+00    0.4759083285E+00
    0.1900000000E+06    0.5151172369E+00    0.2076366348E+00    0.1800706159E-03    0.1645529700E+00    0.4761095019E+00
    0.2100000000E+06    0.5151454277E+00    0.2075212319E+00    0.1707015028E-03    0.1645915820E+00    0.4762864132E+00
    0.2300000000E+06    0.5151668738E+00    0.2074149492E+00    0.1626072627E-03    0.1646253657E+00    0.4764441403E+00
    0.2500000000E+06    0.5151833400E+00    0.2073164722E+00    0.1555246560E-03    0.1646553282E+00    0.4765863399E+00
    0.2700000000E+06    0.5151960465E+00    0.2072247464E+00    0.1492605492E-03    0.1646822008E+00    0.4767157280E+00
    0.2900000000E+06    0.5152058616E+00    0.2071389146E+00    0.1436696352E-03    0.1647065295E+00    0.4768343744E+00
    0.3100000000E+06    0.5152134178E+00    0.2070582712E+00    0.1386402319E-03    0.1647287313E+00    0.4769438907E+00
    0.3300000000E+06    0.5152191856E+00    0.2069822291E+00    0.1340849110E-03    0.1647491315E+00    0.4770455556E+00
    0.3500000000E+06    0.5152235210E+00    0.2069102945E+00    0.1299341316E-03    0.1647679880E+00    0.4771403993E+00
    0.3700000000E+06    0.5152266979E+00    0.2068420488E+00    0.1261318011E-03    0.1647855084E+00    0.4772292642E+00
    0.3900000000E+06    0.5152289296E+00    0.2067771337E+00    0.1226321114E-03    0.1648018621E+00    0.4773128471E+00
    0.4100000000E+06    0.5152303846E+00    0.2067152406E+00    0.1193972390E-03    0.1648171892E+00    0.4773917310E+00
    0.4300000000E+06    0.5152311969E+00    0.2066561016E+00    0.1163956432E-03    0.1648316064E+00    0.4774664081E+00
    0.4500000000E+06    0.5152314748E+00    0.2065994827E+00    0.1136007873E-03    0.1648452120E+00    0.4775372980E+00
    0.4700000000E+06    0.5152313060E+00    0.2065451787E+00    0.1109901635E-03    0.1648580897E+00    0.4776047611E+00
    0.4900000000E+06    0.5152307624E+00    0.2064930081E+00    0.1085445409E-03    0.1648703109E+00    0.4776691088E+00
    0.1000000000E+06    0.5147836363E+00    0.2083265741E+00    0.2535751760E-03    0.1642572972E+00    0.4748647504E+00
    0.3000000000E+06    0.5152098895E+00    0.2070979835E+00    0.1410906914E-03    0.1647178741E+00    0.4768901872E+00
    0.5000000000E+06    0.5152303690E+00    0.2064676718E+00    0.1073783438E-03    0.1648761950E+00    0.4777002006E+00
    0.7000000000E+06    0.5152128533E+00    0.2060419590E+00    0.8969535958E-04    0.1649707607E+00    0.4782091469E+00
    0.9000000000E+06    0.5151886926E+00    0.2057201986E+00    0.7841270408E-04    0.1650379284E+00    0.4785800811E+00
    0.1100000000E+07    0.5151641756E+00    0.2054614885E+00    0.7043047337E-04    0.1650899305E+00    0.4788717584E+00
    0.1300000000E+07    0.5151408856E+00    0.2052451344E+00    0.6440822021E-04    0.1651323246E+00    0.4791120055E+00
    0.1500000000E+07    0.5151191785E+00    0.2050592060E+00    0.5966029723E-04    0.1651680943E+00    0.4793161911E+00
    0.1700000000E+07    0.5150990418E+00    0.2048961960E+00    0.5579513143E-04    0.1651990238E+00    0.4794936963E+00
    0.1900000000E+07    0.5150803525E+00    0.2047510726E+00    0.5257086085E-04    0.1652262633E+00    0.4796506664E+00
    0.2100000000E+07    0.5150629633E+00    0.2046202981E+00    0.4982904637E-04    0.1652505976E+00    0.4797913451E+00
    0.2300000000E+07    0.5150467315E+00    0.2045012905E+00    0.4746102954E-04    0.1652725855E+00    0.4799187852E+00
    0.2500000000E+07    0.5150315287E+00    0.2043921073E+00    0.4538950045E-04    0.1652926389E+00    0.4800352560E+00
    0.2700000000E+07    0.5150172423E+00    0.2042912506E+00    0.4355776834E-04    0.1653110703E+00    0.4801424902E+00
    0.2900000000E+07    0.5150037747E+00    0.2041975410E+00    0.4192320034E-04    0.1653281222E+00    0.4802418403E+00
    0.3100000000E+07    0.5149910417E+00    0.2041100328E+00    0.4045304189E-04    0.1653439864E+00    0.4803343825E+00
    0.3300000000E+07    0.5149789705E+00    0.2040279568E+00    0.3912166059E-04    0.1653588175E+00    0.4804209871E+00
    0.3500000000E+07    0.5149674979E+00    0.2039506784E+00    0.3790867438E-04    0.1653727418E+00    0.4805023674E+00
    0.3700000000E+07    0.5149565690E+00    0.2038776679E+00    0.3679764732E-04    0.1653858636E+00    0.4805791160E+00
    0.3900000000E+07    0.5149461358E+00    0.2038084790E+00    0.3577516027E-04    0.1653982704E+00    0.4806517300E+00
    0.4100000000E+07    0.5149361562E+00    0.2037427317E+00    0.3483013550E-04    0.1654100360E+00    0.4807206306E+00
    0.4300000000E+07    0.5149265931E+00    0.2036801003E+00    0.3395333726E-04    0.1654212234E+00    0.4807861781E+00
    0.4500000000E+07    0.5149174138E+00    0.2036203029E+00    0.3313699640E-04    0.1654318869E+00    0.4808486826E+00
    0.4700000000E+07    0.5149085889E+00    0.2035630944E+00    0.3237452453E-04    0.1654420732E+00    0.4809084131E+00
    0.4900000000E+07    0.5149000926E+00    0.2035082601E+00    0.3166029317E-04    0.1654518232E+00    0.4809656048E+00
    0.1000000000E+07    0.5151763326E+00    0.2055845403E+00    0.7411509561E-04    0.1650653914E+00    0.4787336746E+00
    0.3000000000E+07    0.5149973212E+00    0.2041530634E+00    0.4116931357E-04    0.1653361923E+00    0.4802889039E+00
    0.5000000000E+07    0.5148959603E+00    0.2034816733E+00    0.3131972810E-04    0.1654565460E+00    0.4809933140E+00
    0.7000000000E+07    0.5148260044E+00    0.2030386123E+00    0.2615703292E-04    0.1655348693E+00    0.4814533053E+00
    0.9000000000E+07    0.5147726044E+00    0.2027074632E+00    0.2286415281E-04    0.1655930363E+00    0.4817952459E+00
    0.1100000000E+08    0.5147294193E+00    0.2024429775E+00    0.2053503223E-04    0.1656393278E+00    0.4820674230E+00
    0.1300000000E+08    0.5146931655E+00    0.2022227821E+00    0.1877808036E-04    0.1656777814E+00    0.4822934866E+00
    0.1500000000E+08    0.5146619240E+00    0.2020341627E+00    0.1739306307E-04    0.1657106718E+00    0.4824867934E+00
    0.1700000000E+08    0.5146344760E+00    0.2018691975E+00    0.1626565407E-04    0.1657394077E+00    0.4826556279E+00
    0.1900000000E+08    0.5146099991E+00    0.2017226157E+00    0.1532525042E-04    0.1657649225E+00    0.4828054839E+00
    0.2100000000E+08    0.5145879126E+00    0.2015907322E+00    0.1452560808E-04    0.1657878664E+00    0.4829401917E+00
    0.2300000000E+08    0.5145677907E+00    0.2014708696E+00    0.1383501628E-04    0.1658087107E+00    0.4830625286E+00
    0.2500000000E+08    0.5145493121E+00    0.2013610209E+00    0.1323091512E-04    0.1658278079E+00    0.4831745721E+00
    0.2700000000E+08    0.5145322285E+00    0.2012596434E+00    0.1269676293E-04    0.1658454285E+00    0.4832779173E+00
