  Pressure (Pa) 22mC5-400 (mol/kg) 3mC6-400 (mol/kg) 33mC5-400 (mol/kg) 23mC5-400 (mol/kg) C7-400 (mol/kg)
    0.1000000000E+01    0.2651726752E-02    0.3698664216E-02    0.2592168069E-03    0.2793684763E-03    0.1714794312E-02
    0.3000000000E+01    0.7883227207E-02    0.1091576432E-01    0.7627990688E-03    0.8305315962E-03    0.5061213728E-02
    0.5000000000E+01    0.1302100687E-01    0.1790221422E-01    0.1247354582E-02    0.1371829531E-02    0.8301188982E-02
    0.7000000000E+01    0.1806763979E-01    0.2466895680E-01    0.1713764572E-02    0.1903533154E-02    0.1143976217E-01
    0.9000000000E+01    0.2302560590E-01    0.3122625255E-01    0.2162858190E-02    0.2425903437E-02    0.1448166121E-01
    0.1100000000E+02    0.2789729527E-01    0.3758373196E-01    0.2595416339E-02    0.2939191897E-02    0.1743132396E-01
    0.1300000000E+02    0.3268501214E-01    0.4375044314E-01    0.3012175159E-02    0.3443641018E-02    0.2029292014E-01
    0.1500000000E+02    0.3739097873E-01    0.4973489521E-01    0.3413829206E-02    0.3939484655E-02    0.2307037129E-01
    0.1700000000E+02    0.4201733882E-01    0.5554509786E-01    0.3801034369E-02    0.4426948410E-02    0.2576736896E-01
    0.1900000000E+02    0.4656616122E-01    0.6118859749E-01    0.4174410532E-02    0.4906249997E-02    0.2838739138E-01
    0.2100000000E+02    0.5103944300E-01    0.6667251020E-01    0.4534544024E-02    0.5377599580E-02    0.3093371863E-01
    0.2300000000E+02    0.5543911256E-01    0.7200355210E-01    0.4881989866E-02    0.5841200098E-02    0.3340944657E-01
    0.2500000000E+02    0.5976703253E-01    0.7718806700E-01    0.5217273835E-02    0.6297247571E-02    0.3581749960E-01
    0.2700000000E+02    0.6402500262E-01    0.8223205187E-01    0.5540894369E-02    0.6745931395E-02    0.3816064238E-01
    0.2900000000E+02    0.6821476218E-01    0.8714118024E-01    0.5853324322E-02    0.7187434619E-02    0.4044149062E-01
    0.3100000000E+02    0.7233799274E-01    0.9192082375E-01    0.6155012581E-02    0.7621934205E-02    0.4266252095E-01
    0.3300000000E+02    0.7639632039E-01    0.9657607193E-01    0.6446385566E-02    0.8049601282E-02    0.4482608007E-01
    0.3500000000E+02    0.8039131805E-01    0.1011117505E+00    0.6727848612E-02    0.8470601385E-02    0.4693439317E-01
    0.3700000000E+02    0.8432450761E-01    0.1055324384E+00    0.6999787252E-02    0.8885094679E-02    0.4898957170E-01
    0.3900000000E+02    0.8819736198E-01    0.1098424830E+00    0.7262568407E-02    0.9293236177E-02    0.5099362055E-01
    0.4100000000E+02    0.9201130709E-01    0.1140460150E+00    0.7516541489E-02    0.9695175944E-02    0.5294844468E-01
    0.4300000000E+02    0.9576772369E-01    0.1181469616E+00    0.7762039424E-02    0.1009105929E-01    0.5485585532E-01
    0.4500000000E+02    0.9946794917E-01    0.1221490587E+00    0.7999379609E-02    0.1048102698E-01    0.5671757563E-01
    0.4700000000E+02    0.1031132792E+00    0.1260558627E+00    0.8228864796E-02    0.1086521536E-01    0.5853524599E-01
    0.4900000000E+02    0.1067049695E+00    0.1298707611E+00    0.8450783922E-02    0.1124375659E-01    0.6031042895E-01
    0.1000000000E+02    0.2547208919E-01    0.3442939067E-01    0.2381157179E-02    0.2683667532E-02    0.1596775547E-01
    0.3000000000E+02    0.7028459068E-01    0.8954686312E-01    0.6005484002E-02    0.7405549037E-02    0.4155933341E-01
    0.5000000000E+02    0.1084810815E+00    0.1317447605E+00    0.8558992917E-02    0.1143094970E-01    0.6118255580E-01
    0.7000000000E+02    0.1414645927E+00    0.1651090722E+00    0.1038680355E-01    0.1490752736E-01    0.7672177796E-01
    0.9000000000E+02    0.1702636678E+00    0.1921647865E+00    0.1170624280E-01    0.1794353347E-01    0.8934208457E-01
    0.1100000000E+03    0.1956496964E+00    0.2145566966E+00    0.1266043901E-01    0.2062015876E-01    0.9980282227E-01
    0.1300000000E+03    0.2182127977E+00    0.2334024269E+00    0.1334699653E-01    0.2299951780E-01    0.1086202336E+00
    0.1500000000E+03    0.2384123509E+00    0.2494881275E+00    0.1383435254E-01    0.2512996617E-01    0.1161576400E+00
    0.1700000000E+03    0.2566115159E+00    0.2633829911E+00    0.1417159384E-01    0.2704973290E-01    0.1226782327E+00
    0.1900000000E+03    0.2731013543E+00    0.2755093443E+00    0.1439459674E-01    0.2878945893E-01    0.1283773943E+00
    0.2100000000E+03    0.2881180284E+00    0.2861872019E+00    0.1453000024E-01    0.3037400694E-01    0.1334032513E+00
    0.2300000000E+03    0.3018552866E+00    0.2956635204E+00    0.1459785185E-01    0.3182377539E-01    0.1378701719E+00
    0.2500000000E+03    0.3144736783E+00    0.3041319510E+00    0.1461341292E-01    0.3315566822E-01    0.1418678845E+00
    0.2700000000E+03    0.3261074540E+00    0.3117465080E+00    0.1458841665E-01    0.3438382110E-01    0.1454677881E+00
    0.2900000000E+03    0.3368698044E+00    0.3186312332E+00    0.1453196084E-01    0.3552015286E-01    0.1487274159E+00
    0.3100000000E+03    0.3468568870E+00    0.3248871612E+00    0.1445115170E-01    0.3657478922E-01    0.1516936544E+00
    0.3300000000E+03    0.3561509565E+00    0.3305974278E+00    0.1435157485E-01    0.3755639231E-01    0.1544051028E+00
    0.3500000000E+03    0.3648228235E+00    0.3358310728E+00    0.1423764415E-01    0.3847241948E-01    0.1568938323E+00
    0.3700000000E+03    0.3729338052E+00    0.3406459124E+00    0.1411286312E-01    0.3932932861E-01    0.1591867139E+00
    0.3900000000E+03    0.3805372867E+00    0.3450907355E+00    0.1398002281E-01    0.4013274246E-01    0.1613064342E+00
    0.4100000000E+03    0.3876799811E+00    0.3492070034E+00    0.1384135299E-01    0.4088758130E-01    0.1632722826E+00
    0.4300000000E+03    0.3944029544E+00    0.3530301787E+00    0.1369863860E-01    0.4159817082E-01    0.1651007656E+00
    0.4500000000E+03    0.4007424653E+00    0.3565907749E+00    0.1355331024E-01    0.4226833052E-01    0.1668060934E+00
    0.4700000000E+03    0.4067306577E+00    0.3599151928E+00    0.1340651480E-01    0.4290144661E-01    0.1684005670E+00
    0.4900000000E+03    0.4123961361E+00    0.3630263924E+00    0.1325917116E-01    0.4350053261E-01    0.1698948895E+00
    0.1000000000E+03    0.1833428700E+00    0.2038643263E+00    0.1222206240E-01    0.1932251185E-01    0.9480573430E-01
    0.3000000000E+03    0.3419548190E+00    0.3218322312E+00    0.1449422028E-01    0.3605711061E-01    0.1502446252E+00
    0.5000000000E+03    0.4151159485E+00    0.3645084056E+00    0.1318552960E-01    0.4378816674E-01    0.1706074650E+00
    0.7000000000E+03    0.4575287459E+00    0.3867055762E+00    0.1179750675E-01    0.4827678712E-01    0.1813521126E+00
    0.9000000000E+03    0.4852305412E+00    0.4003645712E+00    0.1065245662E-01    0.5121290740E-01    0.1880562574E+00
    0.1100000000E+04    0.5047315468E+00    0.4096374736E+00    0.9733575045E-02    0.5328290828E-01    0.1926695795E+00
    0.1300000000E+04    0.5191923131E+00    0.4163537782E+00    0.8989774906E-02    0.5482018526E-01    0.1960554813E+00
    0.1500000000E+04    0.5303354269E+00    0.4214471601E+00    0.8377926153E-02    0.5600654161E-01    0.1986567595E+00
    0.1700000000E+04    0.5391800500E+00    0.4254447699E+00    0.7866198101E-02    0.5694959542E-01    0.2007246195E+00
    0.1900000000E+04    0.5463675666E+00    0.4286671211E+00    0.7431632157E-02    0.5771710775E-01    0.2024125206E+00
    0.2100000000E+04    0.5523216160E+00    0.4313204756E+00    0.7057574139E-02    0.5835385787E-01    0.2038196810E+00
    0.2300000000E+04    0.5573331485E+00    0.4335436775E+00    0.6731766719E-02    0.5889061512E-01    0.2050131975E+00
    0.2500000000E+04    0.5616085254E+00    0.4354336679E+00    0.6445035260E-02    0.5934921405E-01    0.2060401315E+00
    0.2700000000E+04    0.5652981259E+00    0.4370602133E+00    0.6190395765E-02    0.5974557394E-01    0.2069345054E+00
    0.2900000000E+04    0.5685140928E+00    0.4384748221E+00    0.5962446190E-02    0.6009157223E-01    0.2077215504E+00
    0.3100000000E+04    0.5713417373E+00    0.4397163616E+00    0.5756945840E-02    0.6039624905E-01    0.2084203907E+00
    0.3300000000E+04    0.5738470963E+00    0.4408147192E+00    0.5570520253E-02    0.6066660564E-01    0.2090457966E+00
    0.3500000000E+04    0.5760820750E+00    0.4417932593E+00    0.5400450819E-02    0.6090814771E-01    0.2096093656E+00
    0.3700000000E+04    0.5780880285E+00    0.4426705136E+00    0.5244522458E-02    0.6112526414E-01    0.2101203364E+00
    0.3900000000E+04    0.5798983079E+00    0.4434613717E+00    0.5100911683E-02    0.6132149611E-01    0.2105861641E+00
    0.4100000000E+04    0.5815401041E+00    0.4441779356E+00    0.4968103186E-02    0.6149973217E-01    0.2110129339E+00
    0.4300000000E+04    0.5830358045E+00    0.4448301439E+00    0.4844826855E-02    0.6166235179E-01    0.2114056648E+00
    0.4500000000E+04    0.5844040077E+00    0.4454262354E+00    0.4730009653E-02    0.6181133274E-01    0.2117685348E+00
    0.4700000000E+04    0.5856602908E+00    0.4459730980E+00    0.4622738418E-02    0.6194833229E-01    0.2121050519E+00
    0.4900000000E+04    0.5868177981E+00    0.4464765355E+00    0.4522230810E-02    0.6207474960E-01    0.2124181841E+00
    0.1000000000E+04    0.4957614903E+00    0.4054046516E+00    0.1016798251E-01    0.5233036903E-01    0.1905561066E+00
    0.3000000000E+04    0.5699719459E+00    0.4391151804E+00    0.5857118266E-02    0.6024859781E-01    0.2080809870E+00
    0.5000000000E+04    0.5873630677E+00    0.4467135386E+00    0.4474298919E-02    0.6213436870E-01    0.2125667861E+00
    0.7000000000E+04    0.5950777669E+00    0.4500522767E+00    0.3747241901E-02    0.6298385133E-01    0.2147657108E+00
    0.9000000000E+04    0.5994250865E+00    0.4519125234E+00    0.3283030456E-02    0.6346981469E-01    0.2161207876E+00
    0.1100000000E+05    0.6022115902E+00    0.4530875667E+00    0.2954306576E-02    0.6378596703E-01    0.2170620655E+00
    0.1300000000E+05    0.6041484198E+00    0.4538899795E+00    0.2706020865E-02    0.6400896615E-01    0.2177659589E+00
    0.1500000000E+05    0.6055719623E+00    0.4544678155E+00    0.2510040939E-02    0.6417526249E-01    0.2183192764E+00
    0.1700000000E+05    0.6066618734E+00    0.4549002103E+00    0.2350309826E-02    0.6430442383E-01    0.2187701460E+00
    0.1900000000E+05    0.6075227974E+00    0.4552332611E+00    0.2216911874E-02    0.6440790625E-01    0.2191476111E+00
    0.2100000000E+05    0.6082197984E+00    0.4554956104E+00    0.2103351184E-02    0.6449286898E-01    0.2194703475E+00
    0.2300000000E+05    0.6087954484E+00    0.4557059734E+00    0.2005171713E-02    0.6456402007E-01    0.2197509730E+00
    0.2500000000E+05    0.6092787685E+00    0.4558770825E+00    0.1919201803E-02    0.6462458513E-01    0.2199983564E+00
    0.2700000000E+05    0.6096902200E+00    0.4560178918E+00    0.1843114607E-02    0.6467684977E-01    0.2202189376E+00
    0.2900000000E+05    0.6100446421E+00    0.4561348747E+00    0.1775159360E-02    0.6472247986E-01    0.2204175203E+00
    0.3100000000E+05    0.6103530575E+00    0.4562328227E+00    0.1713990208E-02    0.6476271898E-01    0.2205977714E+00
    0.3300000000E+05    0.6106238242E+00    0.4563153544E+00    0.1658553333E-02    0.6479851474E-01    0.2207625454E+00
    0.3500000000E+05    0.6108633949E+00    0.4563852510E+00    0.1608010281E-02    0.6483060231E-01    0.2209141025E+00
    0.3700000000E+05    0.6110768296E+00    0.4564446832E+00    0.1561684535E-02    0.6485956107E-01    0.2210542595E+00
    0.3900000000E+05    0.6112681523E+00    0.4564953683E+00    0.1519023431E-02    0.6488585397E-01    0.2211844960E+00
    0.4100000000E+05    0.6114406027E+00    0.4565386812E+00    0.1479570477E-02    0.6490985559E-01    0.2213060310E+00
    0.4300000000E+05    0.6115968184E+00    0.4565757351E+00    0.1442944868E-02    0.6493187236E-01    0.2214198798E+00
    0.4500000000E+05    0.6117389686E+00    0.4566074395E+00    0.1408826099E-02    0.6495215748E-01    0.2215268957E+00
    0.4700000000E+05    0.6118688533E+00    0.4566345448E+00    0.1376942226E-02    0.6497092209E-01    0.2216278022E+00
    0.4900000000E+05    0.6119879785E+00    0.4566576744E+00    0.1347060808E-02    0.6498834372E-01    0.2217232173E+00
    0.1000000000E+05    0.6009559020E+00    0.4525604151E+00    0.3106089426E-02    0.6364292339E-01    0.2166290293E+00
    0.3000000000E+05    0.6102040262E+00    0.4561859790E+00    0.1743798194E-02    0.6474320827E-01    0.2205097428E+00
    0.5000000000E+05    0.6120439112E+00    0.4566679148E+00    0.1332807410E-02    0.6499659882E-01    0.2217690347E+00
    0.7000000000E+05    0.6128218947E+00    0.4567549248E+00    0.1116309475E-02    0.6511797587E-01    0.2224944083E+00
    0.9000000000E+05    0.6132477839E+00    0.4567331270E+00    0.9777691322E-03    0.6519235500E-01    0.2229970750E+00
    0.1100000000E+06    0.6135146820E+00    0.4566731308E+00    0.8795419010E-03    0.6524407293E-01    0.2233792876E+00
    0.1300000000E+06    0.6136965724E+00    0.4565989298E+00    0.8053068445E-03    0.6528290247E-01    0.2236865828E+00
    0.1500000000E+06    0.6138278302E+00    0.4565201539E+00    0.7466982015E-03    0.6531359112E-01    0.2239430000E+00
    0.1700000000E+06    0.6139265700E+00    0.4564410371E+00    0.6989300599E-03    0.6533874966E-01    0.2241627076E+00
    0.1900000000E+06    0.6140032293E+00    0.4563635147E+00    0.6590420246E-03    0.6535994542E-01    0.2243547298E+00
    0.2100000000E+06    0.6140642380E+00    0.4562884575E+00    0.6250923764E-03    0.6537818307E-01    0.2245251549E+00
    0.2300000000E+06    0.6141137688E+00    0.4562162159E+00    0.5957480192E-03    0.6539414014E-01    0.2246782782E+00
    0.2500000000E+06    0.6141546449E+00    0.4561468776E+00    0.5700595462E-03    0.6540829250E-01    0.2248172396E+00
    0.2700000000E+06    0.6141888431E+00    0.4560803972E+00    0.5473301617E-03    0.6542098565E-01    0.2249444015E+00
    0.2900000000E+06    0.6142177875E+00    0.4560166630E+00    0.5270354490E-03    0.6543247747E-01    0.2250615853E+00
    0.3100000000E+06    0.6142425292E+00    0.4559555331E+00    0.5087722148E-03    0.6544296499E-01    0.2251702236E+00
    0.3300000000E+06    0.6142638604E+00    0.4558968550E+00    0.4922247309E-03    0.6545260179E-01    0.2252714632E+00
    0.3500000000E+06    0.6142823892E+00    0.4558404760E+00    0.4771417894E-03    0.6546150966E-01    0.2253662363E+00
    0.3700000000E+06    0.6142985894E+00    0.4557862486E+00    0.4633207052E-03    0.6546978667E-01    0.2254553102E+00
    0.3900000000E+06    0.6143128360E+00    0.4557340335E+00    0.4505959098E-03    0.6547751284E-01    0.2255393242E+00
    0.4100000000E+06    0.6143254289E+00    0.4556837005E+00    0.4388306579E-03    0.6548475423E-01    0.2256188164E+00
    0.4300000000E+06    0.6143366110E+00    0.4556351291E+00    0.4279108892E-03    0.6549156599E-01    0.2256942440E+00
    0.4500000000E+06    0.6143465811E+00    0.4555882078E+00    0.4177406157E-03    0.6549799455E-01    0.2257659983E+00
    0.4700000000E+06    0.6143555030E+00    0.4555428342E+00    0.4082384037E-03    0.6550407937E-01    0.2258344172E+00
    0.4900000000E+06    0.6143635132E+00    0.4554989141E+00    0.3993346586E-03    0.6550985425E-01    0.2258997942E+00
    0.1000000000E+06    0.6133950891E+00    0.4567058847E+00    0.9249069350E-03    0.6522026109E-01    0.2231996659E+00
    0.3000000000E+06    0.6142306291E+00    0.4559857819E+00    0.5176713699E-03    0.6543783631E-01    0.2251168952E+00
    0.5000000000E+06    0.6143672129E+00    0.4554774716E+00    0.3950881681E-03    0.6551263473E-01    0.2259314235E+00
    0.7000000000E+06    0.6144133401E+00    0.4551072716E+00    0.3306364560E-03    0.6555732837E-01    0.2264525554E+00
    0.9000000000E+06    0.6144321519E+00    0.4548168660E+00    0.2894446230E-03    0.6558908271E-01    0.2268358487E+00
    0.1100000000E+07    0.6144398036E+00    0.4545779358E+00    0.2602651539E-03    0.6561367323E-01    0.2271389329E+00
    0.1300000000E+07    0.6144421153E+00    0.4543749106E+00    0.2382277157E-03    0.6563372427E-01    0.2273895310E+00
    0.1500000000E+07    0.6144416225E+00    0.4541983526E+00    0.2208383617E-03    0.6565064499E-01    0.2276031121E+00
    0.1700000000E+07    0.6144395729E+00    0.4540421155E+00    0.2066714967E-03    0.6566527807E-01    0.2277891870E+00
    0.1900000000E+07    0.6144366341E+00    0.4539019746E+00    0.1948458865E-03    0.6567816698E-01    0.2279540203E+00
    0.2100000000E+07    0.6144331859E+00    0.4537749011E+00    0.1847838555E-03    0.6568968243E-01    0.2281019568E+00
    0.2300000000E+07    0.6144294540E+00    0.4536586497E+00    0.1760889886E-03    0.6570008850E-01    0.2282361326E+00
    0.2500000000E+07    0.6144255771E+00    0.4535515093E+00    0.1684790840E-03    0.6570957987E-01    0.2283588857E+00
    0.2700000000E+07    0.6144216422E+00    0.4534521458E+00    0.1617471018E-03    0.6571830420E-01    0.2284720052E+00
    0.2900000000E+07    0.6144177048E+00    0.4533594990E+00    0.1557372715E-03    0.6572637608E-01    0.2285768909E+00
    0.3100000000E+07    0.6144138006E+00    0.4532727124E+00    0.1503298651E-03    0.6573388624E-01    0.2286746583E+00
    0.3300000000E+07    0.6144099520E+00    0.4531910837E+00    0.1454311516E-03    0.6574090774E-01    0.2287662107E+00
    0.3500000000E+07    0.6144061735E+00    0.4531140301E+00    0.1409665717E-03    0.6574750025E-01    0.2288522900E+00
    0.3700000000E+07    0.6144024736E+00    0.4530410628E+00    0.1368759809E-03    0.6575371316E-01    0.2289335128E+00
    0.3900000000E+07    0.6143988570E+00    0.4529717672E+00    0.1331102580E-03    0.6575958780E-01    0.2290103971E+00
    0.4100000000E+07    0.6143953260E+00    0.4529057893E+00    0.1296288406E-03    0.6576515909E-01    0.2290833823E+00
    0.4300000000E+07    0.6143918810E+00    0.4528428238E+00    0.1263979008E-03    0.6577045683E-01    0.2291528443E+00
    0.4500000000E+07    0.6143885213E+00    0.4527826059E+00    0.1233889749E-03    0.6577550661E-01    0.2292191072E+00
    0.4700000000E+07    0.6143852453E+00    0.4527249044E+00    0.1205779186E-03    0.6578033062E-01    0.2292824524E+00
    0.4900000000E+07    0.6143820511E+00    0.4526695162E+00    0.1179441005E-03    0.6578494819E-01    0.2293431257E+00
    0.1000000000E+07    0.6144368916E+00    0.4546921332E+00    0.2737385723E-03    0.6560206862E-01    0.2269952798E+00
    0.3000000000E+07    0.6144157469E+00    0.4533154202E+00    0.1529646405E-03    0.6573019645E-01    0.2286266036E+00
    0.5000000000E+07    0.6143804839E+00    0.4526426326E+00    0.1166880111E-03    0.6578718493E-01    0.2293725290E+00
    0.7000000000E+07    0.6143528073E+00    0.4521920804E+00    0.9762868798E-04    0.6582428446E-01    0.2298612966E+00
    0.9000000000E+07    0.6143305403E+00    0.4518524783E+00    0.8545265402E-04    0.6585184249E-01    0.2302253829E+00
    0.1100000000E+08    0.6143120057E+00    0.4515796829E+00    0.7682971201E-04    0.6587377755E-01    0.2305156207E+00
    0.1300000000E+08    0.6142961588E+00    0.4513516023E+00    0.7031859550E-04    0.6589200083E-01    0.2307569677E+00
    0.1500000000E+08    0.6142823287E+00    0.4511555760E+00    0.6518154216E-04    0.6590758916E-01    0.2309635427E+00
    0.1700000000E+08    0.6142700646E+00    0.4509836665E+00    0.6099694330E-04    0.6592120958E-01    0.2311441144E+00
    0.1900000000E+08    0.6142590499E+00    0.4508305660E+00    0.5750423504E-04    0.6593330401E-01    0.2313045036E+00
    0.2100000000E+08    0.6142490547E+00    0.4506925485E+00    0.5453263868E-04    0.6594418042E-01    0.2314487721E+00
    0.2300000000E+08    0.6142399070E+00    0.4505668979E+00    0.5196497807E-04    0.6595406202E-01    0.2315798670E+00
    0.2500000000E+08    0.6142314745E+00    0.4504515720E+00    0.4971784715E-04    0.6596311577E-01    0.2316999946E+00
    0.2700000000E+08    0.6142236537E+00    0.4503449970E+00    0.4773006053E-04    0.6597146982E-01    0.2318108496E+00
