  Pressure (Pa) 22mC5-400 (mol/kg) 3mC6-400 (mol/kg) 33mC5-400 (mol/kg) 23mC5-400 (mol/kg) C7-400 (mol/kg)
    0.1000000000E+01    0.2652786391E-02    0.4192871959E-02    0.1287910233E-03    0.9316000876E-04    0.6803996378E-02
    0.3000000000E+01    0.7892583091E-02    0.1218210455E-01    0.3744277394E-03    0.2771721703E-03    0.1977160760E-01
    0.5000000000E+01    0.1304650674E-01    0.1968303659E-01    0.6052994445E-03    0.4581713241E-03    0.3195049109E-01
    0.7000000000E+01    0.1811668761E-01    0.2673909765E-01    0.8226569795E-03    0.6362321938E-03    0.4341068291E-01
    0.9000000000E+01    0.2310518581E-01    0.3338871556E-01    0.1027608411E-02    0.8114270412E-03    0.5421415960E-01
    0.1100000000E+02    0.2801399409E-01    0.3966601625E-01    0.1221139143E-02    0.9838257666E-03    0.6441596536E-01
    0.1300000000E+02    0.3284504062E-01    0.4560140936E-01    0.1404128710E-02    0.1153496005E-02    0.7406515515E-01
    0.1500000000E+02    0.3760019154E-01    0.5122208062E-01    0.1577364885E-02    0.1320503215E-02    0.8320558797E-01
    0.1700000000E+02    0.4228125345E-01    0.5655240806E-01    0.1741555574E-02    0.1484910769E-02    0.9187659723E-01
    0.1900000000E+02    0.4688997577E-01    0.6161431535E-01    0.1897338901E-02    0.1646780032E-02    0.1001135599E+00
    0.2100000000E+02    0.5142805297E-01    0.6642757304E-01    0.2045291799E-02    0.1806170442E-02    0.1079483821E+00
    0.2300000000E+02    0.5589712673E-01    0.7101005660E-01    0.2185937352E-02    0.1963139588E-02    0.1154099145E+00
    0.2500000000E+02    0.6029878793E-01    0.7537796808E-01    0.2319751093E-02    0.2117743274E-02    0.1225243096E+00
    0.2700000000E+02    0.6463457866E-01    0.7954602754E-01    0.2447166440E-02    0.2270035594E-02    0.1293153304E+00
    0.2900000000E+02    0.6890599404E-01    0.8352763863E-01    0.2568579388E-02    0.2420068995E-02    0.1358046169E+00
    0.3100000000E+02    0.7311448399E-01    0.8733503256E-01    0.2684352590E-02    0.2567894339E-02    0.1420119184E+00
    0.3300000000E+02    0.7726145494E-01    0.9097939355E-01    0.2794818901E-02    0.2713560961E-02    0.1479552956E+00
    0.3500000000E+02    0.8134827144E-01    0.9447096850E-01    0.2900284481E-02    0.2857116729E-02    0.1536512971E+00
    0.3700000000E+02    0.8537625772E-01    0.9781916317E-01    0.3001031508E-02    0.2998608096E-02    0.1591151149E+00
    0.3900000000E+02    0.8934669915E-01    0.1010326268E+00    0.3097320567E-02    0.3138080153E-02    0.1643607203E+00
    0.4100000000E+02    0.9326084366E-01    0.1041193265E+00    0.3189392753E-02    0.3275576675E-02    0.1694009845E+00
    0.4300000000E+02    0.9711990311E-01    0.1070866135E+00    0.3277471523E-02    0.3411140175E-02    0.1742477845E+00
    0.4500000000E+02    0.1009250546E+00    0.1099412811E+00    0.3361764351E-02    0.3544811943E-02    0.1789120976E+00
    0.4700000000E+02    0.1046774415E+00    0.1126896173E+00    0.3442464181E-02    0.3676632096E-02    0.1834040847E+00
    0.4900000000E+02    0.1083781751E+00    0.1153374500E+00    0.3519750732E-02    0.3806639611E-02    0.1877331654E+00
    0.1000000000E+02    0.2556942920E-01    0.3657192403E-01    0.1125744090E-02    0.8979716400E-03    0.5938707499E-01
    0.3000000000E+02    0.7101801579E-01    0.8545239054E-01    0.2627149494E-02    0.2494254555E-02    0.1389423496E+00
    0.5000000000E+02    0.1102095106E+00    0.1166253834E+00    0.3557166862E-02    0.3870975510E-02    0.1898393732E+00
    0.7000000000E+02    0.1443719827E+00    0.1382345120E+00    0.4161606880E-02    0.5071214774E-02    0.2252328077E+00
    0.9000000000E+02    0.1744300079E+00    0.1540933721E+00    0.4561482742E-02    0.6127407724E-02    0.2512896258E+00
    0.1100000000E+03    0.2010930479E+00    0.1662258057E+00    0.4824726549E-02    0.7064444421E-02    0.2712861450E+00
    0.1300000000E+03    0.2249146770E+00    0.1758056198E+00    0.4992989305E-02    0.7901746841E-02    0.2871246562E+00
    0.1500000000E+03    0.2463332747E+00    0.1835604786E+00    0.5093428173E-02    0.8654696115E-02    0.2999857013E+00
    0.1700000000E+03    0.2657006067E+00    0.1899654853E+00    0.5144550350E-02    0.9335634984E-02    0.3106409072E+00
    0.1900000000E+03    0.2833022953E+00    0.1953440141E+00    0.5159386567E-02    0.9954585826E-02    0.3196160411E+00
    0.2100000000E+03    0.2993727415E+00    0.1999238047E+00    0.5147340593E-02    0.1051977407E-01    0.3272817793E+00
    0.2300000000E+03    0.3141061762E+00    0.2038698837E+00    0.5115328689E-02    0.1103801584E-01    0.3339070128E+00
    0.2500000000E+03    0.3276649627E+00    0.2073047612E+00    0.5068513368E-02    0.1151500921E-01    0.3396915715E+00
    0.2700000000E+03    0.3401859165E+00    0.2103212947E+00    0.5010793028E-02    0.1195555587E-01    0.3447870798E+00
    0.2900000000E+03    0.3517851743E+00    0.2129911481E+00    0.4945138307E-02    0.1236373198E-01    0.3493106812E+00
    0.3100000000E+03    0.3625619863E+00    0.2153705118E+00    0.4873828742E-02    0.1274302116E-01    0.3533543232E+00
    0.3300000000E+03    0.3726017002E+00    0.2175040648E+00    0.4798622628E-02    0.1309641923E-01    0.3569911942E+00
    0.3500000000E+03    0.3819781315E+00    0.2194277781E+00    0.4720881019E-02    0.1342651731E-01    0.3602802810E+00
    0.3700000000E+03    0.3907554625E+00    0.2211709380E+00    0.4641659539E-02    0.1373556849E-01    0.3632696586E+00
    0.3900000000E+03    0.3989897760E+00    0.2227576290E+00    0.4561777224E-02    0.1402554163E-01    0.3659989055E+00
    0.4100000000E+03    0.4067303041E+00    0.2242078400E+00    0.4481868678E-02    0.1429816515E-01    0.3685009036E+00
    0.4300000000E+03    0.4140204507E+00    0.2255382985E+00    0.4402423976E-02    0.1455496295E-01    0.3708031992E+00
    0.4500000000E+03    0.4208986361E+00    0.2267631101E+00    0.4323819423E-02    0.1479728400E-01    0.3729290449E+00
    0.4700000000E+03    0.4273989976E+00    0.2278942523E+00    0.4246341460E-02    0.1502632697E-01    0.3748982059E+00
    0.4900000000E+03    0.4335519741E+00    0.2289419610E+00    0.4170205340E-02    0.1524316071E-01    0.3767275911E+00
    0.1000000000E+03    0.1881481974E+00    0.1605383146E+00    0.4707144110E-02    0.6609497807E-02    0.2619043498E+00
    0.3000000000E+03    0.3572707563E+00    0.2142141164E+00    0.4910069907E-02    0.1255678983E-01    0.3513875439E+00
    0.5000000000E+03    0.4365068165E+00    0.2294373268E+00    0.4132691956E-02    0.1534730194E-01    0.3775944959E+00
    0.7000000000E+03    0.4826670157E+00    0.2365659053E+00    0.3472289240E-02    0.1697531297E-01    0.3902478494E+00
    0.9000000000E+03    0.5129050574E+00    0.2406686981E+00    0.2973792594E-02    0.1804330001E-01    0.3977535578E+00
    0.1100000000E+04    0.5342429382E+00    0.2433174595E+00    0.2597613899E-02    0.1879801622E-01    0.4027471905E+00
    0.1300000000E+04    0.5501003770E+00    0.2451580908E+00    0.2308050826E-02    0.1935969030E-01    0.4063233271E+00
    0.1500000000E+04    0.5623443643E+00    0.2465044135E+00    0.2080070620E-02    0.1979399309E-01    0.4090192977E+00
    0.1700000000E+04    0.5720809280E+00    0.2475270572E+00    0.1896735673E-02    0.2013984776E-01    0.4111302406E+00
    0.1900000000E+04    0.5800069579E+00    0.2483266479E+00    0.1746498327E-02    0.2042179097E-01    0.4128319682E+00
    0.2100000000E+04    0.5865833045E+00    0.2489662989E+00    0.1621333763E-02    0.2065605657E-01    0.4142358603E+00
    0.2300000000E+04    0.5921268536E+00    0.2494875589E+00    0.1515543121E-02    0.2085381245E-01    0.4154159737E+00
    0.2500000000E+04    0.5968626292E+00    0.2499188700E+00    0.1424992351E-02    0.2102299289E-01    0.4164235108E+00
    0.2700000000E+04    0.6009548033E+00    0.2502803405E+00    0.1346622374E-02    0.2116938928E-01    0.4172950313E+00
    0.2900000000E+04    0.6045259452E+00    0.2505865761E+00    0.1278127997E-02    0.2129732750E-01    0.4180573558E+00
    0.3100000000E+04    0.6076694023E+00    0.2508484334E+00    0.1217743168E-02    0.2141010368E-01    0.4187306181E+00
    0.3300000000E+04    0.6104575105E+00    0.2510741435E+00    0.1164094439E-02    0.2151027322E-01    0.4193302360E+00
    0.3500000000E+04    0.6129471855E+00    0.2512700563E+00    0.1116099068E-02    0.2159984775E-01    0.4198682214E+00
    0.3700000000E+04    0.6151838201E+00    0.2514411453E+00    0.1072892874E-02    0.2168043240E-01    0.4203540765E+00
    0.3900000000E+04    0.6172040572E+00    0.2515913586E+00    0.1033778317E-02    0.2175332349E-01    0.4207954200E+00
    0.4100000000E+04    0.6190377988E+00    0.2517238681E+00    0.9981865472E-03    0.2181957940E-01    0.4211984340E+00
    0.4300000000E+04    0.6207096872E+00    0.2518412503E+00    0.9656492772E-03    0.2188007275E-01    0.4215681899E+00
    0.4500000000E+04    0.6222402111E+00    0.2519456176E+00    0.9357776584E-03    0.2193552942E-01    0.4219088883E+00
    0.4700000000E+04    0.6236465450E+00    0.2520387182E+00    0.9082462244E-03    0.2198655817E-01    0.4222240393E+00
    0.4900000000E+04    0.6249431927E+00    0.2521220097E+00    0.8827805504E-03    0.2203367331E-01    0.4225166001E+00
    0.1000000000E+04    0.5244219524E+00    0.2421230047E+00    0.2772909519E-02    0.1845051682E-01    0.4004767962E+00
    0.3000000000E+04    0.6061461965E+00    0.2507224862E+00    0.1247015563E-02    0.2135543644E-01    0.4184040634E+00
    0.5000000000E+04    0.6255543115E+00    0.2521603677E+00    0.8707481687E-03    0.2205590261E-01    0.4226552086E+00
    0.7000000000E+04    0.6342239984E+00    0.2526272617E+00    0.6969963362E-03    0.2237335486E-01    0.4246895156E+00
    0.9000000000E+04    0.6391323634E+00    0.2528003526E+00    0.5943741452E-03    0.2255563511E-01    0.4259289331E+00
    0.1100000000E+05    0.6422897083E+00    0.2528546291E+00    0.5253732432E-03    0.2267452639E-01    0.4267847931E+00
    0.1300000000E+05    0.6444907364E+00    0.2528531376E+00    0.4751420420E-03    0.2275854792E-01    0.4274228814E+00
    0.1500000000E+05    0.6461125573E+00    0.2528232058E+00    0.4365679016E-03    0.2282129937E-01    0.4279238048E+00
    0.1700000000E+05    0.6473570851E+00    0.2527781603E+00    0.4057897971E-03    0.2287009765E-01    0.4283318664E+00
    0.1900000000E+05    0.6483421754E+00    0.2527250439E+00    0.3805168075E-03    0.2290923408E-01    0.4286736266E+00
    0.2100000000E+05    0.6491412379E+00    0.2526677945E+00    0.3592961983E-03    0.2294139437E-01    0.4289660782E+00
    0.2300000000E+05    0.6498023802E+00    0.2526087027E+00    0.3411580130E-03    0.2296834686E-01    0.4292206563E+00
    0.2500000000E+05    0.6503584425E+00    0.2525491359E+00    0.3254274336E-03    0.2299130441E-01    0.4294453736E+00
    0.2700000000E+05    0.6508326083E+00    0.2524899218E+00    0.3116189384E-03    0.2301112719E-01    0.4296460332E+00
    0.2900000000E+05    0.6512417102E+00    0.2524315615E+00    0.2993733061E-03    0.2302844268E-01    0.4298269557E+00
    0.3100000000E+05    0.6515982647E+00    0.2523743542E+00    0.2884184168E-03    0.2304371960E-01    0.4299914336E+00
    0.3300000000E+05    0.6519117725E+00    0.2523184709E+00    0.2785439291E-03    0.2305731540E-01    0.4301420270E+00
    0.3500000000E+05    0.6521895748E+00    0.2522640006E+00    0.2695843911E-03    0.2306950751E-01    0.4302807611E+00
    0.3700000000E+05    0.6524374337E+00    0.2522109792E+00    0.2614076600E-03    0.2308051473E-01    0.4304092623E+00
    0.3900000000E+05    0.6526599354E+00    0.2521594087E+00    0.2539067679E-03    0.2309051194E-01    0.4305288546E+00
    0.4100000000E+05    0.6528607751E+00    0.2521092688E+00    0.2469940872E-03    0.2309964074E-01    0.4306406285E+00
    0.4300000000E+05    0.6530429638E+00    0.2520605252E+00    0.2405970643E-03    0.2310801698E-01    0.4307454920E+00
    0.4500000000E+05    0.6532089792E+00    0.2520131355E+00    0.2346550484E-03    0.2311573645E-01    0.4308442080E+00
    0.4700000000E+05    0.6533608790E+00    0.2519670521E+00    0.2291168980E-03    0.2312287906E-01    0.4309374234E+00
    0.4900000000E+05    0.6535003862E+00    0.2519222252E+00    0.2239391497E-03    0.2312951200E-01    0.4310256909E+00
    0.1000000000E+05    0.6408656731E+00    0.2528371267E+00    0.5568694103E-03    0.2262070199E-01    0.4263914882E+00
    0.3000000000E+05    0.6514259031E+00    0.2524028007E+00    0.2937488831E-03    0.2303631144E-01    0.4299110757E+00
    0.5000000000E+05    0.6535659559E+00    0.2519002671E+00    0.2214735876E-03    0.2313265548E-01    0.4310681204E+00
    0.7000000000E+05    0.6544836864E+00    0.2515153726E+00    0.1843394734E-03    0.2317891429E-01    0.4317440342E+00
    0.9000000000E+05    0.6549927473E+00    0.2512083600E+00    0.1608616305E-03    0.2320729837E-01    0.4322175171E+00
    0.1100000000E+06    0.6553159174E+00    0.2509539085E+00    0.1443354826E-03    0.2322705095E-01    0.4325805818E+00
    0.1300000000E+06    0.6555390114E+00    0.2507369121E+00    0.1319066879E-03    0.2324188939E-01    0.4328744545E+00
    0.1500000000E+06    0.6557020993E+00    0.2505478557E+00    0.1221288896E-03    0.2325362148E-01    0.4331210294E+00
    0.1700000000E+06    0.6558263963E+00    0.2503804071E+00    0.1141812384E-03    0.2326324218E-01    0.4333332830E+00
    0.1900000000E+06    0.6559241821E+00    0.2502301539E+00    0.1075589826E-03    0.2327134920E-01    0.4335195220E+00
    0.2100000000E+06    0.6560030555E+00    0.2500939040E+00    0.1019325684E-03    0.2327832587E-01    0.4336853773E+00
    0.2300000000E+06    0.6560679692E+00    0.2499692758E+00    0.9707656573E-04    0.2328443082E-01    0.4338348381E+00
    0.2500000000E+06    0.6561222890E+00    0.2498544458E+00    0.9283090877E-04    0.2328984577E-01    0.4339708317E+00
    0.2700000000E+06    0.6561683817E+00    0.2497479880E+00    0.8907841558E-04    0.2329470269E-01    0.4340955688E+00
    0.2900000000E+06    0.6562079596E+00    0.2496487658E+00    0.8573108200E-04    0.2329910012E-01    0.4342107589E+00
    0.3100000000E+06    0.6562422923E+00    0.2495558591E+00    0.8272137161E-04    0.2330311337E-01    0.4343177511E+00
    0.3300000000E+06    0.6562723405E+00    0.2494685126E+00    0.7999648389E-04    0.2330680113E-01    0.4344176283E+00
    0.3500000000E+06    0.6562988448E+00    0.2493860989E+00    0.7751446805E-04    0.2331020998E-01    0.4345112726E+00
    0.3700000000E+06    0.6563223850E+00    0.2493080908E+00    0.7524151926E-04    0.2331337742E-01    0.4345994123E+00
    0.3900000000E+06    0.6563434215E+00    0.2492340414E+00    0.7315005456E-04    0.2331633406E-01    0.4346826555E+00
    0.4100000000E+06    0.6563623246E+00    0.2491635686E+00    0.7121731612E-04    0.2331910515E-01    0.4347615150E+00
    0.4300000000E+06    0.6563793952E+00    0.2490963428E+00    0.6942433923E-04    0.2332171181E-01    0.4348364273E+00
    0.4500000000E+06    0.6563948807E+00    0.2490320781E+00    0.6775517756E-04    0.2332417178E-01    0.4349077669E+00
    0.4700000000E+06    0.6564089859E+00    0.2489705248E+00    0.6619631333E-04    0.2332650018E-01    0.4349758575E+00
    0.4900000000E+06    0.6564218821E+00    0.2489114633E+00    0.6473620230E-04    0.2332870994E-01    0.4350409811E+00
    0.1000000000E+06    0.6551705978E+00    0.2510756794E+00    0.1519561210E-03    0.2321795490E-01    0.4324096232E+00
    0.3000000000E+06    0.6562257155E+00    0.2496015736E+00    0.8418761674E-04    0.2330115077E-01    0.4342652068E+00
    0.5000000000E+06    0.6564279229E+00    0.2488828055E+00    0.6404002230E-04    0.2332977387E-01    0.4350725085E+00
    0.7000000000E+06    0.6565106869E+00    0.2484033951E+00    0.5348918252E-04    0.2334687354E-01    0.4355937985E+00
    0.9000000000E+06    0.6565544582E+00    0.2480431711E+00    0.4676149518E-04    0.2335901951E-01    0.4359792065E+00
    0.1100000000E+07    0.6565808861E+00    0.2477545258E+00    0.4200328413E-04    0.2336842304E-01    0.4362850003E+00
    0.1300000000E+07    0.6565981833E+00    0.2475136802E+00    0.3841401445E-04    0.2337608901E-01    0.4365384495E+00
    0.1500000000E+07    0.6566101287E+00    0.2473070333E+00    0.3558450815E-04    0.2338255697E-01    0.4367548510E+00
    0.1700000000E+07    0.6566186938E+00    0.2471260726E+00    0.3328119330E-04    0.2338814955E-01    0.4369436482E+00
    0.1900000000E+07    0.6566250033E+00    0.2469651150E+00    0.3135984595E-04    0.2339307481E-01    0.4371110811E+00
    0.2100000000E+07    0.6566297428E+00    0.2468201768E+00    0.2972600913E-04    0.2339747466E-01    0.4372614888E+00
    0.2300000000E+07    0.6566333524E+00    0.2466883573E+00    0.2831491438E-04    0.2340145016E-01    0.4373980103E+00
    0.2500000000E+07    0.6566361268E+00    0.2465674786E+00    0.2708048497E-04    0.2340507583E-01    0.4375229898E+00
    0.2700000000E+07    0.6566382697E+00    0.2464558640E+00    0.2598893631E-04    0.2340840816E-01    0.4376382243E+00
    0.2900000000E+07    0.6566399266E+00    0.2463521946E+00    0.2501486341E-04    0.2341149102E-01    0.4377451217E+00
    0.3100000000E+07    0.6566412031E+00    0.2462554147E+00    0.2413874881E-04    0.2341435911E-01    0.4378448053E+00
    0.3300000000E+07    0.6566421783E+00    0.2461646660E+00    0.2334531960E-04    0.2341704038E-01    0.4379381857E+00
    0.3500000000E+07    0.6566429118E+00    0.2460792410E+00    0.2262243165E-04    0.2341955766E-01    0.4380260116E+00
    0.3700000000E+07    0.6566434496E+00    0.2459985500E+00    0.2196029226E-04    0.2342192984E-01    0.4381089057E+00
    0.3900000000E+07    0.6566438275E+00    0.2459220961E+00    0.2135090634E-04    0.2342417272E-01    0.4381873916E+00
    0.4100000000E+07    0.6566440739E+00    0.2458494567E+00    0.2078767388E-04    0.2342629967E-01    0.4382619138E+00
    0.4300000000E+07    0.6566442114E+00    0.2457802695E+00    0.2026509235E-04    0.2342832207E-01    0.4383328529E+00
    0.4500000000E+07    0.6566442582E+00    0.2457142213E+00    0.1977853306E-04    0.2343024972E-01    0.4384005370E+00
    0.4700000000E+07    0.6566442291E+00    0.2456510399E+00    0.1932407078E-04    0.2343209110E-01    0.4384652513E+00
    0.4900000000E+07    0.6566441362E+00    0.2455904869E+00    0.1889835220E-04    0.2343385359E-01    0.4385272450E+00
    0.1000000000E+07    0.6565691704E+00    0.2478917192E+00    0.4419956094E-04    0.2336398565E-01    0.4361399566E+00
    0.3000000000E+07    0.6566406069E+00    0.2463030011E+00    0.2456560028E-04    0.2341295003E-01    0.4377958040E+00
    0.5000000000E+07    0.6566440690E+00    0.2455611295E+00    0.1869535455E-04    0.2343470731E-01    0.4385572912E+00
    0.7000000000E+07    0.6566410754E+00    0.2450720686E+00    0.1561776207E-04    0.2344886494E-01    0.4390569873E+00
    0.9000000000E+07    0.6566369318E+00    0.2447066990E+00    0.1365443558E-04    0.2345937842E-01    0.4394294214E+00
    0.1100000000E+08    0.6566327138E+00    0.2444149461E+00    0.1226551518E-04    0.2346774502E-01    0.4397263770E+00
    0.1300000000E+08    0.6566286964E+00    0.2441720788E+00    0.1121765337E-04    0.2347469477E-01    0.4399733227E+00
    0.1500000000E+08    0.6566249438E+00    0.2439640524E+00    0.1039151940E-04    0.2348063890E-01    0.4401846824E+00
    0.1700000000E+08    0.6566214559E+00    0.2437821203E+00    0.9718973390E-05    0.2348583208E-01    0.4403694215E+00
    0.1900000000E+08    0.6566182133E+00    0.2436204646E+00    0.9157931481E-05    0.2349044303E-01    0.4405334943E+00
    0.2100000000E+08    0.6566151918E+00    0.2434750192E+00    0.8680827075E-05    0.2349458930E-01    0.4406810575E+00
    0.2300000000E+08    0.6566123676E+00    0.2433428299E+00    0.8268755617E-05    0.2349835607E-01    0.4408151281E+00
    0.2500000000E+08    0.6566097193E+00    0.2432216831E+00    0.7908266987E-05    0.2350180707E-01    0.4409379653E+00
    0.2700000000E+08    0.6566072278E+00    0.2431098770E+00    0.7589498480E-05    0.2350499119E-01    0.4410513045E+00
