  Pressure (Pa) 22mC5-400 (mol/kg) 3mC6-400 (mol/kg) 33mC5-400 (mol/kg) 23mC5-400 (mol/kg) C7-400 (mol/kg)
    0.1000000000E+01    0.2650276690E-02    0.1590083142E-02    0.2597765879E-03    0.6515036407E-03    0.1720113625E-02
    0.3000000000E+01    0.7870429153E-02    0.4721483126E-02    0.7676893094E-03    0.1934763819E-02    0.5107826061E-02
    0.5000000000E+01    0.1298613765E-01    0.7789520792E-02    0.1260545595E-02    0.3192371543E-02    0.8427303061E-02
    0.7000000000E+01    0.1800059216E-01    0.1079611685E-01    0.1738881146E-02    0.4425110091E-02    0.1168060997E-01
    0.9000000000E+01    0.2291685320E-01    0.1374311499E-01    0.2203208456E-02    0.5633730946E-02    0.1486972936E-01
    0.1100000000E+02    0.2773785827E-01    0.1663228571E-01    0.2654018012E-02    0.6818955400E-02    0.1799656516E-01
    0.1300000000E+02    0.3246642799E-01    0.1946532990E-01    0.3091779419E-02    0.7981476044E-02    0.2106294652E-01
    0.1500000000E+02    0.3710527183E-01    0.2224388224E-01    0.3516942456E-02    0.9121958181E-02    0.2407063142E-01
    0.1700000000E+02    0.4165699353E-01    0.2496951438E-01    0.3929938078E-02    0.1024104116E-01    0.2702131013E-01
    0.1900000000E+02    0.4612409622E-01    0.2764373799E-01    0.4331179345E-02    0.1133933962E-01    0.2991660844E-01
    0.2100000000E+02    0.5050898717E-01    0.3026800754E-01    0.4721062315E-02    0.1241744468E-01    0.3275809069E-01
    0.2300000000E+02    0.5481398241E-01    0.3284372302E-01    0.5099966867E-02    0.1347592504E-01    0.3554726268E-01
    0.2500000000E+02    0.5904131094E-01    0.3537223246E-01    0.5468257493E-02    0.1451532804E-01    0.3828557433E-01
    0.2700000000E+02    0.6319311881E-01    0.3785483433E-01    0.5826284039E-02    0.1553618066E-01    0.4097442232E-01
    0.2900000000E+02    0.6727147294E-01    0.4029277975E-01    0.6174382396E-02    0.1653899046E-01    0.4361515246E-01
    0.3100000000E+02    0.7127836474E-01    0.4268727471E-01    0.6512875172E-02    0.1752424643E-01    0.4620906203E-01
    0.3300000000E+02    0.7521571349E-01    0.4503948202E-01    0.6842072307E-02    0.1849241988E-01    0.4875740189E-01
    0.3500000000E+02    0.7908536964E-01    0.4735052325E-01    0.7162271666E-02    0.1944396521E-01    0.5126137861E-01
    0.3700000000E+02    0.8288911779E-01    0.4962148056E-01    0.7473759600E-02    0.2037932064E-01    0.5372215638E-01
    0.3900000000E+02    0.8662867967E-01    0.5185339839E-01    0.7776811467E-02    0.2129890898E-01    0.5614085884E-01
    0.4100000000E+02    0.9030571683E-01    0.5404728511E-01    0.8071692140E-02    0.2220313825E-01    0.5851857087E-01
    0.4300000000E+02    0.9392183329E-01    0.5620411456E-01    0.8358656474E-02    0.2309240234E-01    0.6085634023E-01
    0.4500000000E+02    0.9747857799E-01    0.5832482750E-01    0.8637949759E-02    0.2396708161E-01    0.6315517911E-01
    0.4700000000E+02    0.1009774471E+00    0.6041033305E-01    0.8909808142E-02    0.2482754351E-01    0.6541606570E-01
    0.4900000000E+02    0.1044198864E+00    0.6246150994E-01    0.9174459034E-02    0.2567414304E-01    0.6763994553E-01
    0.1000000000E+02    0.2533908377E-01    0.1519482089E-01    0.2430273126E-02    0.6229223781E-02    0.1644081668E-01
    0.3000000000E+02    0.6928373002E-01    0.4149538488E-01    0.6344809821E-02    0.1703378281E-01    0.4491788057E-01
    0.5000000000E+02    0.1061203834E+00    0.6347449176E-01    0.9304150440E-02    0.2609235211E-01    0.6873829480E-01
    0.7000000000E+02    0.1374841827E+00    0.8212443772E-01    0.1156880120E-01    0.3380646659E-01    0.8896964573E-01
    0.9000000000E+02    0.1645398437E+00    0.9815466329E-01    0.1331806831E-01    0.4046215736E-01    0.1063754415E+00
    0.1100000000E+03    0.1881397918E+00    0.1120859012E+00    0.1467847290E-01    0.4626877496E-01    0.1215162752E+00
    0.1300000000E+03    0.2089225922E+00    0.1243090597E+00    0.1574120633E-01    0.5138315587E-01    0.1348131090E+00
    0.1500000000E+03    0.2273763720E+00    0.1351233473E+00    0.1657321391E-01    0.5592519431E-01    0.1465882547E+00
    0.1700000000E+03    0.2438809237E+00    0.1447617022E+00    0.1722443607E-01    0.5998818050E-01    0.1570927147E+00
    0.1900000000E+03    0.2587363992E+00    0.1534082015E+00    0.1773265787E-01    0.6364584613E-01    0.1665249022E+00
    0.2100000000E+03    0.2721833206E+00    0.1612102528E+00    0.1812682813E-01    0.6695727821E-01    0.1750437540E+00
    0.2300000000E+03    0.2844168265E+00    0.1682873069E+00    0.1842937530E-01    0.6997041741E-01    0.1827781032E+00
    0.2500000000E+03    0.2955970032E+00    0.1747371971E+00    0.1865785150E-01    0.7272459513E-01    0.1898334999E+00
    0.2700000000E+03    0.3058565023E+00    0.1806408273E+00    0.1882611751E-01    0.7525240416E-01    0.1962972564E+00
    0.2900000000E+03    0.3153062429E+00    0.1860656898E+00    0.1894520912E-01    0.7758109910E-01    0.2022422331E+00
    0.3100000000E+03    0.3240397393E+00    0.1910685396E+00    0.1902397846E-01    0.7973365917E-01    0.2077297181E+00
    0.3300000000E+03    0.3321364263E+00    0.1956974532E+00    0.1906957421E-01    0.8172960495E-01    0.2128116436E+00
    0.3500000000E+03    0.3396642446E+00    0.1999934302E+00    0.1908780515E-01    0.8358563339E-01    0.2175323111E+00
    0.3700000000E+03    0.3466816721E+00    0.2039916531E+00    0.1908341795E-01    0.8531611668E-01    0.2219297477E+00
    0.3900000000E+03    0.3532393354E+00    0.2077224857E+00    0.1906031131E-01    0.8693349808E-01    0.2260367827E+00
    0.4100000000E+03    0.3593813001E+00    0.2112122738E+00    0.1902170258E-01    0.8844860884E-01    0.2298819097E+00
    0.4300000000E+03    0.3651461118E+00    0.2144839902E+00    0.1897025819E-01    0.8987092404E-01    0.2334899817E+00
    0.4500000000E+03    0.3705676446E+00    0.2175577594E+00    0.1890819667E-01    0.9120877080E-01    0.2368827769E+00
    0.4700000000E+03    0.3756757946E+00    0.2204512872E+00    0.1883737041E-01    0.9246949888E-01    0.2400794623E+00
    0.4900000000E+03    0.3804970539E+00    0.2231802145E+00    0.1875933109E-01    0.9365962146E-01    0.2430969743E+00
    0.1000000000E+03    0.1767277318E+00    0.1053557049E+00    0.1404050423E-01    0.4346078149E-01    0.1141999587E+00
    0.3000000000E+03    0.3197572604E+00    0.1886166788E+00    0.1898915210E-01    0.7867810310E-01    0.2050397193E+00
    0.5000000000E+03    0.3828075663E+00    0.2244873495E+00    0.1871802236E-01    0.9423004151E-01    0.2445433024E+00
    0.7000000000E+03    0.4184976339E+00    0.2446465959E+00    0.1773782945E-01    0.1030484181E+00    0.2669441271E+00
    0.9000000000E+03    0.4414596525E+00    0.2576305525E+00    0.1672765976E-01    0.1087315568E+00    0.2814977616E+00
    0.1100000000E+04    0.4574572963E+00    0.2667216021E+00    0.1581334654E-01    0.1126977088E+00    0.2917745978E+00
    0.1300000000E+04    0.4692312856E+00    0.2734574030E+00    0.1500870039E-01    0.1156216740E+00    0.2994524029E+00
    0.1500000000E+04    0.4782526838E+00    0.2786564751E+00    0.1430282525E-01    0.1178658577E+00    0.3054269957E+00
    0.1700000000E+04    0.4853816684E+00    0.2827956096E+00    0.1368088487E-01    0.1196422919E+00    0.3102217568E+00
    0.1900000000E+04    0.4911545770E+00    0.2861718348E+00    0.1312924367E-01    0.1210832584E+00    0.3141637017E+00
    0.2100000000E+04    0.4959230325E+00    0.2889800872E+00    0.1263648337E-01    0.1222755309E+00    0.3174680739E+00
    0.2300000000E+04    0.4999270548E+00    0.2913537408E+00    0.1219330943E-01    0.1232783751E+00    0.3202825665E+00
    0.2500000000E+04    0.5033360194E+00    0.2933872107E+00    0.1179220410E-01    0.1241336372E+00    0.3227120302E+00
    0.2700000000E+04    0.5062728272E+00    0.2951492582E+00    0.1142707218E-01    0.1248716984E+00    0.3248330425E+00
    0.2900000000E+04    0.5088287965E+00    0.2966911797E+00    0.1109294161E-01    0.1255151456E+00    0.3267028915E+00
    0.3100000000E+04    0.5110731790E+00    0.2980520403E+00    0.1078572567E-01    0.1260811174E+00    0.3283653264E+00
    0.3300000000E+04    0.5130594354E+00    0.2992621272E+00    0.1050203826E-01    0.1265828518E+00    0.3298543600E+00
    0.3500000000E+04    0.5148294862E+00    0.3003452928E+00    0.1023905131E-01    0.1270307353E+00    0.3311968521E+00
    0.3700000000E+04    0.5164166610E+00    0.3013205836E+00    0.9994384616E-02    0.1274330305E+00    0.3324143089E+00
    0.3900000000E+04    0.5178477893E+00    0.3022033970E+00    0.9766020226E-02    0.1277963923E+00    0.3335241636E+00
    0.4100000000E+04    0.5191447083E+00    0.3030063183E+00    0.9552235563E-02    0.1281262404E+00    0.3345407033E+00
    0.4300000000E+04    0.5203253713E+00    0.3037397370E+00    0.9351550728E-02    0.1284270331E+00    0.3354757540E+00
    0.4500000000E+04    0.5214046727E+00    0.3044123072E+00    0.9162686668E-02    0.1287024713E+00    0.3363391928E+00
    0.4700000000E+04    0.5223950722E+00    0.3050312970E+00    0.8984531727E-02    0.1289556525E+00    0.3371393363E+00
    0.4900000000E+04    0.5233070721E+00    0.3056028560E+00    0.8816114687E-02    0.1291891893E+00    0.3378832399E+00
    0.1000000000E+04    0.4501158383E+00    0.2625427307E+00    0.1625661760E-01    0.1108767765E+00    0.2870400011E+00
    0.3000000000E+04    0.5099862823E+00    0.2973921757E+00    0.1093619551E-01    0.1258069113E+00    0.3275577166E+00
    0.5000000000E+04    0.5237365115E+00    0.3058725169E+00    0.8735287302E-02    0.1292992977E+00    0.3382360199E+00
    0.7000000000E+04    0.5297992686E+00    0.3097161096E+00    0.7469065644E-02    0.1308662792E+00    0.3434260422E+00
    0.9000000000E+04    0.5332031563E+00    0.3119016613E+00    0.6621910297E-02    0.1317612531E+00    0.3465768453E+00
    0.1100000000E+05    0.5353786511E+00    0.3133042223E+00    0.6004586935E-02    0.1323430082E+00    0.3487297208E+00
    0.1300000000E+05    0.5368869353E+00    0.3142750205E+00    0.5529231845E-02    0.1327531488E+00    0.3503132946E+00
    0.1500000000E+05    0.5379928716E+00    0.3149826847E+00    0.5148774153E-02    0.1330589045E+00    0.3515383482E+00
    0.1700000000E+05    0.5388376823E+00    0.3155183194E+00    0.4835429961E-02    0.1332963315E+00    0.3525214203E+00
    0.1900000000E+05    0.5395035150E+00    0.3159354692E+00    0.4571604777E-02    0.1334865255E+00    0.3533325581E+00
    0.2100000000E+05    0.5400413877E+00    0.3162676611E+00    0.4345544485E-02    0.1336426635E+00    0.3540165921E+00
    0.2300000000E+05    0.5404846470E+00    0.3165369516E+00    0.4149058896E-02    0.1337734079E+00    0.3546036543E+00
    0.2500000000E+05    0.5408560041E+00    0.3167584385E+00    0.3976243443E-02    0.1338846920E+00    0.3551148091E+00
    0.2700000000E+05    0.5411714570E+00    0.3169427994E+00    0.3822719898E-02    0.1339807193E+00    0.3555652654E+00
    0.2900000000E+05    0.5414425982E+00    0.3170977942E+00    0.3685164179E-02    0.1340645528E+00    0.3559663044E+00
    0.3100000000E+05    0.5416780318E+00    0.3172291946E+00    0.3561001183E-02    0.1341384789E+00    0.3563264876E+00
    0.3300000000E+05    0.5418842767E+00    0.3173413800E+00    0.3448201058E-02    0.1342042396E+00    0.3566524420E+00
    0.3500000000E+05    0.5420663618E+00    0.3174377309E+00    0.3345139324E-02    0.1342631863E+00    0.3569493850E+00
    0.3700000000E+05    0.5422282277E+00    0.3175208973E+00    0.3250498481E-02    0.1343163838E+00    0.3572214867E+00
    0.3900000000E+05    0.5423730058E+00    0.3175929840E+00    0.3163197300E-02    0.1343646830E+00    0.3574721243E+00
    0.4100000000E+05    0.5425032152E+00    0.3176556831E+00    0.3082339042E-02    0.1344087723E+00    0.3577040655E+00
    0.4300000000E+05    0.5426209056E+00    0.3177103697E+00    0.3007172905E-02    0.1344492148E+00    0.3579196022E+00
    0.4500000000E+05    0.5427277612E+00    0.3177581718E+00    0.2937064869E-02    0.1344864757E+00    0.3581206510E+00
    0.4700000000E+05    0.5428251786E+00    0.3178000231E+00    0.2871475357E-02    0.1345209432E+00    0.3583088280E+00
    0.4900000000E+05    0.5429143256E+00    0.3178367025E+00    0.2809941905E-02    0.1345529434E+00    0.3584855069E+00
    0.1000000000E+05    0.5343990176E+00    0.3126725206E+00    0.6291369826E-02    0.1320798361E+00    0.3477437167E+00
    0.3000000000E+05    0.5415643303E+00    0.3171661427E+00    0.3621546351E-02    0.1341026348E+00    0.3561510506E+00
    0.5000000000E+05    0.5429561114E+00    0.3178533115E+00    0.2780569358E-02    0.1345681062E+00    0.3585699088E+00
    0.7000000000E+05    0.5435311169E+00    0.3180286907E+00    0.2332852853E-02    0.1347910370E+00    0.3598675486E+00
    0.9000000000E+05    0.5438383873E+00    0.3180537618E+00    0.2044965774E-02    0.1349276337E+00    0.3607235747E+00
    0.1100000000E+06    0.5440261237E+00    0.3180213176E+00    0.1840291165E-02    0.1350226052E+00    0.3613509309E+00
    0.1300000000E+06    0.5441506796E+00    0.3179642292E+00    0.1685340459E-02    0.1350939039E+00    0.3618409376E+00
    0.1500000000E+06    0.5442380426E+00    0.3178963602E+00    0.1562862238E-02    0.1351502505E+00    0.3622403182E+00
    0.1700000000E+06    0.5443018041E+00    0.3178242099E+00    0.1462953767E-02    0.1351964405E+00    0.3625758862E+00
    0.1900000000E+06    0.5443497360E+00    0.3177510286E+00    0.1379474554E-02    0.1352353528E+00    0.3628643291E+00
    0.2100000000E+06    0.5443865890E+00    0.3176784990E+00    0.1308389608E-02    0.1352688327E+00    0.3631166792E+00
    0.2300000000E+06    0.5444154220E+00    0.3176074969E+00    0.1246924693E-02    0.1352981246E+00    0.3633405799E+00
    0.2500000000E+06    0.5444382879E+00    0.3175384633E+00    0.1193101771E-02    0.1353241025E+00    0.3635415287E+00
    0.2700000000E+06    0.5444566128E+00    0.3174715973E+00    0.1145467744E-02    0.1353474009E+00    0.3637236018E+00
    0.2900000000E+06    0.5444714154E+00    0.3174069616E+00    0.1102928137E-02    0.1353684934E+00    0.3638898999E+00
    0.3100000000E+06    0.5444834413E+00    0.3173445407E+00    0.1064640927E-02    0.1353877419E+00    0.3640428322E+00
    0.3300000000E+06    0.5444932478E+00    0.3172842757E+00    0.1029946380E-02    0.1354054284E+00    0.3641843061E+00
    0.3500000000E+06    0.5445012587E+00    0.3172260843E+00    0.9983193358E-03    0.1354217766E+00    0.3643158553E+00
    0.3700000000E+06    0.5445078015E+00    0.3171698725E+00    0.9693358955E-03    0.1354369666E+00    0.3644387308E+00
    0.3900000000E+06    0.5445131328E+00    0.3171155422E+00    0.9426496634E-03    0.1354511452E+00    0.3645539652E+00
    0.4100000000E+06    0.5445174563E+00    0.3170629953E+00    0.9179744557E-03    0.1354644339E+00    0.3646624203E+00
    0.4300000000E+06    0.5445209351E+00    0.3170121365E+00    0.8950714989E-03    0.1354769338E+00    0.3647648226E+00
    0.4500000000E+06    0.5445237015E+00    0.3169628743E+00    0.8737398016E-03    0.1354887303E+00    0.3648617897E+00
    0.4700000000E+06    0.5445258636E+00    0.3169151220E+00    0.8538088116E-03    0.1354998958E+00    0.3649538508E+00
    0.4900000000E+06    0.5445275102E+00    0.3168687978E+00    0.8351327431E-03    0.1355104922E+00    0.3650414627E+00
    0.1000000000E+06    0.5439426046E+00    0.3180419938E+00    0.1934870736E-02    0.1349788796E+00    0.3610586066E+00
    0.3000000000E+06    0.5444777370E+00    0.3173754772E+00    0.1083297843E-02    0.1353783289E+00    0.3639679075E+00
    0.5000000000E+06    0.5445281639E+00    0.3168461472E+00    0.8262254072E-03    0.1355155941E+00    0.3650837262E+00
    0.7000000000E+06    0.5445268479E+00    0.3164520746E+00    0.6910321636E-03    0.1355975956E+00    0.3657692410E+00
    0.9000000000E+06    0.5445135425E+00    0.3161398180E+00    0.6046388035E-03    0.1356558488E+00    0.3662616342E+00
    0.1100000000E+07    0.5444971119E+00    0.3158813873E+00    0.5434517059E-03    0.1357009558E+00    0.3666447939E+00
    0.1300000000E+07    0.5444802358E+00    0.3156609267E+00    0.4972509906E-03    0.1357377332E+00    0.3669578893E+00
    0.1500000000E+07    0.5444638304E+00    0.3154686641E+00    0.4608027343E-03    0.1357687673E+00    0.3672223100E+00
    0.1700000000E+07    0.5444482056E+00    0.3152981667E+00    0.4311150478E-03    0.1357956044E+00    0.3674509911E+00
    0.1900000000E+07    0.5444334399E+00    0.3151449790E+00    0.4063385472E-03    0.1358192419E+00    0.3676523399E+00
    0.2100000000E+07    0.5444195196E+00    0.3150058883E+00    0.3852609780E-03    0.1358403598E+00    0.3678321234E+00
    0.2300000000E+07    0.5444063954E+00    0.3148785019E+00    0.3670505249E-03    0.1358594427E+00    0.3679944658E+00
    0.2500000000E+07    0.5443940063E+00    0.3147609901E+00    0.3511150816E-03    0.1358768478E+00    0.3681424173E+00
    0.2700000000E+07    0.5443822900E+00    0.3146519222E+00    0.3370202829E-03    0.1358928459E+00    0.3682782960E+00
    0.2900000000E+07    0.5443711875E+00    0.3145501580E+00    0.3244393564E-03    0.1359076474E+00    0.3684039041E+00
    0.3100000000E+07    0.5443606446E+00    0.3144547744E+00    0.3131211617E-03    0.1359214186E+00    0.3685206702E+00
    0.3300000000E+07    0.5443506124E+00    0.3143650133E+00    0.3028691079E-03    0.1359342935E+00    0.3686297455E+00
    0.3500000000E+07    0.5443410472E+00    0.3142802445E+00    0.2935268292E-03    0.1359463817E+00    0.3687320711E+00
    0.3700000000E+07    0.5443319100E+00    0.3141999386E+00    0.2849682016E-03    0.1359577737E+00    0.3688284262E+00
    0.3900000000E+07    0.5443231659E+00    0.3141236460E+00    0.2770902267E-03    0.1359685453E+00    0.3689194628E+00
    0.4100000000E+07    0.5443147839E+00    0.3140509824E+00    0.2698078592E-03    0.1359787606E+00    0.3690057324E+00
    0.4300000000E+07    0.5443067364E+00    0.3139816161E+00    0.2630501803E-03    0.1359884742E+00    0.3690877049E+00
    0.4500000000E+07    0.5442989984E+00    0.3139152591E+00    0.2567575217E-03    0.1359977331E+00    0.3691657846E+00
    0.4700000000E+07    0.5442915478E+00    0.3138516595E+00    0.2508792740E-03    0.1360065780E+00    0.3692403213E+00
    0.4900000000E+07    0.5442843644E+00    0.3137905960E+00    0.2453721944E-03    0.1360150442E+00    0.3693116200E+00
    0.1000000000E+07    0.5445054849E+00    0.3160050554E+00    0.5717027955E-03    0.1356796696E+00    0.3664638280E+00
    0.3000000000E+07    0.5443658493E+00    0.3145017194E+00    0.3186357893E-03    0.1359146527E+00    0.3684633148E+00
    0.5000000000E+07    0.5442808672E+00    0.3137609533E+00    0.2427460124E-03    0.1360191453E+00    0.3693461400E+00
    0.7000000000E+07    0.5442213774E+00    0.3132637763E+00    0.2029139409E-03    0.1360871647E+00    0.3699170497E+00
    0.9000000000E+07    0.5441756830E+00    0.3128886591E+00    0.1774856416E-03    0.1361376884E+00    0.3703390896E+00
    0.1100000000E+08    0.5441385994E+00    0.3125871778E+00    0.1594878665E-03    0.1361779022E+00    0.3706737857E+00
    0.1300000000E+08    0.5441073974E+00    0.3123350390E+00    0.1459043162E-03    0.1362113106E+00    0.3709510356E+00
    0.1500000000E+08    0.5440804669E+00    0.3121182994E+00    0.1351916816E-03    0.1362398882E+00    0.3711876302E+00
    0.1700000000E+08    0.5440567789E+00    0.3119282073E+00    0.1264683448E-03    0.1362648579E+00    0.3713939400E+00
    0.1900000000E+08    0.5440356364E+00    0.3117589062E+00    0.1191896271E-03    0.1362870300E+00    0.3715768189E+00
    0.2100000000E+08    0.5440165451E+00    0.3116062826E+00    0.1129986412E-03    0.1363069692E+00    0.3717410323E+00
    0.2300000000E+08    0.5439991420E+00    0.3114673360E+00    0.1076505821E-03    0.1363250846E+00    0.3718900273E+00
    0.2500000000E+08    0.5439831527E+00    0.3113398100E+00    0.1029712399E-03    0.1363416823E+00    0.3720263777E+00
    0.2700000000E+08    0.5439683646E+00    0.3112219651E+00    0.9883284542E-04    0.1363569974E+00    0.3721520559E+00
