  Pressure (Pa) 22mC5-400 (mol/kg) 3mC6-400 (mol/kg) 33mC5-400 (mol/kg) 23mC5-400 (mol/kg) C7-400 (mol/kg)
    0.1000000000E+01    0.2652450714E-02    0.4213200135E-02    0.2585761442E-03    0.9314822629E-04    0.3418410661E-02
    0.3000000000E+01    0.7889627148E-02    0.1235534223E-01    0.7572816987E-03    0.2770684140E-03    0.1002568347E-01
    0.5000000000E+01    0.1303847166E-01    0.2013938117E-01    0.1232677297E-02    0.4578892837E-03    0.1634374877E-01
    0.7000000000E+01    0.1810127394E-01    0.2758850893E-01    0.1686193077E-02    0.6356911524E-03    0.2239130658E-01
    0.9000000000E+01    0.2308024460E-01    0.3472395544E-01    0.2119142492E-02    0.8105515636E-03    0.2818547621E-01
    0.1100000000E+02    0.2797751855E-01    0.4156519186E-01    0.2532734233E-02    0.9825454055E-03    0.3374195988E-01
    0.1300000000E+02    0.3279515819E-01    0.4813010903E-01    0.2928082702E-02    0.1151745024E-02    0.3907518644E-01
    0.1500000000E+02    0.3753515647E-01    0.5443517466E-01    0.3306217236E-02    0.1318220327E-02    0.4419843797E-01
    0.1700000000E+02    0.4219943977E-01    0.6049557206E-01    0.3668090258E-02    0.1482038890E-02    0.4912396157E-01
    0.1900000000E+02    0.4678987067E-01    0.6632532305E-01    0.4014584499E-02    0.1643266051E-02    0.5386306824E-01
    0.2100000000E+02    0.5130825055E-01    0.7193739695E-01    0.4346519401E-02    0.1801964999E-02    0.5842622075E-01
    0.2300000000E+02    0.5575632209E-01    0.7734380751E-01    0.4664656829E-02    0.1958196866E-02    0.6282311174E-01
    0.2500000000E+02    0.6013577164E-01    0.8255569941E-01    0.4969706159E-02    0.2112020807E-02    0.6706273328E-01
    0.2700000000E+02    0.6444823145E-01    0.8758342543E-01    0.5262328829E-02    0.2263494082E-02    0.7115343917E-01
    0.2900000000E+02    0.6869528186E-01    0.9243661561E-01    0.5543142414E-02    0.2412672127E-02    0.7510300056E-01
    0.3100000000E+02    0.7287845332E-01    0.9712423922E-01    0.5812724296E-02    0.2559608631E-02    0.7891865596E-01
    0.3300000000E+02    0.7699922834E-01    0.1016546606E+00    0.6071614953E-02    0.2704355599E-02    0.8260715609E-01
    0.3500000000E+02    0.8105904337E-01    0.1060356891E+00    0.6320320930E-02    0.2846963423E-02    0.8617480436E-01
    0.3700000000E+02    0.8505929056E-01    0.1102746247E+00    0.6559317528E-02    0.2987480939E-02    0.8962749334E-01
    0.3900000000E+02    0.8900131946E-01    0.1143782987E+00    0.6789051225E-02    0.3125955491E-02    0.9297073772E-01
    0.4100000000E+02    0.9288643865E-01    0.1183531107E+00    0.7009941881E-02    0.3262432982E-02    0.9620970413E-01
    0.4300000000E+02    0.9671591724E-01    0.1222050624E+00    0.7222384737E-02    0.3396957937E-02    0.9934923822E-01
    0.4500000000E+02    0.1004909864E+00    0.1259397878E+00    0.7426752231E-02    0.3529573544E-02    0.1023938892E+00
    0.4700000000E+02    0.1042128408E+00    0.1295625812E+00    0.7623395653E-02    0.3660321712E-02    0.1053479323E+00
    0.4900000000E+02    0.1078826397E+00    0.1330784224E+00    0.7812646658E-02    0.3789243114E-02    0.1082153889E+00
    0.1000000000E+02    0.2553896310E-01    0.3818019663E-01    0.2328286326E-02    0.8969022258E-03    0.3099249870E-01
    0.3000000000E+02    0.7079475870E-01    0.9480058690E-01    0.5679302710E-02    0.2486417283E-02    0.7702713365E-01
    0.5000000000E+02    0.1096983714E+00    0.1347977116E+00    0.7904598621E-02    0.3853031162E-02    0.1096178392E+00
    0.7000000000E+02    0.1435374242E+00    0.1645729212E+00    0.9423218013E-02    0.5041914436E-02    0.1339323832E+00
    0.9000000000E+02    0.1732699172E+00    0.1876119762E+00    0.1047204388E-01    0.6086675897E-02    0.1527869265E+00
    0.1100000000E+03    0.1996235204E+00    0.2059758080E+00    0.1119588591E-01    0.7012845022E-02    0.1678477566E+00
    0.1300000000E+03    0.2231610729E+00    0.2209613460E+00    0.1168840759E-01    0.7840169293E-02    0.1801642413E+00
    0.1500000000E+03    0.2443249570E+00    0.2334257119E+00    0.1201279655E-01    0.8584170605E-02    0.1904304095E+00
    0.1700000000E+03    0.2634678732E+00    0.2439582046E+00    0.1221308085E-01    0.9257224734E-02    0.1991237830E+00
    0.1900000000E+03    0.2808746331E+00    0.2529774096E+00    0.1232072712E-01    0.9869325787E-02    0.2065838020E+00
    0.2100000000E+03    0.2967778833E+00    0.2607888951E+00    0.1235868579E-01    0.1042863774E-01    0.2130584413E+00
    0.2300000000E+03    0.3113696412E+00    0.2676209806E+00    0.1234397417E-01    0.1094189914E-01    0.2187331229E+00
    0.2500000000E+03    0.3248098895E+00    0.2736477219E+00    0.1228938199E-01    0.1141472457E-01    0.2237493044E+00
    0.2700000000E+03    0.3372330678E+00    0.2790041462E+00    0.1220462941E-01    0.1185183239E-01    0.2282168040E+00
    0.2900000000E+03    0.3487530394E+00    0.2837966235E+00    0.1209717204E-01    0.1225721899E-01    0.2322221964E+00
    0.3100000000E+03    0.3594669346E+00    0.2881100958E+00    0.1197277191E-01    0.1263429361E-01    0.2358346661E+00
    0.3300000000E+03    0.3694581586E+00    0.2920132210E+00    0.1183590951E-01    0.1298598388E-01    0.2391101747E+00
    0.3500000000E+03    0.3787987674E+00    0.2955621022E+00    0.1169008568E-01    0.1331481918E-01    0.2420944839E+00
    0.3700000000E+03    0.3875513630E+00    0.2988030359E+00    0.1153804569E-01    0.1362299713E-01    0.2448253836E+00
    0.3900000000E+03    0.3957706175E+00    0.3017745680E+00    0.1138194754E-01    0.1391243705E-01    0.2473343598E+00
    0.4100000000E+03    0.4035045085E+00    0.3045090530E+00    0.1122348968E-01    0.1418482334E-01    0.2496478599E+00
    0.4300000000E+03    0.4107953291E+00    0.3070338509E+00    0.1106400883E-01    0.1444164086E-01    0.2517882650E+00
    0.4500000000E+03    0.4176805174E+00    0.3093722570E+00    0.1090455552E-01    0.1468420413E-01    0.2537746444E+00
    0.4700000000E+03    0.4241933442E+00    0.3115442303E+00    0.1074595282E-01    0.1491368136E-01    0.2556233481E+00
    0.4900000000E+03    0.4303634852E+00    0.3135669713E+00    0.1058884237E-01    0.1513111460E-01    0.2573484766E+00
    0.1000000000E+03    0.1868306402E+00    0.1972841533E+00    0.1086783977E-01    0.6563235842E-02    0.1607154019E+00
    0.3000000000E+03    0.3542052425E+00    0.2860086118E+00    0.1203678373E-01    0.1244910210E-01    0.2340737791E+00
    0.5000000000E+03    0.4333284589E+00    0.3145271161E+00    0.1051100674E-01    0.1523561006E-01    0.2581685852E+00
    0.7000000000E+03    0.4798135658E+00    0.3286427250E+00    0.9103006074E-02    0.1687500974E-01    0.2703398939E+00
    0.9000000000E+03    0.5104383513E+00    0.3370719540E+00    0.7999738432E-02    0.1795657024E-01    0.2777528997E+00
    0.1100000000E+04    0.5321276443E+00    0.3426732535E+00    0.7144590105E-02    0.1872362641E-01    0.2827749714E+00
    0.1300000000E+04    0.5482826857E+00    0.3466627404E+00    0.6471615567E-02    0.1929575447E-01    0.2864205078E+00
    0.1500000000E+04    0.5607735667E+00    0.3496462320E+00    0.5931413673E-02    0.1973873226E-01    0.2891983519E+00
    0.1700000000E+04    0.5707143046E+00    0.3519596325E+00    0.5489377797E-02    0.2009176245E-01    0.2913925611E+00
    0.1900000000E+04    0.5788098108E+00    0.3538042686E+00    0.5121348791E-02    0.2037966288E-01    0.2931745292E+00
    0.2100000000E+04    0.5855277525E+00    0.3553081825E+00    0.4810225825E-02    0.2061890646E-01    0.2946539833E+00
    0.2300000000E+04    0.5911904953E+00    0.3565567076E+00    0.4543676021E-02    0.2082085341E-01    0.2959045302E+00
    0.2500000000E+04    0.5960273828E+00    0.3576089095E+00    0.4312631294E-02    0.2099358960E-01    0.2969774498E+00
    0.2700000000E+04    0.6002059755E+00    0.3585069725E+00    0.4110299377E-02    0.2114302542E-01    0.2979096019E+00
    0.2900000000E+04    0.6038515062E+00    0.3592818278E+00    0.3931504377E-02    0.2127358029E-01    0.2987281868E+00
    0.3100000000E+04    0.6070594260E+00    0.3599566711E+00    0.3772239461E-02    0.2138862421E-01    0.2994537317E+00
    0.3300000000E+04    0.6099037445E+00    0.3605492369E+00    0.3629357936E-02    0.2149077140E-01    0.3001020307E+00
    0.3500000000E+04    0.6124427183E+00    0.3610733161E+00    0.3500356089E-02    0.2158208057E-01    0.3006854426E+00
    0.3700000000E+04    0.6147228228E+00    0.3615397933E+00    0.3383217954E-02    0.2166419491E-01    0.3012137829E+00
    0.3900000000E+04    0.6167815812E+00    0.3619573735E+00    0.3276302582E-02    0.2173844169E-01    0.3016949506E+00
    0.4100000000E+04    0.6186496174E+00    0.3623331012E+00    0.3178260967E-02    0.2180590464E-01    0.3021353772E+00
    0.4300000000E+04    0.6203521687E+00    0.3626727374E+00    0.3087973975E-02    0.2186747730E-01    0.3025403554E+00
    0.4500000000E+04    0.6219102185E+00    0.3629810392E+00    0.3004505396E-02    0.2192390294E-01    0.3029142820E+00
    0.4700000000E+04    0.6233413545E+00    0.3632619685E+00    0.2927065997E-02    0.2197580484E-01    0.3032608415E+00
    0.4900000000E+04    0.6246604278E+00    0.3635188515E+00    0.2854985709E-02    0.2202370954E-01    0.3035831462E+00
    0.1000000000E+04    0.5221373791E+00    0.3401292364E+00    0.7545617077E-02    0.1837018208E-01    0.2804821625E+00
    0.3000000000E+04    0.6055051162E+00    0.3596305352E+00    0.3849644580E-02    0.2133286272E-01    0.2991015088E+00
    0.5000000000E+04    0.6252819620E+00    0.3636391720E+00    0.2820772970E-02    0.2204630556E-01    0.3037360460E+00
    0.7000000000E+04    0.6340870379E+00    0.3652818739E+00    0.2314548871E-02    0.2236852632E-01    0.3059953553E+00
    0.9000000000E+04    0.6390595048E+00    0.3661357921E+00    0.2003497098E-02    0.2255306573E-01    0.3073862883E+00
    0.1100000000E+05    0.6422519745E+00    0.3666367199E+00    0.1788640415E-02    0.2267319561E-01    0.3083531280E+00
    0.1300000000E+05    0.6444741462E+00    0.3669519801E+00    0.1629153329E-02    0.2275796313E-01    0.3090771392E+00
    0.1500000000E+05    0.6461095486E+00    0.3671589851E+00    0.1504865012E-02    0.2282119402E-01    0.3096472388E+00
    0.1700000000E+05    0.6473632203E+00    0.3672981958E+00    0.1404552857E-02    0.2287031526E-01    0.3101126320E+00
    0.1900000000E+05    0.6483546861E+00    0.3673926702E+00    0.1321423645E-02    0.2290967700E-01    0.3105029796E+00
    0.2100000000E+05    0.6491583132E+00    0.3674564268E+00    0.1251097882E-02    0.2294199871E-01    0.3108373435E+00
    0.2300000000E+05    0.6498227899E+00    0.3674984273E+00    0.1190610624E-02    0.2296906920E-01    0.3111285993E+00
    0.2500000000E+05    0.6503813250E+00    0.3675246352E+00    0.1137874588E-02    0.2299211432E-01    0.3113857971E+00
    0.2700000000E+05    0.6508573443E+00    0.3675391509E+00    0.1091372648E-02    0.2301200280E-01    0.3116155095E+00
    0.2900000000E+05    0.6512678452E+00    0.3675448713E+00    0.1049972357E-02    0.2302936793E-01    0.3118226413E+00
    0.3100000000E+05    0.6516254591E+00    0.3675438907E+00    0.1012809172E-02    0.2304468249E-01    0.3120109377E+00
    0.3300000000E+05    0.6519397687E+00    0.3675377527E+00    0.9792102250E-03    0.2305830682E-01    0.3121833157E+00
    0.3500000000E+05    0.6522181745E+00    0.3675276144E+00    0.9486430055E-03    0.2307052045E-01    0.3123420865E+00
    0.3700000000E+05    0.6524664830E+00    0.3675143555E+00    0.9206798770E-03    0.2308154373E-01    0.3124891088E+00
    0.3900000000E+05    0.6526893132E+00    0.3674986536E+00    0.8949729669E-03    0.2309155274E-01    0.3126258971E+00
    0.4100000000E+05    0.6528903858E+00    0.3674810364E+00    0.8712360271E-03    0.2310068993E-01    0.3127537004E+00
    0.4300000000E+05    0.6530727311E+00    0.3674619186E+00    0.8492310902E-03    0.2310907187E-01    0.3128735594E+00
    0.4500000000E+05    0.6532388418E+00    0.3674416291E+00    0.8287584925E-03    0.2311679487E-01    0.3129863494E+00
    0.4700000000E+05    0.6533907877E+00    0.3674204304E+00    0.8096493043E-03    0.2312393925E-01    0.3130928129E+00
    0.4900000000E+05    0.6535303012E+00    0.3673985337E+00    0.7917595104E-03    0.2313057255E-01    0.3131935849E+00
    0.1000000000E+05    0.6408127534E+00    0.3664167616E+00    0.1887308717E-02    0.2261883563E-01    0.3079081947E+00
    0.3000000000E+05    0.6514526045E+00    0.3675451115E+00    0.1030906977E-02    0.2303725681E-01    0.3119189452E+00
    0.5000000000E+05    0.6535958615E+00    0.3673873783E+00    0.7832325590E-03    0.2313371576E-01    0.3132420105E+00
    0.7000000000E+05    0.6545125214E+00    0.3671553562E+00    0.6541996988E-03    0.2317993784E-01    0.3140118787E+00
    0.9000000000E+05    0.6550200607E+00    0.3669342739E+00    0.5720685981E-03    0.2320826893E-01    0.3145490400E+00
    0.1100000000E+06    0.6553417984E+00    0.3667344582E+00    0.5140223547E-03    0.2322797148E-01    0.3149595199E+00
    0.1300000000E+06    0.6555636296E+00    0.3665549294E+00    0.4702486443E-03    0.2324276576E-01    0.3152908035E+00
    0.1500000000E+06    0.6557256168E+00    0.3663929100E+00    0.4357435127E-03    0.2325445934E-01    0.3155680773E+00
    0.1700000000E+06    0.6558489515E+00    0.3662456947E+00    0.4076544204E-03    0.2326404637E-01    0.3158062457E+00
    0.1900000000E+06    0.6559458902E+00    0.3661109981E+00    0.3842215136E-03    0.2327212375E-01    0.3160148340E+00
    0.2100000000E+06    0.6560240119E+00    0.3659869579E+00    0.3642928481E-03    0.2327907412E-01    0.3162002884E+00
    0.2300000000E+06    0.6560882535E+00    0.3658720666E+00    0.3470788339E-03    0.2328515556E-01    0.3163671684E+00
    0.2500000000E+06    0.6561419681E+00    0.3657650986E+00    0.3320178876E-03    0.2329054934E-01    0.3165188148E+00
    0.2700000000E+06    0.6561875122E+00    0.3656650502E+00    0.3186983073E-03    0.2329538707E-01    0.3166577467E+00
    0.2900000000E+06    0.6562265900E+00    0.3655710918E+00    0.3068105348E-03    0.2329976702E-01    0.3167859098E+00
    0.3100000000E+06    0.6562604641E+00    0.3654825314E+00    0.2961167643E-03    0.2330376423E-01    0.3169048372E+00
    0.3300000000E+06    0.6562900901E+00    0.3653987867E+00    0.2864309104E-03    0.2330743724E-01    0.3170157582E+00
    0.3500000000E+06    0.6563162038E+00    0.3653193634E+00    0.2776050088E-03    0.2331083245E-01    0.3171196731E+00
    0.3700000000E+06    0.6563393813E+00    0.3652438390E+00    0.2695197428E-03    0.2331398722E-01    0.3172174067E+00
    0.3900000000E+06    0.6563600798E+00    0.3651718493E+00    0.2620776948E-03    0.2331693204E-01    0.3173096471E+00
    0.4100000000E+06    0.6563786669E+00    0.3651030788E+00    0.2551984428E-03    0.2331969211E-01    0.3173969738E+00
    0.4300000000E+06    0.6563954412E+00    0.3650372518E+00    0.2488149343E-03    0.2332228842E-01    0.3174798798E+00
    0.4500000000E+06    0.6564106480E+00    0.3649741267E+00    0.2428707622E-03    0.2332473867E-01    0.3175587878E+00
    0.4700000000E+06    0.6564244905E+00    0.3649134902E+00    0.2373180888E-03    0.2332705791E-01    0.3176340627E+00
    0.4900000000E+06    0.6564371386E+00    0.3648551532E+00    0.2321160446E-03    0.2332925900E-01    0.3177060220E+00
    0.1000000000E+06    0.6551971750E+00    0.3668316826E+00    0.5408120262E-03    0.2321889976E-01    0.3147663954E+00
    0.3000000000E+06    0.6562441118E+00    0.3655261755E+00    0.3013270579E-03    0.2330180948E-01    0.3168464450E+00
    0.5000000000E+06    0.6564430603E+00    0.3648267938E+00    0.2296353283E-03    0.2333031878E-01    0.3177408465E+00
    0.7000000000E+06    0.6565239590E+00    0.3643477060E+00    0.1920086368E-03    0.2334735350E-01    0.3183155550E+00
    0.9000000000E+06    0.6565664776E+00    0.3639827301E+00    0.1679856549E-03    0.2335945597E-01    0.3187392483E+00
    0.1100000000E+07    0.6565919865E+00    0.3636877180E+00    0.1509802999E-03    0.2336882769E-01    0.3190747813E+00
    0.1300000000E+07    0.6566085707E+00    0.3634400469E+00    0.1381440948E-03    0.2337646903E-01    0.3193524992E+00
    0.1500000000E+07    0.6566199409E+00    0.3632265630E+00    0.1280196190E-03    0.2338291718E-01    0.3195893765E+00
    0.1700000000E+07    0.6566280287E+00    0.3630389370E+00    0.1197742941E-03    0.2338849337E-01    0.3197958697E+00
    0.1900000000E+07    0.6566339333E+00    0.3628715589E+00    0.1128937139E-03    0.2339340475E-01    0.3199788761E+00
    0.2100000000E+07    0.6566383233E+00    0.3627204689E+00    0.1070408072E-03    0.2339779265E-01    0.3201431847E+00
    0.2300000000E+07    0.6566416272E+00    0.3625827674E+00    0.1019843478E-03    0.2340175773E-01    0.3202922562E+00
    0.2500000000E+07    0.6566441308E+00    0.3624562671E+00    0.9755977865E-04    0.2340537419E-01    0.3204286722E+00
    0.2700000000E+07    0.6566460318E+00    0.3623392771E+00    0.9364640298E-04    0.2340869832E-01    0.3205544100E+00
    0.2900000000E+07    0.6566474705E+00    0.3622304631E+00    0.9015343385E-04    0.2341177379E-01    0.3206710173E+00
    0.3100000000E+07    0.6566485491E+00    0.3621287535E+00    0.8701110553E-04    0.2341463519E-01    0.3207797283E+00
    0.3300000000E+07    0.6566493434E+00    0.3620332748E+00    0.8416481145E-04    0.2341731037E-01    0.3208815428E+00
    0.3500000000E+07    0.6566499107E+00    0.3619433056E+00    0.8157112203E-04    0.2341982206E-01    0.3209772824E+00
    0.3700000000E+07    0.6566502952E+00    0.3618582430E+00    0.7919500972E-04    0.2342218910E-01    0.3210676301E+00
    0.3900000000E+07    0.6566505310E+00    0.3617775779E+00    0.7700787135E-04    0.2342442722E-01    0.3211531599E+00
    0.4100000000E+07    0.6566506452E+00    0.3617008770E+00    0.7498609073E-04    0.2342654976E-01    0.3212343589E+00
    0.4300000000E+07    0.6566506593E+00    0.3616277678E+00    0.7310997537E-04    0.2342856805E-01    0.3213116439E+00
    0.4500000000E+07    0.6566505904E+00    0.3615579281E+00    0.7136295750E-04    0.2343049185E-01    0.3213853743E+00
    0.4700000000E+07    0.6566504526E+00    0.3614910773E+00    0.6973098520E-04    0.2343232962E-01    0.3214558623E+00
    0.4900000000E+07    0.6566502574E+00    0.3614269695E+00    0.6820205235E-04    0.2343408873E-01    0.3215233806E+00
    0.1000000000E+07    0.6565806985E+00    0.3638281988E+00    0.1588311374E-03    0.2336440509E-01    0.3189156975E+00
    0.3000000000E+07    0.6566480495E+00    0.3621787788E+00    0.8854215395E-04    0.2341322937E-01    0.3207262926E+00
    0.5000000000E+07    0.6566501412E+00    0.3613958755E+00    0.6747294120E-04    0.2343494083E-01    0.3215561022E+00
    0.7000000000E+07    0.6566463879E+00    0.3608766943E+00    0.5641388953E-04    0.2344907360E-01    0.3221001181E+00
    0.9000000000E+07    0.6566417409E+00    0.3604874874E+00    0.4935327137E-04    0.2345957094E-01    0.3225054251E+00
    0.1100000000E+08    0.6566371565E+00    0.3601759704E+00    0.4435538437E-04    0.2346792602E-01    0.3228285338E+00
    0.1300000000E+08    0.6566328562E+00    0.3599161971E+00    0.4058295498E-04    0.2347486704E-01    0.3230972081E+00
    0.1500000000E+08    0.6566288762E+00    0.3596933835E+00    0.3760758093E-04    0.2348080427E-01    0.3233271613E+00
    0.1700000000E+08    0.6566252000E+00    0.3594982998E+00    0.3518452948E-04    0.2348599185E-01    0.3235281550E+00
    0.1900000000E+08    0.6566217981E+00    0.3593247943E+00    0.3316259502E-04    0.2349059814E-01    0.3237066705E+00
    0.2100000000E+08    0.6566186393E+00    0.3591685604E+00    0.3144269990E-04    0.2349474046E-01    0.3238672308E+00
    0.2300000000E+08    0.6566156951E+00    0.3590264654E+00    0.2995687951E-04    0.2349850384E-01    0.3240131185E+00
    0.2500000000E+08    0.6566129407E+00    0.3588961585E+00    0.2865676641E-04    0.2350195190E-01    0.3241467907E+00
    0.2700000000E+08    0.6566103545E+00    0.3587758311E+00    0.2750688552E-04    0.2350513343E-01    0.3242701352E+00
