  Pressure (Pa) 22mC5-400 (mol/kg) 3mC6-400 (mol/kg) 33mC5-400 (mol/kg) 23mC5-400 (mol/kg) C7-400 (mol/kg)
    0.1000000000E+01    0.2651769721E-02    0.1052601883E-02    0.5168085006E-03    0.9312432292E-04    0.6832310027E-02
    0.3000000000E+01    0.7883635968E-02    0.3082848150E-02    0.1511613391E-02    0.2768581177E-03    0.2001267464E-01
    0.5000000000E+01    0.1302220076E-01    0.5018979567E-02    0.2457533718E-02    0.4573181547E-03    0.3258496092E-01
    0.7000000000E+01    0.1807008913E-01    0.6867431435E-02    0.3357741792E-02    0.6345965186E-03    0.4459068145E-01
    0.9000000000E+01    0.2302982727E-01    0.8634064510E-02    0.4215136510E-02    0.8087818265E-03    0.5606764550E-01
    0.1100000000E+02    0.2790384709E-01    0.1032422774E-01    0.5032372790E-02    0.9799593894E-03    0.6705036327E-01
    0.1300000000E+02    0.3269449061E-01    0.1194281298E-01    0.5811887254E-02    0.1148211364E-02    0.7757039822E-01
    0.1500000000E+02    0.3740401399E-01    0.1349430278E-01    0.6555920694E-02    0.1313616897E-02    0.8765667526E-01
    0.1700000000E+02    0.4203459150E-01    0.1498281236E-01    0.7266537783E-02    0.1476252262E-02    0.9733575104E-01
    0.1900000000E+02    0.4658831914E-01    0.1641212651E-01    0.7945644426E-02    0.1636190988E-02    0.1066320516E+00
    0.2100000000E+02    0.5106721814E-01    0.1778573207E-01    0.8595003074E-02    0.1793503979E-02    0.1155680822E+00
    0.2300000000E+02    0.5547323827E-01    0.1910684676E-01    0.9216246269E-02    0.1948259637E-02    0.1241646124E+00
    0.2500000000E+02    0.5980826095E-01    0.2037844463E-01    0.9810888668E-02    0.2100523961E-02    0.1324408404E+00
    0.2700000000E+02    0.6407410221E-01    0.2160327872E-01    0.1038033773E-01    0.2250360660E-02    0.1404145392E+00
    0.2900000000E+02    0.6827251552E-01    0.2278390122E-01    0.1092590326E-01    0.2397831249E-02    0.1481021867E+00
    0.3100000000E+02    0.7240519447E-01    0.2392268149E-01    0.1144880589E-01    0.2542995141E-02    0.1555190812E+00
    0.3300000000E+02    0.7647377527E-01    0.2502182215E-01    0.1195018476E-01    0.2685909735E-02    0.1626794456E+00
    0.3500000000E+02    0.8047983916E-01    0.2608337350E-01    0.1243110430E-01    0.2826630506E-02    0.1695965203E+00
    0.3700000000E+02    0.8442491475E-01    0.2710924645E-01    0.1289256042E-01    0.2965211080E-02    0.1762826466E+00
    0.3900000000E+02    0.8831048014E-01    0.2810122424E-01    0.1333548607E-01    0.3101703310E-02    0.1827493419E+00
    0.4100000000E+02    0.9213796500E-01    0.2906097286E-01    0.1376075619E-01    0.3236157353E-02    0.1890073675E+00
    0.4300000000E+02    0.9590875255E-01    0.2999005061E-01    0.1416919230E-01    0.3368621736E-02    0.1950667895E+00
    0.4500000000E+02    0.9962418144E-01    0.3088991663E-01    0.1456156656E-01    0.3499143422E-02    0.2009370345E+00
    0.4700000000E+02    0.1032855475E+00    0.3176193866E-01    0.1493860549E-01    0.3627767872E-02    0.2066269391E+00
    0.4900000000E+02    0.1068941055E+00    0.3260740014E-01    0.1530099341E-01    0.3754539108E-02    0.2121447960E+00
    0.1000000000E+02    0.2547740354E-01    0.9488388995E-02    0.4628617327E-02    0.8947413691E-03    0.6161874720E-01
    0.3000000000E+02    0.7034696821E-01    0.2335838024E-01    0.1119011442E-01    0.2470697899E-02    0.1518435651E+00
    0.5000000000E+02    0.1086789628E+00    0.3302055028E-01    0.1547689628E-01    0.3817243146E-02    0.2148416594E+00
    0.7000000000E+02    0.1418801455E+00    0.4014620304E-01    0.1836444164E-01    0.4983729294E-02    0.2614078938E+00
    0.9000000000E+02    0.1709736094E+00    0.4562364750E-01    0.2033582741E-01    0.6006050361E-02    0.2972843647E+00
    0.1100000000E+03    0.1967215550E+00    0.4996892468E-01    0.2168099943E-01    0.6910948460E-02    0.3258094268E+00
    0.1300000000E+03    0.2197038541E+00    0.5350248341E-01    0.2258477200E-01    0.7718769500E-02    0.3490577385E+00
    0.1500000000E+03    0.2403698709E+00    0.5643392428E-01    0.2317033091E-01    0.8445280964E-02    0.3683873577E+00
    0.1700000000E+03    0.2590735643E+00    0.5890617568E-01    0.2352264421E-01    0.9102903228E-02    0.3847250730E+00
    0.1900000000E+03    0.2760978272E+00    0.6102008993E-01    0.2370191650E-01    0.9701563387E-02    0.3987253443E+00
    0.2100000000E+03    0.2916717197E+00    0.6284889105E-01    0.2375173473E-01    0.1024929980E-01    0.4108637089E+00
    0.2300000000E+03    0.3059829009E+00    0.6444704671E-01    0.2370421216E-01    0.1075269822E-01    0.4214941658E+00
    0.2500000000E+03    0.3191867495E+00    0.6585592445E-01    0.2358335115E-01    0.1121721178E-01    0.4308857782E+00
    0.2700000000E+03    0.3314131597E+00    0.6710751518E-01    0.2340730590E-01    0.1164739939E-01    0.4392467804E+00
    0.2900000000E+03    0.3427716748E+00    0.6822695353E-01    0.2318994265E-01    0.1204710589E-01    0.4467409017E+00
    0.3100000000E+03    0.3533554166E+00    0.6923426561E-01    0.2294193824E-01    0.1241959984E-01    0.4534986927E+00
    0.3300000000E+03    0.3632441271E+00    0.7014560741E-01    0.2267156758E-01    0.1276768035E-01    0.4596255541E+00
    0.3500000000E+03    0.3725065510E+00    0.7097415900E-01    0.2238527712E-01    0.1309376054E-01    0.4652075362E+00
    0.3700000000E+03    0.3812023185E+00    0.7173078141E-01    0.2208810833E-01    0.1339993373E-01    0.4703156021E+00
    0.3900000000E+03    0.3893834486E+00    0.7242450660E-01    0.2178401416E-01    0.1368802610E-01    0.4750088083E+00
    0.4100000000E+03    0.3970955600E+00    0.7306290803E-01    0.2147609820E-01    0.1395963922E-01    0.4793367113E+00
    0.4300000000E+03    0.4043788532E+00    0.7365238445E-01    0.2116679710E-01    0.1421618450E-01    0.4833412124E+00
    0.4500000000E+03    0.4112689143E+00    0.7419837984E-01    0.2085802101E-01    0.1445891140E-01    0.4870579869E+00
    0.4700000000E+03    0.4177973773E+00    0.7470555562E-01    0.2055126245E-01    0.1468893068E-01    0.4905176043E+00
    0.4900000000E+03    0.4239924728E+00    0.7517792678E-01    0.2024768138E-01    0.1490723360E-01    0.4937464146E+00
    0.1000000000E+03    0.1842259645E+00    0.4791446272E-01    0.2107331994E-01    0.6471780578E-02    0.3123147224E+00
    0.3000000000E+03    0.3481551256E+00    0.6874353675E-01    0.2306920469E-01    0.1223656956E-01    0.4502047384E+00
    0.5000000000E+03    0.4269730135E+00    0.7540216575E-01    0.2009737072E-01    0.1501227256E-01    0.4952815245E+00
    0.7000000000E+03    0.4740211024E+00    0.7870034905E-01    0.1738349214E-01    0.1667139795E-01    0.5180797382E+00
    0.9000000000E+03    0.5053552002E+00    0.8067119615E-01    0.1525845711E-01    0.1777784872E-01    0.5319804160E+00
    0.1100000000E+04    0.5277039642E+00    0.8198075613E-01    0.1361052391E-01    0.1856805934E-01    0.5414012337E+00
    0.1300000000E+04    0.5444256607E+00    0.8291272077E-01    0.1231312563E-01    0.1916009006E-01    0.5482376677E+00
    0.1500000000E+04    0.5573917133E+00    0.8360864883E-01    0.1127156771E-01    0.1961976170E-01    0.5534422659E+00
    0.1700000000E+04    0.5677287952E+00    0.8414716372E-01    0.1041940433E-01    0.1998671931E-01    0.5575477585E+00
    0.1900000000E+04    0.5761556836E+00    0.8457546361E-01    0.9710156974E-02    0.2028626651E-01    0.5608761277E+00
    0.2100000000E+04    0.5831522550E+00    0.8492360813E-01    0.9110868558E-02    0.2053530435E-01    0.5636338162E+00
    0.2300000000E+04    0.5890508942E+00    0.8521165468E-01    0.8597737373E-02    0.2074554458E-01    0.5659594887E+00
    0.2500000000E+04    0.5940889538E+00    0.8545350058E-01    0.8153243691E-02    0.2092535416E-01    0.5679498551E+00
    0.2700000000E+04    0.5984403422E+00    0.8565907950E-01    0.7764254341E-02    0.2108086633E-01    0.5696744935E+00
    0.2900000000E+04    0.6022353211E+00    0.8583568014E-01    0.7420755973E-02    0.2121667710E-01    0.5711847869E+00
    0.3100000000E+04    0.6055733415E+00    0.8598877113E-01    0.7114994163E-02    0.2133629693E-01    0.5725195356E+00
    0.3300000000E+04    0.6085316113E+00    0.8612253527E-01    0.6840877908E-02    0.2144245239E-01    0.5737086069E+00
    0.3500000000E+04    0.6111709622E+00    0.8624022596E-01    0.6593560471E-02    0.2153729267E-01    0.5747753800E+00
    0.3700000000E+04    0.6135399572E+00    0.8634441137E-01    0.6369139431E-02    0.2162253429E-01    0.5757384271E+00
    0.3900000000E+04    0.6156778241E+00    0.8643714545E-01    0.6164438676E-02    0.2169956442E-01    0.5766126957E+00
    0.4100000000E+04    0.6176165879E+00    0.8652009017E-01    0.5976847617E-02    0.2176951602E-01    0.5774103570E+00
    0.4300000000E+04    0.6193826455E+00    0.8659460454E-01    0.5804201024E-02    0.2183332340E-01    0.5781414264E+00
    0.4500000000E+04    0.6209979460E+00    0.8666181040E-01    0.5644688067E-02    0.2189176376E-01    0.5788142229E+00
    0.4700000000E+04    0.6224808868E+00    0.8672264182E-01    0.5496782670E-02    0.2194548885E-01    0.5794357168E+00
    0.4900000000E+04    0.6238470011E+00    0.8677788263E-01    0.5359189604E-02    0.2199504918E-01    0.5800117936E+00
    0.1000000000E+04    0.5173945981E+00    0.8138605191E-01    0.1438343977E-01    0.1820340995E-01    0.5371001980E+00
    0.3000000000E+04    0.6039561835E+00    0.8591487763E-01    0.7263572065E-02    0.2127832489E-01    0.5718720615E+00
    0.5000000000E+04    0.6244904536E+00    0.8680361768E-01    0.5293907996E-02    0.2201841666E-01    0.5802843946E+00
    0.7000000000E+04    0.6335862151E+00    0.8714214657E-01    0.4330163127E-02    0.2235087107E-01    0.5842487530E+00
    0.9000000000E+04    0.6387029217E+00    0.8730115790E-01    0.3740242789E-02    0.2254049055E-01    0.5866094382E+00
    0.1100000000E+05    0.6419785640E+00    0.8738206481E-01    0.3333873990E-02    0.2266355064E-01    0.5881992870E+00
    0.1300000000E+05    0.6442536528E+00    0.8742326335E-01    0.3032850173E-02    0.2275018289E-01    0.5893549849E+00
    0.1500000000E+05    0.6459251440E+00    0.8744221865E-01    0.2798642024E-02    0.2281468574E-01    0.5902400115E+00
    0.1700000000E+05    0.6472047325E+00    0.8744788216E-01    0.2609862715E-02    0.2286472058E-01    0.5909438726E+00
    0.1900000000E+05    0.6482155685E+00    0.8744524372E-01    0.2453591471E-02    0.2290476523E-01    0.5915199387E+00
    0.2100000000E+05    0.6490341405E+00    0.8743726308E-01    0.2321511957E-02    0.2293761388E-01    0.5920021356E+00
    0.2300000000E+05    0.6497104505E+00    0.8742578115E-01    0.2208001760E-02    0.2296510165E-01    0.5924131312E+00
    0.2500000000E+05    0.6502785587E+00    0.8741198629E-01    0.2109107498E-02    0.2298848436E-01    0.5927686883E+00
    0.2700000000E+05    0.6507624645E+00    0.8739666845E-01    0.2021958684E-02    0.2300865099E-01    0.5930801333E+00
    0.2900000000E+05    0.6511795639E+00    0.8738036520E-01    0.1944414641E-02    0.2302624884E-01    0.5933558308E+00
    0.3100000000E+05    0.6515427730E+00    0.8736344917E-01    0.1874842452E-02    0.2304176076E-01    0.5936021027E+00
    0.3300000000E+05    0.6518618827E+00    0.8734618241E-01    0.1811972167E-02    0.2305555440E-01    0.5938238237E+00
    0.3500000000E+05    0.6521444492E+00    0.8732875119E-01    0.1754799409E-02    0.2306791481E-01    0.5940248179E+00
    0.3700000000E+05    0.6523963969E+00    0.8731128884E-01    0.1702518096E-02    0.2307906647E-01    0.5942081312E+00
    0.3900000000E+05    0.6526224363E+00    0.8729389116E-01    0.1654472862E-02    0.2308918868E-01    0.5943762227E+00
    0.4100000000E+05    0.6528263594E+00    0.8727662695E-01    0.1610124711E-02    0.2309842643E-01    0.5945311009E+00
    0.4300000000E+05    0.6530112532E+00    0.8725954542E-01    0.1569025770E-02    0.2310689827E-01    0.5946744244E+00
    0.4500000000E+05    0.6531796561E+00    0.8724268132E-01    0.1530800420E-02    0.2311470214E-01    0.5948075762E+00
    0.4700000000E+05    0.6533336748E+00    0.8722605878E-01    0.1495130992E-02    0.2312191965E-01    0.5949317192E+00
    0.4900000000E+05    0.6534750719E+00    0.8720969396E-01    0.1461746770E-02    0.2312861941E-01    0.5950478392E+00
    0.1000000000E+05    0.6405028420E+00    0.8734823653E-01    0.3520372932E-02    0.2260790462E-01    0.5874736666E+00
    0.3000000000E+05    0.6513672317E+00    0.8737196529E-01    0.1908718622E-02    0.2303424031E-01    0.5934823118E+00
    0.5000000000E+05    0.6535415111E+00    0.8720161159E-01    0.1445837708E-02    0.2313179363E-01    0.5951031585E+00
    0.7000000000E+05    0.6544700960E+00    0.8705419263E-01    0.1205352319E-02    0.2317843645E-01    0.5959402872E+00
    0.9000000000E+05    0.6549840518E+00    0.8693073656E-01    0.1052548822E-02    0.2320699394E-01    0.5964773170E+00
    0.1100000000E+06    0.6553098756E+00    0.8682558563E-01    0.9446948175E-03    0.2322684066E-01    0.5968622979E+00
    0.1300000000E+06    0.6555345828E+00    0.8673429963E-01    0.8634441836E-03    0.2324173642E-01    0.5971575799E+00
    0.1500000000E+06    0.6556987311E+00    0.8665374895E-01    0.7994525445E-03    0.2325350625E-01    0.5973945812E+00
    0.1700000000E+06    0.6558237661E+00    0.8658171498E-01    0.7473982806E-03    0.2326315328E-01    0.5975910947E+00
    0.1900000000E+06    0.6559220885E+00    0.8651658681E-01    0.7040009246E-03    0.2327127948E-01    0.5977580636E+00
    0.2100000000E+06    0.6560013656E+00    0.8645716434E-01    0.6671146821E-03    0.2327827061E-01    0.5979026466E+00
    0.2300000000E+06    0.6560665915E+00    0.8640253216E-01    0.6352696350E-03    0.2328438678E-01    0.5980297553E+00
    0.2500000000E+06    0.6561211585E+00    0.8635197721E-01    0.6074208961E-03    0.2328981063E-01    0.5981428913E+00
    0.2700000000E+06    0.6561674506E+00    0.8630493381E-01    0.5828028240E-03    0.2329467476E-01    0.5982446297E+00
    0.2900000000E+06    0.6562071921E+00    0.8626094590E-01    0.5608399923E-03    0.2329907812E-01    0.5983369142E+00
    0.3100000000E+06    0.6562416609E+00    0.8621964065E-01    0.5410905337E-03    0.2330309631E-01    0.5984212449E+00
    0.3300000000E+06    0.6562718238E+00    0.8618070937E-01    0.5232088147E-03    0.2330678826E-01    0.5984988011E+00
    0.3500000000E+06    0.6562984258E+00    0.8614389370E-01    0.5069201049E-03    0.2331020069E-01    0.5985705253E+00
    0.3700000000E+06    0.6563220500E+00    0.8610897524E-01    0.4920029386E-03    0.2331337122E-01    0.5986371817E+00
    0.3900000000E+06    0.6563431594E+00    0.8607576773E-01    0.4782765538E-03    0.2331633055E-01    0.5986993977E+00
    0.4100000000E+06    0.6563621261E+00    0.8604411104E-01    0.4655917685E-03    0.2331910401E-01    0.5987576943E+00
    0.4300000000E+06    0.6563792529E+00    0.8601386654E-01    0.4538242356E-03    0.2332171275E-01    0.5988125080E+00
    0.4500000000E+06    0.6563947880E+00    0.8598491336E-01    0.4428693774E-03    0.2332417458E-01    0.5988642087E+00
    0.4700000000E+06    0.6564089375E+00    0.8595714555E-01    0.4326385263E-03    0.2332650465E-01    0.5989131115E+00
    0.4900000000E+06    0.6564218735E+00    0.8593046967E-01    0.4230559482E-03    0.2332871590E-01    0.5989594874E+00
    0.1000000000E+06    0.6551634080E+00    0.8687618591E-01    0.9944567246E-03    0.2321770387E-01    0.5966838556E+00
    0.3000000000E+06    0.6562250191E+00    0.8623997856E-01    0.5507121063E-03    0.2330113135E-01    0.5983799937E+00
    0.5000000000E+06    0.6564279326E+00    0.8591751496E-01    0.4184870483E-03    0.2332978053E-01    0.5989818022E+00
    0.7000000000E+06    0.6565109317E+00    0.8569982664E-01    0.3492534199E-03    0.2334688933E-01    0.5993387359E+00
    0.9000000000E+06    0.6565548172E+00    0.8553522006E-01    0.3051229209E-03    0.2335904000E-01    0.5995895527E+00
    0.1100000000E+07    0.6565813128E+00    0.8540279566E-01    0.2739231649E-03    0.2336844650E-01    0.5997817307E+00
    0.1300000000E+07    0.6565986555E+00    0.8529199506E-01    0.2503967116E-03    0.2337611458E-01    0.5999369380E+00
    0.1500000000E+07    0.6566106340E+00    0.8519673354E-01    0.2318564629E-03    0.2338258416E-01    0.6000668044E+00
    0.1700000000E+07    0.6566192249E+00    0.8511318197E-01    0.2167687234E-03    0.2338817806E-01    0.6001782664E+00
    0.1900000000E+07    0.6566255552E+00    0.8503877327E-01    0.2041866236E-03    0.2339310443E-01    0.6002757813E+00
    0.2100000000E+07    0.6566303121E+00    0.8497170209E-01    0.1934901287E-03    0.2339750524E-01    0.6003623771E+00
    0.2300000000E+07    0.6566339366E+00    0.8491065032E-01    0.1842541560E-03    0.2340148160E-01    0.6004402014E+00
    0.2500000000E+07    0.6566367240E+00    0.8485462607E-01    0.1761763488E-03    0.2340510804E-01    0.6005108310E+00
    0.2700000000E+07    0.6566388786E+00    0.8480286413E-01    0.1690350475E-03    0.2340844108E-01    0.6005754563E+00
    0.2900000000E+07    0.6566405459E+00    0.8475476177E-01    0.1626635969E-03    0.2341152459E-01    0.6006349978E+00
    0.3100000000E+07    0.6566418320E+00    0.8470983574E-01    0.1569339835E-03    0.2341439328E-01    0.6006901811E+00
    0.3300000000E+07    0.6566428160E+00    0.8466769264E-01    0.1517460478E-03    0.2341707511E-01    0.6007415884E+00
    0.3500000000E+07    0.6566435576E+00    0.8462800792E-01    0.1470201604E-03    0.2341959292E-01    0.6007896933E+00
    0.3700000000E+07    0.6566441030E+00    0.8459051070E-01    0.1426921190E-03    0.2342196560E-01    0.6008348867E+00
    0.3900000000E+07    0.6566444880E+00    0.8455497254E-01    0.1387095135E-03    0.2342420896E-01    0.6008774942E+00
    0.4100000000E+07    0.6566447411E+00    0.8452119904E-01    0.1350290848E-03    0.2342633637E-01    0.6009177904E+00
    0.4300000000E+07    0.6566448849E+00    0.8448902337E-01    0.1316147713E-03    0.2342835920E-01    0.6009560087E+00
    0.4500000000E+07    0.6566449377E+00    0.8445830127E-01    0.1284362418E-03    0.2343028727E-01    0.6009923489E+00
    0.4700000000E+07    0.6566449143E+00    0.8442890722E-01    0.1254677780E-03    0.2343212905E-01    0.6010269839E+00
    0.4900000000E+07    0.6566448269E+00    0.8440073124E-01    0.1226874110E-03    0.2343389193E-01    0.6010600638E+00
    0.1000000000E+07    0.6565695670E+00    0.8546579034E-01    0.2883227848E-03    0.2336400777E-01    0.5996912807E+00
    0.3000000000E+07    0.6566412312E+00    0.8473192813E-01    0.1597253743E-03    0.2341298390E-01    0.6006630950E+00
    0.5000000000E+07    0.6566447624E+00    0.8438706932E-01    0.1213617551E-03    0.2343474584E-01    0.6010760622E+00
    0.7000000000E+07    0.6566418127E+00    0.8415934710E-01    0.1012742616E-03    0.2344890668E-01    0.6013390798E+00
    0.9000000000E+07    0.6566377021E+00    0.8398909928E-01    0.8847113912E-04    0.2345942270E-01    0.6015317543E+00
    0.1100000000E+08    0.6566335111E+00    0.8385310861E-01    0.7942016863E-04    0.2346779143E-01    0.6016835970E+00
    0.1300000000E+08    0.6566295166E+00    0.8373988675E-01    0.7259567195E-04    0.2347474303E-01    0.6018087876E+00
    0.1500000000E+08    0.6566257840E+00    0.8364290167E-01    0.6721788388E-04    0.2348068879E-01    0.6019152245E+00
    0.1700000000E+08    0.6566223139E+00    0.8355808204E-01    0.6284176019E-04    0.2348588345E-01    0.6020077560E+00
    0.1900000000E+08    0.6566190874E+00    0.8348271818E-01    0.5919255225E-04    0.2349049576E-01    0.6020895696E+00
    0.2100000000E+08    0.6566160806E+00    0.8341491533E-01    0.5609035532E-04    0.2349464327E-01    0.6021628725E+00
    0.2300000000E+08    0.6566132700E+00    0.8335329649E-01    0.5341183567E-04    0.2349841121E-01    0.6022292556E+00
    0.2500000000E+08    0.6566106342E+00    0.8329682949E-01    0.5106927085E-04    0.2350186329E-01    0.6022899031E+00
    0.2700000000E+08    0.6566081545E+00    0.8324472065E-01    0.4899835341E-04    0.2350504844E-01    0.6023457199E+00
