  Pressure (Pa) 22mC5-400 (mol/kg) 3mC6-400 (mol/kg) 33mC5-400 (mol/kg) 23mC5-400 (mol/kg) C7-400 (mol/kg)
    0.1000000000E+01    0.2652594559E-02    0.4725462321E-02    0.6448523266E-04    0.1863065614E-03    0.5112128075E-02
    0.3000000000E+01    0.7890878282E-02    0.1377670335E-01    0.1879681188E-03    0.5542247553E-03    0.1490604927E-01
    0.5000000000E+01    0.1304183012E-01    0.2233154144E-01    0.3046102831E-03    0.9160146014E-03    0.2416543653E-01
    0.7000000000E+01    0.1810763464E-01    0.3042969765E-01    0.4149305412E-03    0.1271829351E-02    0.3293299274E-01
    0.9000000000E+01    0.2309040396E-01    0.3810676589E-01    0.5193947896E-03    0.1621817178E-02    0.4124698735E-01
    0.1100000000E+02    0.2799218076E-01    0.4539473533E-01    0.6184227113E-03    0.1966121381E-02    0.4914181731E-01
    0.1300000000E+02    0.3281494112E-01    0.5232243542E-01    0.7123934808E-03    0.2304880589E-02    0.5664848494E-01
    0.1500000000E+02    0.3756059718E-01    0.5891591659E-01    0.8016506409E-03    0.2638228947E-02    0.6379500667E-01
    0.1700000000E+02    0.4223099970E-01    0.6519877719E-01    0.8865062854E-03    0.2966296293E-02    0.7060676419E-01
    0.1900000000E+02    0.4682794056E-01    0.7119244534E-01    0.9672446628E-03    0.3289208336E-02    0.7710680709E-01
    0.2100000000E+02    0.5135315500E-01    0.7691642282E-01    0.1044125291E-02    0.3607086812E-02    0.8331611480E-01
    0.2300000000E+02    0.5580832390E-01    0.8238849670E-01    0.1117385659E-02    0.3920049643E-02    0.8925382395E-01
    0.2500000000E+02    0.6019507587E-01    0.8762492378E-01    0.1187243581E-02    0.4228211085E-02    0.9493742639E-01
    0.2700000000E+02    0.6451498927E-01    0.9264059165E-01    0.1253899246E-02    0.4531681870E-02    0.1003829423E+00
    0.2900000000E+02    0.6876959411E-01    0.9744915987E-01    0.1317537020E-02    0.4830569338E-02    0.1056050716E+00
    0.3100000000E+02    0.7296037393E-01    0.1020631840E+00    0.1378327027E-02    0.5124977569E-02    0.1106173278E+00
    0.3300000000E+02    0.7708876752E-01    0.1064942250E+00    0.1436426535E-02    0.5415007504E-02    0.1154321545E+00
    0.3500000000E+02    0.8115617060E-01    0.1107529457E+00    0.1491981193E-02    0.5700757063E-02    0.1200610302E+00
    0.3700000000E+02    0.8516393741E-01    0.1148491963E+00    0.1545126114E-02    0.5982321258E-02    0.1245145594E+00
    0.3900000000E+02    0.8911338227E-01    0.1187920906E+00    0.1595986845E-02    0.6259792297E-02    0.1288025547E+00
    0.4100000000E+02    0.9300578101E-01    0.1225900731E+00    0.1644680226E-02    0.6533259692E-02    0.1329341090E+00
    0.4300000000E+02    0.9684237238E-01    0.1262509798E+00    0.1691315158E-02    0.6802810351E-02    0.1369176606E+00
    0.4500000000E+02    0.1006243594E+00    0.1297820917E+00    0.1735993289E-02    0.7068528677E-02    0.1407610513E+00
    0.4700000000E+02    0.1043529106E+00    0.1331901833E+00    0.1778809629E-02    0.7330496655E-02    0.1444715776E+00
    0.4900000000E+02    0.1080291613E+00    0.1364815657E+00    0.1819853100E-02    0.7588793937E-02    0.1480560378E+00
    0.1000000000E+02    0.2555129139E-01    0.4179751681E-01    0.5695637043E-03    0.1794670961E-02    0.4524478580E-01
    0.3000000000E+02    0.7087287120E-01    0.9977974528E-01    0.1348277879E-02    0.4978326977E-02    0.1081366323E+00
    0.5000000000E+02    0.1098480199E+00    0.1380853462E+00    0.1839736259E-02    0.7716590341E-02    0.1498029917E+00
    0.7000000000E+02    0.1437322416E+00    0.1652717264E+00    0.2162030956E-02    0.1009754539E-01    0.1794575546E+00
    0.9000000000E+02    0.1734693849E+00    0.1855627963E+00    0.2376264813E-02    0.1218741450E-01    0.2016525911E+00
    0.1100000000E+03    0.1997827424E+00    0.2012837484E+00    0.2517753494E-02    0.1403694787E-01    0.2188964745E+00
    0.1300000000E+03    0.2232359773E+00    0.2138201195E+00    0.2608517485E-02    0.1568569723E-01    0.2326853381E+00
    0.1500000000E+03    0.2442749173E+00    0.2240488834E+00    0.2663048037E-02    0.1716494743E-01    0.2439670693E+00
    0.1700000000E+03    0.2632568716E+00    0.2325521635E+00    0.2691265603E-02    0.1849977299E-01    0.2533714681E+00
    0.1900000000E+03    0.2804716080E+00    0.2397315334E+00    0.2700165947E-02    0.1971050968E-01    0.2613334137E+00
    0.2100000000E+03    0.2961566318E+00    0.2458729733E+00    0.2694795880E-02    0.2081382630E-01    0.2681629014E+00
    0.2300000000E+03    0.3105084927E+00    0.2511856659E+00    0.2678861358E-02    0.2182351800E-01    0.2740868966E+00
    0.2500000000E+03    0.3236912750E+00    0.2558261509E+00    0.2655122022E-02    0.2275110182E-01    0.2792754080E+00
    0.2700000000E+03    0.3358430570E+00    0.2599139029E+00    0.2625655681E-02    0.2360626995E-01    0.2838583135E+00
    0.2900000000E+03    0.3470808844E+00    0.2635416867E+00    0.2592040433E-02    0.2439723865E-01    0.2879365509E+00
    0.3100000000E+03    0.3575046428E+00    0.2667826249E+00    0.2555482917E-02    0.2513101990E-01    0.2915897604E+00
    0.3300000000E+03    0.3672001023E+00    0.2696951342E+00    0.2516910342E-02    0.2581363511E-01    0.2948816257E+00
    0.3500000000E+03    0.3762413357E+00    0.2723264446E+00    0.2477037583E-02    0.2645028474E-01    0.2978636833E+00
    0.3700000000E+03    0.3846926540E+00    0.2747151540E+00    0.2436416783E-02    0.2704548411E-01    0.3005780902E+00
    0.3900000000E+03    0.3926101697E+00    0.2768931135E+00    0.2395474453E-02    0.2760317312E-01    0.3030596671E+00
    0.4100000000E+03    0.4000430671E+00    0.2788868395E+00    0.2354539518E-02    0.2812680540E-01    0.3053374294E+00
    0.4300000000E+03    0.4070346443E+00    0.2807185851E+00    0.2313864706E-02    0.2861942139E-01    0.3074357504E+00
    0.4500000000E+03    0.4136231707E+00    0.2824071632E+00    0.2273642992E-02    0.2908370857E-01    0.3093752546E+00
    0.4700000000E+03    0.4198425996E+00    0.2839685870E+00    0.2234020333E-02    0.2952205142E-01    0.3111735130E+00
    0.4900000000E+03    0.4257231616E+00    0.2854165711E+00    0.2195105593E-02    0.2993657309E-01    0.3128455889E+00
    0.1000000000E+03    0.1870156301E+00    0.1938924734E+00    0.2454501280E-02    0.1313952823E-01    0.2107832490E+00
    0.3000000000E+03    0.3523888618E+00    0.2652065626E+00    0.2574065845E-02    0.2477088033E-01    0.2898119807E+00
    0.5000000000E+03    0.4285449211E+00    0.2861017804E+00    0.2175939517E-02    0.3013550174E-01    0.3136384383E+00
    0.7000000000E+03    0.4724320125E+00    0.2960074654E+00    0.1839261298E-02    0.3323170322E-01    0.3252463152E+00
    0.9000000000E+03    0.5009813382E+00    0.3017531419E+00    0.1585704065E-02    0.3524886665E-01    0.3321628836E+00
    0.1100000000E+04    0.5210344999E+00    0.3054854216E+00    0.1394341964E-02    0.3666785379E-01    0.3367774734E+00
    0.1300000000E+04    0.5358899079E+00    0.3080931523E+00    0.1246795906E-02    0.3772061330E-01    0.3400888003E+00
    0.1500000000E+04    0.5473344845E+00    0.3100103861E+00    0.1130324324E-02    0.3853286830E-01    0.3425890793E+00
    0.1700000000E+04    0.5564205811E+00    0.3114740128E+00    0.1036361509E-02    0.3917869707E-01    0.3445493934E+00
    0.1900000000E+04    0.5638082366E+00    0.3126241539E+00    0.9590899424E-03    0.3970458531E-01    0.3461315389E+00
    0.2100000000E+04    0.5699323689E+00    0.3135489164E+00    0.8944756717E-03    0.4014117916E-01    0.3474381663E+00
    0.2300000000E+04    0.5750911825E+00    0.3143064314E+00    0.8396569962E-03    0.4050950191E-01    0.3485376075E+00
    0.2500000000E+04    0.5794959529E+00    0.3149365721E+00    0.7925585220E-03    0.4082445589E-01    0.3494771511E+00
    0.2700000000E+04    0.5833005373E+00    0.3154675800E+00    0.7516440163E-03    0.4109689884E-01    0.3502905889E+00
    0.2900000000E+04    0.5866196307E+00    0.3159200045E+00    0.7157549612E-03    0.4133492890E-01    0.3510027273E+00
    0.3100000000E+04    0.5895404749E+00    0.3163091453E+00    0.6840028303E-03    0.4154470889E-01    0.3516321991E+00
    0.3300000000E+04    0.5921306048E+00    0.3166466210E+00    0.6556957048E-03    0.4173101193E-01    0.3521932801E+00
    0.3500000000E+04    0.5944431128E+00    0.3169414085E+00    0.6302872914E-03    0.4189759226E-01    0.3526970978E+00
    0.3700000000E+04    0.5965203117E+00    0.3172005496E+00    0.6073408504E-03    0.4204744339E-01    0.3531524583E+00
    0.3900000000E+04    0.5983963371E+00    0.3174296430E+00    0.5865032380E-03    0.4218298150E-01    0.3535664249E+00
    0.4100000000E+04    0.6000990309E+00    0.3176331935E+00    0.5674859343E-03    0.4230617829E-01    0.3539447316E+00
    0.4300000000E+04    0.6016513270E+00    0.3178148652E+00    0.5500509751E-03    0.4241865869E-01    0.3542920835E+00
    0.4500000000E+04    0.6030722870E+00    0.3179776674E+00    0.5340003824E-03    0.4252177393E-01    0.3546123789E+00
    0.4700000000E+04    0.6043778837E+00    0.3181240937E+00    0.5191681252E-03    0.4261665685E-01    0.3549088769E+00
    0.4900000000E+04    0.6055816022E+00    0.3182562266E+00    0.5054139351E-03    0.4270426436E-01    0.3551843236E+00
    0.1000000000E+04    0.5118141367E+00    0.3037997434E+00    0.1483539795E-02    0.3601514647E-01    0.3346781087E+00
    0.3000000000E+04    0.5881252223E+00    0.3161216871E+00    0.6994089482E-03    0.4144302427E-01    0.3513268186E+00
    0.5000000000E+04    0.6061489079E+00    0.3183174919E+00    0.4989031203E-03    0.4274559900E-01    0.3553148952E+00
    0.7000000000E+04    0.6141962152E+00    0.3191004553E+00    0.4039257615E-03    0.4333598938E-01    0.3572376302E+00
    0.9000000000E+04    0.6187515683E+00    0.3194430118E+00    0.3468644695E-03    0.4367513420E-01    0.3584167835E+00
    0.1100000000E+05    0.6216813698E+00    0.3196009678E+00    0.3080342473E-03    0.4389642725E-01    0.3592358037E+00
    0.1300000000E+05    0.6237233287E+00    0.3196682964E+00    0.2795157723E-03    0.4405286869E-01    0.3598496328E+00
    0.1500000000E+05    0.6252275276E+00    0.3196866369E+00    0.2574673742E-03    0.4416973853E-01    0.3603337893E+00
    0.1700000000E+05    0.6263814274E+00    0.3196768159E+00    0.2397816529E-03    0.4426064183E-01    0.3607298772E+00
    0.1900000000E+05    0.6272944566E+00    0.3196501702E+00    0.2251972746E-03    0.4433356009E-01    0.3610628964E+00
    0.2100000000E+05    0.6280347805E+00    0.3196132646E+00    0.2129085328E-03    0.4439348975E-01    0.3613488767E+00
    0.2300000000E+05    0.6286470719E+00    0.3195700816E+00    0.2023741278E-03    0.4444372140E-01    0.3615986288E+00
    0.2500000000E+05    0.6291618268E+00    0.3195231247E+00    0.1932154540E-03    0.4448651235E-01    0.3618197433E+00
    0.2700000000E+05    0.6296005738E+00    0.3194740105E+00    0.1851588484E-03    0.4452346387E-01    0.3620177289E+00
    0.2900000000E+05    0.6299789437E+00    0.3194238039E+00    0.1780010172E-03    0.4455574420E-01    0.3621966952E+00
    0.3100000000E+05    0.6303085592E+00    0.3193732165E+00    0.1715874101E-03    0.4458422619E-01    0.3623597798E+00
    0.3300000000E+05    0.6305982416E+00    0.3193227275E+00    0.1657981864E-03    0.4460957549E-01    0.3625094267E+00
    0.3500000000E+05    0.6308548072E+00    0.3192726604E+00    0.1605388146E-03    0.4463230889E-01    0.3626475727E+00
    0.3700000000E+05    0.6310836055E+00    0.3192232324E+00    0.1557336032E-03    0.4465283391E-01    0.3627757760E+00
    0.3900000000E+05    0.6312888940E+00    0.3191745870E+00    0.1513211411E-03    0.4467147640E-01    0.3628953070E+00
    0.4100000000E+05    0.6314741027E+00    0.3191268165E+00    0.1472510162E-03    0.4468850014E-01    0.3630072139E+00
    0.4300000000E+05    0.6316420264E+00    0.3190799770E+00    0.1434814101E-03    0.4470412103E-01    0.3631123707E+00
    0.4500000000E+05    0.6317949645E+00    0.3190340988E+00    0.1399773047E-03    0.4471851754E-01    0.3632115129E+00
    0.4700000000E+05    0.6319348264E+00    0.3189891942E+00    0.1367091254E-03    0.4473183859E-01    0.3633052652E+00
    0.4900000000E+05    0.6320632109E+00    0.3189452625E+00    0.1336517017E-03    0.4474420940E-01    0.3633941618E+00
    0.1000000000E+05    0.6203600302E+00    0.3195373312E+00    0.3258071415E-03    0.4379623370E-01    0.3588588700E+00
    0.3000000000E+05    0.6301492396E+00    0.3193985234E+00    0.1747093615E-03    0.4457041432E-01    0.3622800563E+00
    0.5000000000E+05    0.6321235290E+00    0.3189236587E+00    0.1321951589E-03    0.4475007228E-01    0.3634369357E+00
    0.7000000000E+05    0.6329656487E+00    0.3185379434E+00    0.1102098557E-03    0.4483635590E-01    0.3641220092E+00
    0.9000000000E+05    0.6334301963E+00    0.3182235416E+00    0.9626640594E-04    0.4488930421E-01    0.3646059737E+00
    0.1100000000E+06    0.6337234548E+00    0.3179600031E+00    0.8643331514E-04    0.4492615288E-01    0.3649792546E+00
    0.1300000000E+06    0.6339247490E+00    0.3177336882E+00    0.7902893862E-04    0.4495383495E-01    0.3652827135E+00
    0.1500000000E+06    0.6340710531E+00    0.3175355809E+00    0.7319862207E-04    0.4497572235E-01    0.3655381952E+00
    0.1700000000E+06    0.6341819078E+00    0.3173595161E+00    0.6845632697E-04    0.4499367103E-01    0.3657587158E+00
    0.1900000000E+06    0.6342686031E+00    0.3172011226E+00    0.6450272769E-04    0.4500879597E-01    0.3659526447E+00
    0.2100000000E+06    0.6343381125E+00    0.3170571995E+00    0.6114216516E-04    0.4502181225E-01    0.3661256763E+00
    0.2300000000E+06    0.6343949726E+00    0.3169253371E+00    0.5824067482E-04    0.4503320233E-01    0.3662818579E+00
    0.2500000000E+06    0.6344422607E+00    0.3168036781E+00    0.5570306299E-04    0.4504330520E-01    0.3664241677E+00
    0.2700000000E+06    0.6344821367E+00    0.3166907616E+00    0.5345959544E-04    0.4505236708E-01    0.3665548605E+00
    0.2900000000E+06    0.6345161604E+00    0.3165854184E+00    0.5145787317E-04    0.4506057177E-01    0.3666756837E+00
    0.3100000000E+06    0.6345454860E+00    0.3164866984E+00    0.4965766525E-04    0.4506805975E-01    0.3667880188E+00
    0.3300000000E+06    0.6345709851E+00    0.3163938195E+00    0.4802750607E-04    0.4507494055E-01    0.3668929769E+00
    0.3500000000E+06    0.6345933287E+00    0.3163061298E+00    0.4654238682E-04    0.4508130102E-01    0.3669914647E+00
    0.3700000000E+06    0.6346130407E+00    0.3162230810E+00    0.4518214845E-04    0.4508721114E-01    0.3670842316E+00
    0.3900000000E+06    0.6346305366E+00    0.3161442068E+00    0.4393033757E-04    0.4509272798E-01    0.3671719041E+00
    0.4100000000E+06    0.6346461497E+00    0.3160691080E+00    0.4277337555E-04    0.4509789870E-01    0.3672550115E+00
    0.4300000000E+06    0.6346601507E+00    0.3159974399E+00    0.4169994426E-04    0.4510276264E-01    0.3673340045E+00
    0.4500000000E+06    0.6346727612E+00    0.3159289029E+00    0.4070052497E-04    0.4510735295E-01    0.3674092706E+00
    0.4700000000E+06    0.6346841648E+00    0.3158632350E+00    0.3976704699E-04    0.4511169779E-01    0.3674811448E+00
    0.4900000000E+06    0.6346945144E+00    0.3158002057E+00    0.3889261668E-04    0.4511582129E-01    0.3675499192E+00
    0.1000000000E+06    0.6335917900E+00    0.3180864021E+00    0.9096939945E-04    0.4490918394E-01    0.3648032560E+00
    0.3000000000E+06    0.6345313505E+00    0.3165352828E+00    0.5053472073E-04    0.4506439789E-01    0.3667328374E+00
    0.5000000000E+06    0.6346993350E+00    0.3157696159E+00    0.3847565898E-04    0.4511780665E-01    0.3675832251E+00
    0.7000000000E+06    0.6347630020E+00    0.3152573038E+00    0.3215413456E-04    0.4514971755E-01    0.3681349058E+00
    0.9000000000E+06    0.6347937541E+00    0.3148717537E+00    0.2812083939E-04    0.4517238635E-01    0.3685438657E+00
    0.1100000000E+07    0.6348103791E+00    0.3145625141E+00    0.2526706448E-04    0.4518993826E-01    0.3688689233E+00
    0.1300000000E+07    0.6348198454E+00    0.3143043092E+00    0.2311367949E-04    0.4520424797E-01    0.3691386902E+00
    0.1500000000E+07    0.6348252854E+00    0.3140826547E+00    0.2141567275E-04    0.4521632214E-01    0.3693692573E+00
    0.1700000000E+07    0.6348282944E+00    0.3138884733E+00    0.2003313449E-04    0.4522676271E-01    0.3695705776E+00
    0.1900000000E+07    0.6348297596E+00    0.3137156989E+00    0.1887965003E-04    0.4523595790E-01    0.3697492380E+00
    0.2100000000E+07    0.6348302075E+00    0.3135600765E+00    0.1789861024E-04    0.4524417249E-01    0.3699098242E+00
    0.2300000000E+07    0.6348299668E+00    0.3134185057E+00    0.1705119079E-04    0.4525159508E-01    0.3700556574E+00
    0.2500000000E+07    0.6348292509E+00    0.3132886577E+00    0.1630976693E-04    0.4525836472E-01    0.3701892201E+00
    0.2700000000E+07    0.6348282029E+00    0.3131687385E+00    0.1565408037E-04    0.4526458684E-01    0.3703124166E+00
    0.2900000000E+07    0.6348269213E+00    0.3130573370E+00    0.1506889531E-04    0.4527034329E-01    0.3704267399E+00
    0.3100000000E+07    0.6348254755E+00    0.3129533229E+00    0.1454250532E-04    0.4527569883E-01    0.3705333820E+00
    0.3300000000E+07    0.6348239148E+00    0.3128557771E+00    0.1406574876E-04    0.4528070564E-01    0.3706333099E+00
    0.3500000000E+07    0.6348222755E+00    0.3127639421E+00    0.1363134005E-04    0.4528540632E-01    0.3707273186E+00
    0.3700000000E+07    0.6348205839E+00    0.3126771858E+00    0.1323340368E-04    0.4528983612E-01    0.3708160699E+00
    0.3900000000E+07    0.6348188597E+00    0.3125949760E+00    0.1286714226E-04    0.4529402455E-01    0.3709001207E+00
    0.4100000000E+07    0.6348171177E+00    0.3125168598E+00    0.1252859517E-04    0.4529799654E-01    0.3709799435E+00
    0.4300000000E+07    0.6348153688E+00    0.3124424487E+00    0.1221446009E-04    0.4530177336E-01    0.3710559431E+00
    0.4500000000E+07    0.6348136213E+00    0.3123714072E+00    0.1192195893E-04    0.4530537328E-01    0.3711284691E+00
    0.4700000000E+07    0.6348118816E+00    0.3123034432E+00    0.1164873562E-04    0.4530881213E-01    0.3711978247E+00
    0.4900000000E+07    0.6348101544E+00    0.3122383013E+00    0.1139277726E-04    0.4531210370E-01    0.3712642756E+00
    0.1000000000E+07    0.6348032609E+00    0.3147095264E+00    0.2658442578E-04    0.4518165559E-01    0.3687146823E+00
    0.3000000000E+07    0.6348262155E+00    0.3130044682E+00    0.1479897413E-04    0.4527306766E-01    0.3704809561E+00
    0.5000000000E+07    0.6348092966E+00    0.3122067172E+00    0.1127072179E-04    0.4531369810E-01    0.3712964858E+00
    0.7000000000E+07    0.6347932804E+00    0.3116803852E+00    0.9419810250E-05    0.4534013993E-01    0.3718325189E+00
    0.9000000000E+07    0.6347795601E+00    0.3112869600E+00    0.8238535565E-05    0.4535977717E-01    0.3722324376E+00
    0.1100000000E+08    0.6347677686E+00    0.3109726782E+00    0.7402594569E-05    0.4537540527E-01    0.3725515365E+00
    0.1300000000E+08    0.6347574880E+00    0.3107109728E+00    0.6771760054E-05    0.4538838731E-01    0.3728170431E+00
    0.1500000000E+08    0.6347483962E+00    0.3104867505E+00    0.6274301358E-05    0.4539949121E-01    0.3730443908E+00
    0.1700000000E+08    0.6347402560E+00    0.3102906086E+00    0.5869249511E-05    0.4540919255E-01    0.3732431787E+00
    0.1900000000E+08    0.6347328914E+00    0.3101162916E+00    0.5531296668E-05    0.4541780640E-01    0.3734197855E+00
    0.2100000000E+08    0.6347261698E+00    0.3099594260E+00    0.5243862313E-05    0.4542555230E-01    0.3735786661E+00
    0.2300000000E+08    0.6347199893E+00    0.3098168341E+00    0.4995574164E-05    0.4543258935E-01    0.3737230553E+00
    0.2500000000E+08    0.6347142699E+00    0.3096861341E+00    0.4778340011E-05    0.4543903656E-01    0.3738553761E+00
    0.2700000000E+08    0.6347089481E+00    0.3095654948E+00    0.4586225255E-05    0.4544498525E-01    0.3739774903E+00
