  Pressure (Pa) 22mC5-400 (mol/kg) 3mC6-400 (mol/kg) 33mC5-400 (mol/kg) 23mC5-400 (mol/kg) C7-400 (mol/kg)
    0.1000000000E+01    0.2652788055E-02    0.4725100262E-02    0.1289703734E-03    0.9316006718E-04    0.5111738013E-02
    0.3000000000E+01    0.7892597801E-02    0.1377364213E-01    0.3759387476E-03    0.2771726867E-03    0.1490275097E-01
    0.5000000000E+01    0.1304654688E-01    0.2232353980E-01    0.6092357657E-03    0.4581727334E-03    0.2415681438E-01
    0.7000000000E+01    0.1811676492E-01    0.3041491680E-01    0.8299051925E-03    0.6362349080E-03    0.3291706418E-01
    0.9000000000E+01    0.2310531140E-01    0.3808370399E-01    0.1038883524E-02    0.8114314504E-03    0.4122213248E-01
    0.1100000000E+02    0.2801417849E-01    0.4536217325E-01    0.1237013667E-02    0.9838322403E-03    0.4910672056E-01
    0.1300000000E+02    0.3284529379E-01    0.5227939168E-01    0.1425056576E-02    0.1153504893E-02    0.5660208658E-01
    0.1500000000E+02    0.3760052292E-01    0.5886160973E-01    0.1603701175E-02    0.1320514848E-02    0.6373646239E-01
    0.1700000000E+02    0.4228167197E-01    0.6513259435E-01    0.1773572872E-02    0.1484925461E-02    0.7053541128E-01
    0.1900000000E+02    0.4689048988E-01    0.7111391585E-01    0.1935240885E-02    0.1646798080E-02    0.7702213605E-01
    0.2100000000E+02    0.5142867067E-01    0.7682519599E-01    0.2089224564E-02    0.1806192127E-02    0.8321774545E-01
    0.2300000000E+02    0.5589785557E-01    0.8228432315E-01    0.2235998876E-02    0.1963165174E-02    0.8914148527E-01
    0.2500000000E+02    0.6029963506E-01    0.8750763955E-01    0.2375999172E-02    0.2117773013E-02    0.9481093953E-01
    0.2700000000E+02    0.6463555085E-01    0.9251010485E-01    0.2509625348E-02    0.2270069723E-02    0.1002422061E+00
    0.2900000000E+02    0.6890709766E-01    0.9730543928E-01    0.2637245488E-02    0.2420107738E-02    0.1054500505E+00
    0.3100000000E+02    0.7311572507E-01    0.1019062494E+00    0.2759199057E-02    0.2567937907E-02    0.1104480410E+00
    0.3300000000E+02    0.7726283917E-01    0.1063241389E+00    0.2875799716E-02    0.2713609555E-02    0.1152486677E+00
    0.3500000000E+02    0.8134980420E-01    0.1105698063E+00    0.2987337804E-02    0.2857170537E-02    0.1198634475E+00
    0.3700000000E+02    0.8537794407E-01    0.1146531317E+00    0.3094082540E-02    0.2998667296E-02    0.1243030171E+00
    0.3900000000E+02    0.8934854385E-01    0.1185832532E+00    0.3196283969E-02    0.3138144911E-02    0.1285772156E+00
    0.4100000000E+02    0.9326285122E-01    0.1223686359E+00    0.3294174696E-02    0.3275647150E-02    0.1326951581E+00
    0.4300000000E+02    0.9712207774E-01    0.1260171321E+00    0.3387971437E-02    0.3411216515E-02    0.1366653007E+00
    0.4500000000E+02    0.1009274002E+00    0.1295360361E+00    0.3477876396E-02    0.3544894289E-02    0.1404954994E+00
    0.4700000000E+02    0.1046799620E+00    0.1329321328E+00    0.3564078503E-02    0.3676720578E-02    0.1441930622E+00
    0.4900000000E+02    0.1083808739E+00    0.1362117418E+00    0.3646754526E-02    0.3806734352E-02    0.1477647964E+00
    0.1000000000E+02    0.2556958291E-01    0.4176984140E-01    0.1139255262E-02    0.8979770365E-03    0.4521495741E-01
    0.3000000000E+02    0.7101918741E-01    0.9962941235E-01    0.2698910416E-02    0.2494295685E-02    0.1079744728E+00
    0.5000000000E+02    0.1102122998E+00    0.1378097205E+00    0.3686822419E-02    0.3871073425E-02    0.1495054785E+00
    0.7000000000E+02    0.1443767163E+00    0.1648923819E+00    0.4338227415E-02    0.5071380951E-02    0.1790478445E+00
    0.9000000000E+02    0.1744368445E+00    0.1851019627E+00    0.4774422185E-02    0.6127647733E-02    0.2011546127E+00
    0.1100000000E+03    0.2011020413E+00    0.2007598714E+00    0.5065393559E-02    0.7064760159E-02    0.2183301143E+00
    0.1300000000E+03    0.2249258163E+00    0.2132476770E+00    0.5254764926E-02    0.7902137927E-02    0.2320662242E+00
    0.1500000000E+03    0.2463465091E+00    0.2234390736E+00    0.5371263816E-02    0.8655160771E-02    0.2433073028E+00
    0.1700000000E+03    0.2657158616E+00    0.2319136430E+00    0.5434586620E-02    0.9336170600E-02    0.2526804129E+00
    0.1900000000E+03    0.2833194829E+00    0.2390710264E+00    0.5458653561E-02    0.9955189323E-02    0.2606183503E+00
    0.2100000000E+03    0.2993917674E+00    0.2451957379E+00    0.5453534595E-02    0.1052044214E-01    0.2674295284E+00
    0.2300000000E+03    0.3141269440E+00    0.2504958437E+00    0.5426648295E-02    0.1103874510E-01    0.2733397064E+00
    0.2500000000E+03    0.3276873764E+00    0.2551270267E+00    0.5383539262E-02    0.1151579629E-01    0.2785179669E+00
    0.2700000000E+03    0.3402098825E+00    0.2592080988E+00    0.5328399277E-02    0.1195639749E-01    0.2830934709E+00
    0.2900000000E+03    0.3518106025E+00    0.2628313079E+00    0.5264426354E-02    0.1236462498E-01    0.2871665966E+00
    0.3100000000E+03    0.3625887907E+00    0.2660693700E+00    0.5194077816E-02    0.1274396252E-01    0.2908165435E+00
    0.3300000000E+03    0.3726297993E+00    0.2689803796E+00    0.5119252139E-02    0.1309740609E-01    0.2941066461E+00
    0.3500000000E+03    0.3820074481E+00    0.2716113095E+00    0.5041421750E-02    0.1342754696E-01    0.2970881617E+00
    0.3700000000E+03    0.3907859239E+00    0.2740005506E+00    0.4961731400E-02    0.1373663839E-01    0.2998030229E+00
    0.3900000000E+03    0.3990213140E+00    0.2761797868E+00    0.4881071905E-02    0.1402664937E-01    0.3022858686E+00
    0.4100000000E+03    0.4067628544E+00    0.2781753984E+00    0.4800136028E-02    0.1429930849E-01    0.3045655662E+00
    0.4300000000E+03    0.4140539533E+00    0.2800095270E+00    0.4719461213E-02    0.1455613977E-01    0.3066663677E+00
    0.4500000000E+03    0.4209330346E+00    0.2817008944E+00    0.4639462540E-02    0.1479849233E-01    0.3086087984E+00
    0.4700000000E+03    0.4274342391E+00    0.2832654379E+00    0.4560458325E-02    0.1502756495E-01    0.3104103469E+00
    0.4900000000E+03    0.4335880091E+00    0.2847168098E+00    0.4482690130E-02    0.1524442660E-01    0.3120860083E+00
    0.1000000000E+03    0.1881561105E+00    0.1933980732E+00    0.4934889387E-02    0.6609775611E-02    0.2102488734E+00
    0.3000000000E+03    0.3572968832E+00    0.2644945553E+00    0.5229919038E-02    0.1255770738E-01    0.2890401876E+00
    0.5000000000E+03    0.4365432307E+00    0.2854037969E+00    0.4444327984E-02    0.1534858116E-01    0.3128807430E+00
    0.7000000000E+03    0.4827090647E+00    0.2953502895E+00    0.3765060574E-02    0.1697679054E-01    0.3245322062E+00
    0.9000000000E+03    0.5129502512E+00    0.3011368564E+00    0.3248124963E-02    0.1804488845E-01    0.3314926769E+00
    0.1100000000E+04    0.5342898757E+00    0.3049056602E+00    0.2855638824E-02    0.1879966628E-01    0.3361465602E+00
    0.1300000000E+04    0.5501482298E+00    0.3075452627E+00    0.2551920603E-02    0.1936137284E-01    0.3394922134E+00
    0.1500000000E+04    0.5623926228E+00    0.3094902756E+00    0.2311642433E-02    0.1979569018E-01    0.3420224325E+00
    0.1700000000E+04    0.5721292698E+00    0.3109782453E+00    0.2117553141E-02    0.2014154803E-01    0.3440089975E+00
    0.1900000000E+04    0.5800551748E+00    0.3121498738E+00    0.1957836342E-02    0.2042348709E-01    0.3456143246E+00
    0.2100000000E+04    0.5866312611E+00    0.3130937459E+00    0.1824249518E-02    0.2065774374E-01    0.3469415759E+00
    0.2300000000E+04    0.5921744615E+00    0.3138683777E+00    0.1710920027E-02    0.2085548757E-01    0.3480594965E+00
    0.2500000000E+04    0.5969098312E+00    0.3145139515E+00    0.1613575085E-02    0.2102465391E-01    0.3490157067E+00
    0.2700000000E+04    0.6010015636E+00    0.3150589584E+00    0.1529044214E-02    0.2117103493E-01    0.3498442667E+00
    0.2900000000E+04    0.6045722426E+00    0.3155241505E+00    0.1454932037E-02    0.2129895703E-01    0.3505702006E+00
    0.3100000000E+04    0.6077152256E+00    0.3159249932E+00    0.1389398838E-02    0.2141171668E-01    0.3512123198E+00
    0.3300000000E+04    0.6105028556E+00    0.3162732424E+00    0.1331010463E-02    0.2151186953E-01    0.3517850475E+00
    0.3500000000E+04    0.6129920533E+00    0.3165779890E+00    0.1278633705E-02    0.2160142740E-01    0.3522996339E+00
    0.3700000000E+04    0.6152282149E+00    0.3168463707E+00    0.1231362096E-02    0.2168199552E-01    0.3527649883E+00
    0.3900000000E+04    0.6172479857E+00    0.3170840670E+00    0.1188462382E-02    0.2175487033E-01    0.3531882613E+00
    0.4100000000E+04    0.6190812695E+00    0.3172956517E+00    0.1149335338E-02    0.2182111024E-01    0.3535752610E+00
    0.4300000000E+04    0.6207527094E+00    0.3174848479E+00    0.1113486666E-02    0.2188158791E-01    0.3539307560E+00
    0.4500000000E+04    0.6222827950E+00    0.3176547159E+00    0.1080505112E-02    0.2193702925E-01    0.3542586996E+00
    0.4700000000E+04    0.6236887012E+00    0.3178077933E+00    0.1050045793E-02    0.2198804303E-01    0.3545623983E+00
    0.4900000000E+04    0.6249849318E+00    0.3179462014E+00    0.1021817368E-02    0.2203514358E-01    0.3548446399E+00
    0.1000000000E+04    0.5244681493E+00    0.3032023204E+00    0.3038806186E-02    0.1845214068E-01    0.3340281879E+00
    0.3000000000E+04    0.6061922577E+00    0.3157318081E+00    0.1421190802E-02    0.2135705773E-01    0.3509007493E+00
    0.5000000000E+04    0.6255958461E+00    0.3180104739E+00    0.1008460834E-02    0.2205736573E-01    0.3549784683E+00
    0.7000000000E+04    0.6342619691E+00    0.3188401699E+00    0.8141136220E-03    0.2237469320E-01    0.3569518548E+00
    0.9000000000E+04    0.6391675819E+00    0.3192135863E+00    0.6978661528E-03    0.2255687700E-01    0.3581645052E+00
    0.1100000000E+05    0.6423227397E+00    0.3193938205E+00    0.6190119401E-03    0.2267569160E-01    0.3590077369E+00
    0.1300000000E+05    0.6445219798E+00    0.3194781826E+00    0.5612352892E-03    0.2275965042E-01    0.3596400970E+00
    0.1500000000E+05    0.6461423040E+00    0.3195100797E+00    0.5166473303E-03    0.2282234937E-01    0.3601390154E+00
    0.1700000000E+05    0.6473855549E+00    0.3195113731E+00    0.4809325418E-03    0.2287110284E-01    0.3605472158E+00
    0.1900000000E+05    0.6483695385E+00    0.3194940497E+00    0.4515140348E-03    0.2291020042E-01    0.3608904017E+00
    0.2100000000E+05    0.6491676294E+00    0.3194651060E+00    0.4267490378E-03    0.2294232660E-01    0.3611850711E+00
    0.2300000000E+05    0.6498279094E+00    0.3194288241E+00    0.4055357604E-03    0.2296924882E-01    0.3614423589E+00
    0.2500000000E+05    0.6503831992E+00    0.3193879220E+00    0.3871046964E-03    0.2299217924E-01    0.3616700888E+00
    0.2700000000E+05    0.6508566676E+00    0.3193441750E+00    0.3709003383E-03    0.2301197753E-01    0.3618739417E+00
    0.2900000000E+05    0.6512651354E+00    0.3192987682E+00    0.3565104781E-03    0.2302927075E-01    0.3620581574E+00
    0.3100000000E+05    0.6516211100E+00    0.3192525056E+00    0.3436220487E-03    0.2304452730E-01    0.3622259742E+00
    0.3300000000E+05    0.6519340846E+00    0.3192059396E+00    0.3319925018E-03    0.2305810437E-01    0.3623799153E+00
    0.3500000000E+05    0.6522113943E+00    0.3191594516E+00    0.3214306602E-03    0.2307027918E-01    0.3625219807E+00
    0.3700000000E+05    0.6524587963E+00    0.3191133059E+00    0.3117835531E-03    0.2308127034E-01    0.3626537797E+00
    0.3900000000E+05    0.6526808724E+00    0.3190676846E+00    0.3029271470E-03    0.2309125261E-01    0.3627766249E+00
    0.4100000000E+05    0.6528813145E+00    0.3190227119E+00    0.2947596803E-03    0.2310036743E-01    0.3628915990E+00
    0.4300000000E+05    0.6530631304E+00    0.3189784705E+00    0.2871967809E-03    0.2310873057E-01    0.3629996050E+00
    0.4500000000E+05    0.6532287954E+00    0.3189350134E+00    0.2801678296E-03    0.2311643774E-01    0.3631014030E+00
    0.4700000000E+05    0.6533803650E+00    0.3188923716E+00    0.2736132105E-03    0.2312356874E-01    0.3631976383E+00
    0.4900000000E+05    0.6535195602E+00    0.3188505610E+00    0.2674822042E-03    0.2313019071E-01    0.3632888632E+00
    0.1000000000E+05    0.6408997395E+00    0.3193198565E+00    0.6550777852E-03    0.2262190350E-01    0.3586195762E+00
    0.3000000000E+05    0.6514490320E+00    0.3192757046E+00    0.3498951364E-03    0.2303712911E-01    0.3621439438E+00
    0.5000000000E+05    0.6535849803E+00    0.3188299691E+00    0.2645617287E-03    0.2313332894E-01    0.3633327480E+00
    0.7000000000E+05    0.6545003659E+00    0.3184596283E+00    0.2205020103E-03    0.2317950532E-01    0.3640347206E+00
    0.9000000000E+05    0.6550078500E+00    0.3181550635E+00    0.1925779379E-03    0.2320783398E-01    0.3645295195E+00
    0.1100000000E+06    0.6553298614E+00    0.3178984948E+00    0.1728930962E-03    0.2322754582E-01    0.3649104891E+00
    0.1300000000E+06    0.6555520551E+00    0.3176774434E+00    0.1580738475E-03    0.2324235261E-01    0.3652197616E+00
    0.1500000000E+06    0.6557144158E+00    0.3174834882E+00    0.1464068411E-03    0.2325405913E-01    0.3654798344E+00
    0.1700000000E+06    0.6558381085E+00    0.3173108050E+00    0.1369181641E-03    0.2326365858E-01    0.3657040976E+00
    0.1900000000E+06    0.6559353813E+00    0.3171552331E+00    0.1290082376E-03    0.2327174757E-01    0.3659011519E+00
    0.2100000000E+06    0.6560138115E+00    0.3170137101E+00    0.1222852361E-03    0.2327870866E-01    0.3660768438E+00
    0.2300000000E+06    0.6560783371E+00    0.3168839208E+00    0.1164809352E-03    0.2328479997E-01    0.3662353248E+00
    0.2500000000E+06    0.6561323131E+00    0.3167640756E+00    0.1114047671E-03    0.2329020283E-01    0.3663796477E+00
    0.2700000000E+06    0.6561780982E+00    0.3166527630E+00    0.1069171485E-03    0.2329504895E-01    0.3665121216E+00
    0.2900000000E+06    0.6562173987E+00    0.3165488512E+00    0.1029132057E-03    0.2329943664E-01    0.3666345350E+00
    0.3100000000E+06    0.6562514794E+00    0.3164514187E+00    0.9931242584E-04    0.2330344103E-01    0.3667483013E+00
    0.3300000000E+06    0.6562812973E+00    0.3163597057E+00    0.9605184216E-04    0.2330712071E-01    0.3668545560E+00
    0.3500000000E+06    0.6563075900E+00    0.3162730784E+00    0.9308141191E-04    0.2331052213E-01    0.3669542255E+00
    0.3700000000E+06    0.6563309348E+00    0.3161910025E+00    0.9036079893E-04    0.2331368271E-01    0.3670480753E+00
    0.3900000000E+06    0.6563517902E+00    0.3161130238E+00    0.8785708319E-04    0.2331663298E-01    0.3671367448E+00
    0.4100000000E+06    0.6563705246E+00    0.3160387527E+00    0.8554309753E-04    0.2331939815E-01    0.3672207739E+00
    0.4300000000E+06    0.6563874377E+00    0.3159678525E+00    0.8339619837E-04    0.2332199927E-01    0.3673006224E+00
    0.4500000000E+06    0.6564027755E+00    0.3159000304E+00    0.8139734257E-04    0.2332445407E-01    0.3673766852E+00
    0.4700000000E+06    0.6564167420E+00    0.3158350302E+00    0.7953038445E-04    0.2332677760E-01    0.3674493038E+00
    0.4900000000E+06    0.6564295075E+00    0.3157726264E+00    0.7778153344E-04    0.2332898277E-01    0.3675187756E+00
    0.1000000000E+06    0.6551850813E+00    0.3180216756E+00    0.1819731621E-03    0.2321846874E-01    0.3647309390E+00
    0.3000000000E+06    0.6562350257E+00    0.3164993758E+00    0.1010667046E-03    0.2330148276E-01    0.3666924225E+00
    0.5000000000E+06    0.6564354856E+00    0.3157423348E+00    0.7694762638E-04    0.2333004450E-01    0.3675524142E+00
    0.7000000000E+06    0.6565172776E+00    0.3152345436E+00    0.6430495988E-04    0.2334711009E-01    0.3681091426E+00
    0.9000000000E+06    0.6565604033E+00    0.3148518762E+00    0.5623880414E-04    0.2335923346E-01    0.3685213275E+00
    0.1100000000E+07    0.6565863603E+00    0.3145446753E+00    0.5053161765E-04    0.2336862053E-01    0.3688486692E+00
    0.1300000000E+07    0.6566032932E+00    0.3142880079E+00    0.4622514009E-04    0.2337627378E-01    0.3691201606E+00
    0.1500000000E+07    0.6566149454E+00    0.3140675652E+00    0.4282936285E-04    0.2338273152E-01    0.3693520883E+00
    0.1700000000E+07    0.6566232674E+00    0.3138743701E+00    0.4006447963E-04    0.2338831564E-01    0.3695545170E+00
    0.1900000000E+07    0.6566293709E+00    0.3137024184E+00    0.3775767117E-04    0.2339323374E-01    0.3697341024E+00
    0.2100000000E+07    0.6566339327E+00    0.3135474953E+00    0.3579572660E-04    0.2339762741E-01    0.3698954756E+00
    0.2300000000E+07    0.6566373869E+00    0.3134065285E+00    0.3410100272E-04    0.2340159752E-01    0.3700419887E+00
    0.2500000000E+07    0.6566400236E+00    0.3132772088E+00    0.3261825406E-04    0.2340521843E-01    0.3701761465E+00
    0.2700000000E+07    0.6566420436E+00    0.3131577567E+00    0.3130696707E-04    0.2340854651E-01    0.3702998694E+00
    0.2900000000E+07    0.6566435895E+00    0.3130467719E+00    0.3013667251E-04    0.2341162554E-01    0.3704146626E+00
    0.3100000000E+07    0.6566447654E+00    0.3129431327E+00    0.2908395933E-04    0.2341449016E-01    0.3705217274E+00
    0.3300000000E+07    0.6566456487E+00    0.3128459263E+00    0.2813050566E-04    0.2341716826E-01    0.3706220382E+00
    0.3500000000E+07    0.6566462977E+00    0.3127544005E+00    0.2726174147E-04    0.2341968263E-01    0.3707163959E+00
    0.3700000000E+07    0.6566467575E+00    0.3126679274E+00    0.2646591669E-04    0.2342205212E-01    0.3708054671E+00
    0.3900000000E+07    0.6566470631E+00    0.3125859783E+00    0.2573343726E-04    0.2342429253E-01    0.3708898122E+00
    0.4100000000E+07    0.6566472423E+00    0.3125081029E+00    0.2505638253E-04    0.2342641717E-01    0.3709699071E+00
    0.4300000000E+07    0.6566473169E+00    0.3124339153E+00    0.2442814841E-04    0.2342843742E-01    0.3710461593E+00
    0.4500000000E+07    0.6566473048E+00    0.3123630818E+00    0.2384317911E-04    0.2343036306E-01    0.3711189203E+00
    0.4700000000E+07    0.6566472204E+00    0.3122953122E+00    0.2329676288E-04    0.2343220254E-01    0.3711884957E+00
    0.4900000000E+07    0.6566470753E+00    0.3122303523E+00    0.2278487420E-04    0.2343396326E-01    0.3712551524E+00
    0.1000000000E+07    0.6565748635E+00    0.3146907466E+00    0.5316616821E-04    0.2336419079E-01    0.3686933736E+00
    0.3000000000E+07    0.6566442184E+00    0.3129940954E+00    0.2959686456E-04    0.2341308277E-01    0.3704690956E+00
    0.5000000000E+07    0.6566469832E+00    0.3121988549E+00    0.2254077649E-04    0.2343481613E-01    0.3712874608E+00
    0.7000000000E+07    0.6566436020E+00    0.3116738387E+00    0.1883914149E-04    0.2344896061E-01    0.3718249832E+00
    0.9000000000E+07    0.6566392009E+00    0.3112812527E+00    0.1647669878E-04    0.2345946545E-01    0.3722258534E+00
    0.1100000000E+08    0.6566347950E+00    0.3109675647E+00    0.1480488533E-04    0.2346782581E-01    0.3725456261E+00
    0.1300000000E+08    0.6566306321E+00    0.3107063073E+00    0.1354326398E-04    0.2347477077E-01    0.3728116416E+00
    0.1500000000E+08    0.6566267622E+00    0.3104824383E+00    0.1254838164E-04    0.2348071108E-01    0.3730393909E+00
    0.1700000000E+08    0.6566231771E+00    0.3102865842E+00    0.1173830477E-04    0.2348590112E-01    0.3732385059E+00
    0.1900000000E+08    0.6566198520E+00    0.3101125072E+00    0.1106242025E-04    0.2349050943E-01    0.3734153857E+00
    0.2100000000E+08    0.6566167593E+00    0.3099558458E+00    0.1048756868E-04    0.2349465343E-01    0.3735744988E+00
    0.2300000000E+08    0.6566138727E+00    0.3098134303E+00    0.9991006515E-05    0.2349841824E-01    0.3737190889E+00
    0.2500000000E+08    0.6566111691E+00    0.3096828848E+00    0.9556550069E-05    0.2350186751E-01    0.3738515854E+00
    0.2700000000E+08    0.6566086282E+00    0.3095623821E+00    0.9172330645E-05    0.2350505011E-01    0.3739738552E+00
