  Pressure (Pa) 22mC5-400 (mol/kg) 3mC6-400 (mol/kg) 33mC5-400 (mol/kg) 23mC5-400 (mol/kg) C7-400 (mol/kg)
    0.1000000000E+01    0.2651702734E-02    0.4224415006E-02    0.1295391882E-03    0.3724879511E-03    0.1713732892E-02
    0.3000000000E+01    0.7882999771E-02    0.1245226594E-01    0.3807978695E-03    0.1107343719E-02    0.5051973284E-02
    0.5000000000E+01    0.1302034520E-01    0.2039812843E-01    0.6220621335E-03    0.1829013662E-02    0.8276346263E-02
    0.7000000000E+01    0.1806628698E-01    0.2807628531E-01    0.8538211862E-03    0.2537855275E-02    0.1139261001E-01
    0.9000000000E+01    0.2302328140E-01    0.3550007035E-01    0.1076533466E-02    0.3234213194E-02    0.1440614040E-01
    0.1100000000E+02    0.2789369714E-01    0.4268194577E-01    0.1290629058E-02    0.3918419765E-02    0.1732196219E-01
    0.1300000000E+02    0.3267981916E-01    0.4963357231E-01    0.1496511880E-02    0.4590795587E-02    0.2014477728E-01
    0.1500000000E+02    0.3738385235E-01    0.5636587270E-01    0.1694561667E-02    0.5251650027E-02    0.2287899022E-01
    0.1700000000E+02    0.4200792500E-01    0.6288908908E-01    0.1885135777E-02    0.5901281707E-02    0.2552873136E-01
    0.1900000000E+02    0.4655409210E-01    0.6921283527E-01    0.2068570827E-02    0.6539978965E-02    0.2809787788E-01
    0.2100000000E+02    0.5102433847E-01    0.7534614416E-01    0.2245184196E-02    0.7168020295E-02    0.3059007291E-01
    0.2300000000E+02    0.5542058171E-01    0.8129751099E-01    0.2415275391E-02    0.7785674761E-02    0.3300874290E-01
    0.2500000000E+02    0.5974467506E-01    0.8707493278E-01    0.2579127293E-02    0.8393202397E-02    0.3535711356E-01
    0.2700000000E+02    0.6399841002E-01    0.9268594430E-01    0.2737007309E-02    0.8990854576E-02    0.3763822430E-01
    0.2900000000E+02    0.6818351894E-01    0.9813765101E-01    0.2889168419E-02    0.9578874374E-02    0.3985494155E-01
    0.3100000000E+02    0.7230167744E-01    0.1034367592E+00    0.3035850139E-02    0.1015749690E-01    0.4200997083E-01
    0.3300000000E+02    0.7635450669E-01    0.1085896038E+00    0.3177279415E-02    0.1072694964E-01    0.4410586796E-01
    0.3500000000E+02    0.8034357561E-01    0.1136021733E+00    0.3313671430E-02    0.1128745274E-01    0.4614504925E-01
    0.3700000000E+02    0.8427040298E-01    0.1184801337E+00    0.3445230366E-02    0.1183921931E-01    0.4812980089E-01
    0.3900000000E+02    0.8813645939E-01    0.1232288495E+00    0.3572150095E-02    0.1238245569E-01    0.5006228761E-01
    0.4100000000E+02    0.9194316917E-01    0.1278534037E+00    0.3694614822E-02    0.1291736176E-01    0.5194456062E-01
    0.4300000000E+02    0.9569191219E-01    0.1323586159E+00    0.3812799681E-02    0.1344413113E-01    0.5377856502E-01
    0.4500000000E+02    0.9938402557E-01    0.1367490593E+00    0.3926871282E-02    0.1396295143E-01    0.5556614650E-01
    0.4700000000E+02    0.1030208053E+00    0.1410290763E+00    0.4036988224E-02    0.1447400452E-01    0.5730905767E-01
    0.4900000000E+02    0.1066035079E+00    0.1452027924E+00    0.4143301569E-02    0.1497746671E-01    0.5900896385E-01
    0.1000000000E+02    0.2546916688E-01    0.3912049996E-01    0.1184632514E-02    0.3577815091E-02    0.1587596374E-01
    0.3000000000E+02    0.7025086442E-01    0.1008058756E+00    0.2963179734E-02    0.9869345904E-02    0.4094000406E-01
    0.5000000000E+02    0.1083749625E+00    0.1472510211E+00    0.4195077147E-02    0.1522640485E-01    0.5984328794E-01
    0.7000000000E+02    0.1412429359E+00    0.1834923372E+00    0.5062525433E-02    0.1984564626E-01    0.7461820748E-01
    0.9000000000E+02    0.1698865931E+00    0.2125660468E+00    0.5678015571E-02    0.2387186067E-01    0.8649071489E-01
    0.1100000000E+03    0.1950825353E+00    0.2364116503E+00    0.6114541614E-02    0.2741403194E-01    0.9624438572E-01
    0.1300000000E+03    0.2174266042E+00    0.2563262272E+00    0.6421298253E-02    0.3055578145E-01    0.1044035530E+00
    0.1500000000E+03    0.2373837147E+00    0.2732101671E+00    0.6632441143E-02    0.3336235954E-01    0.1113323996E+00
    0.1700000000E+03    0.2553220632E+00    0.2877081082E+00    0.6772257495E-02    0.3588544485E-01    0.1172918124E+00
    0.1900000000E+03    0.2715371363E+00    0.3002937638E+00    0.6858358062E-02    0.3816651292E-01    0.1224736134E+00
    0.2100000000E+03    0.2862688981E+00    0.3113230803E+00    0.6903721306E-02    0.4023924769E-01    0.1270220182E+00
    0.2300000000E+03    0.2997143142E+00    0.3210687127E+00    0.6918042987E-02    0.4213129881E-01    0.1310475583E+00
    0.2500000000E+03    0.3120366244E+00    0.3297430560E+00    0.6908650371E-02    0.4386558275E-01    0.1346363847E+00
    0.2700000000E+03    0.3233723086E+00    0.3375140326E+00    0.6881135228E-02    0.4546126031E-01    0.1378566476E+00
    0.2900000000E+03    0.3338363897E+00    0.3445161612E+00    0.6839800494E-02    0.4693448068E-01    0.1407629712E+00
    0.3100000000E+03    0.3435265183E+00    0.3508584758E+00    0.6787980695E-02    0.4829895473E-01    0.1433996555E+00
    0.3300000000E+03    0.3525261554E+00    0.3566302922E+00    0.6728275156E-02    0.4956640160E-01    0.1458030094E+00
    0.3500000000E+03    0.3609070771E+00    0.3619054770E+00    0.6662719945E-02    0.5074690024E-01    0.1480030779E+00
    0.3700000000E+03    0.3687313641E+00    0.3667456517E+00    0.6592916088E-02    0.5184916861E-01    0.1500249392E+00
    0.3900000000E+03    0.3760529966E+00    0.3712026318E+00    0.6520126182E-02    0.5288078753E-01    0.1518896925E+00
    0.4100000000E+03    0.3829191429E+00    0.3753203042E+00    0.6445347857E-02    0.5384838149E-01    0.1536152181E+00
    0.4300000000E+03    0.3893712078E+00    0.3791360895E+00    0.6369370108E-02    0.5475776589E-01    0.1552167703E+00
    0.4500000000E+03    0.3954456928E+00    0.3826820916E+00    0.6292816833E-02    0.5561406768E-01    0.1567074432E+00
    0.4700000000E+03    0.4011749055E+00    0.3859860105E+00    0.6216180690E-02    0.5642182500E-01    0.1580985411E+00
    0.4900000000E+03    0.4065875490E+00    0.3890718732E+00    0.6139849625E-02    0.5718506989E-01    0.1593998744E+00
    0.1000000000E+03    0.1828747292E+00    0.2250497984E+00    0.5915142373E-02    0.2569772596E-01    0.9159499382E-01
    0.3000000000E+03    0.3387726814E+00    0.3477638070E+00    0.6815023802E-02    0.4762953639E-01    0.1421125843E+00
    0.5000000000E+03    0.4091832641E+00    0.3905396851E+00    0.6101896329E-02    0.5755113903E-01    0.1600195966E+00
    0.7000000000E+03    0.4494287373E+00    0.4123467753E+00    0.5403655625E-02    0.6323122402E-01    0.1692958711E+00
    0.9000000000E+03    0.4754796467E+00    0.4255785139E+00    0.4844089427E-02    0.6691377407E-01    0.1750129412E+00
    0.1100000000E+04    0.4937125276E+00    0.4344635780E+00    0.4402618326E-02    0.6949524175E-01    0.1789112457E+00
    0.1300000000E+04    0.5071814622E+00    0.4408410662E+00    0.4049422999E-02    0.7140522403E-01    0.1817519374E+00
    0.1500000000E+04    0.5175338003E+00    0.4456401766E+00    0.3761413276E-02    0.7287556779E-01    0.1839216808E+00
    0.1700000000E+04    0.5257365222E+00    0.4493812431E+00    0.3522179295E-02    0.7404243824E-01    0.1856381619E+00
    0.1900000000E+04    0.5323945186E+00    0.4523784374E+00    0.3320148188E-02    0.7499105840E-01    0.1870335134E+00
    0.2100000000E+04    0.5379054781E+00    0.4548327169E+00    0.3147053656E-02    0.7577748844E-01    0.1881926968E+00
    0.2300000000E+04    0.5425415498E+00    0.4568786285E+00    0.2996881396E-02    0.7644011218E-01    0.1891728921E+00
    0.2500000000E+04    0.5464952181E+00    0.4586096583E+00    0.2865170187E-02    0.7700609192E-01    0.1900140350E+00
    0.2700000000E+04    0.5499064400E+00    0.4600927898E+00    0.2748548913E-02    0.7749518805E-01    0.1907448865E+00
    0.2900000000E+04    0.5528794029E+00    0.4613772764E+00    0.2644426056E-02    0.7792211848E-01    0.1913867027E+00
    0.3100000000E+04    0.5554932554E+00    0.4625001443E+00    0.2550777897E-02    0.7829806990E-01    0.1919555442E+00
    0.3300000000E+04    0.5578091957E+00    0.4634897660E+00    0.2466001433E-02    0.7863169656E-01    0.1924637798E+00
    0.3500000000E+04    0.5598752829E+00    0.4643682484E+00    0.2388810392E-02    0.7892979819E-01    0.1929210955E+00
    0.3700000000E+04    0.5617297803E+00    0.4651530718E+00    0.2318160480E-02    0.7919779143E-01    0.1933351885E+00
    0.3900000000E+04    0.5634035278E+00    0.4658582403E+00    0.2253194775E-02    0.7944004436E-01    0.1937122561E+00
    0.4100000000E+04    0.5649216574E+00    0.4664951044E+00    0.2193203244E-02    0.7966011847E-01    0.1940573459E+00
    0.4300000000E+04    0.5663048544E+00    0.4670729608E+00    0.2137592321E-02    0.7986094664E-01    0.1943746129E+00
    0.4500000000E+04    0.5675702978E+00    0.4675994970E+00    0.2085861754E-02    0.8004496593E-01    0.1946675096E+00
    0.4700000000E+04    0.5687323731E+00    0.4680811245E+00    0.2037586778E-02    0.8021421813E-01    0.1949389298E+00
    0.4900000000E+04    0.5698032168E+00    0.4685232330E+00    0.1992404233E-02    0.8037042678E-01    0.1951913176E+00
    0.1000000000E+04    0.4853361532E+00    0.4304185529E+00    0.4610576259E-02    0.6830878476E-01    0.1771291751E+00
    0.3000000000E+04    0.5542270374E+00    0.4619569690E+00    0.2596401299E-02    0.7811587549E-01    0.1916793994E+00
    0.5000000000E+04    0.5703077106E+00    0.4687309216E+00    0.1970873246E-02    0.8044410633E-01    0.1953110366E+00
    0.7000000000E+04    0.5774496430E+00    0.4716208792E+00    0.1645561342E-02    0.8149484696E-01    0.1970790746E+00
    0.9000000000E+04    0.5814784237E+00    0.4731924997E+00    0.1439075178E-02    0.8209693828E-01    0.1981667779E+00
    0.1100000000E+05    0.5840626126E+00    0.4741635605E+00    0.1293402219E-02    0.8248914898E-01    0.1989227427E+00
    0.1300000000E+05    0.5858596482E+00    0.4748127785E+00    0.1183662744E-02    0.8276608022E-01    0.1994889945E+00
    0.1500000000E+05    0.5871808043E+00    0.4752705692E+00    0.1097209767E-02    0.8297276612E-01    0.1999351094E+00
    0.1700000000E+05    0.5881924593E+00    0.4756058951E+00    0.1026853005E-02    0.8313340711E-01    0.2002995455E+00
    0.1900000000E+05    0.5889915896E+00    0.4758585368E+00    0.9681656196E-03    0.8326218402E-01    0.2006054636E+00
    0.2100000000E+05    0.5896385267E+00    0.4760529887E+00    0.9182544915E-03    0.8336796568E-01    0.2008677369E+00
    0.2300000000E+05    0.5901727647E+00    0.4762051189E+00    0.8751389164E-03    0.8345658835E-01    0.2010964055E+00
    0.2500000000E+05    0.5906212372E+00    0.4763256349E+00    0.8374114177E-03    0.8353205294E-01    0.2012985234E+00
    0.2700000000E+05    0.5910029404E+00    0.4764220075E+00    0.8040408635E-03    0.8359719596E-01    0.2014792116E+00
    0.2900000000E+05    0.5913316545E+00    0.4764995966E+00    0.7742523451E-03    0.8365408575E-01    0.2016422905E+00
    0.3100000000E+05    0.5916176182E+00    0.4765623396E+00    0.7474507972E-03    0.8370426696E-01    0.2017906769E+00
    0.3300000000E+05    0.5918685967E+00    0.4766131885E+00    0.7231707077E-03    0.8374891712E-01    0.2019266425E+00
    0.3500000000E+05    0.5920905855E+00    0.4766543955E+00    0.7010420035E-03    0.8378895005E-01    0.2020519868E+00
    0.3700000000E+05    0.5922882872E+00    0.4766877059E+00    0.6807663043E-03    0.8382508615E-01    0.2021681572E+00
    0.3900000000E+05    0.5924654418E+00    0.4767144905E+00    0.6621000165E-03    0.8385790125E-01    0.2022763331E+00
    0.4100000000E+05    0.5926250605E+00    0.4767358391E+00    0.6448420549E-03    0.8388786135E-01    0.2023774873E+00
    0.4300000000E+05    0.5927695954E+00    0.4767526277E+00    0.6288247665E-03    0.8391534779E-01    0.2024724304E+00
    0.4500000000E+05    0.5929010627E+00    0.4767655668E+00    0.6139071145E-03    0.8394067572E-01    0.2025618441E+00
    0.4700000000E+05    0.5930211359E+00    0.4767752385E+00    0.5999694865E-03    0.8396410801E-01    0.2026463071E+00
    0.4900000000E+05    0.5931312151E+00    0.4767821228E+00    0.5869096878E-03    0.8398586571E-01    0.2027263143E+00
    0.1000000000E+05    0.5828979125E+00    0.4737304815E+00    0.1360609393E-02    0.8231163747E-01    0.1985748426E+00
    0.3000000000E+05    0.5914794465E+00    0.4765326202E+00    0.7605098693E-03    0.8367993414E-01    0.2017181655E+00
    0.5000000000E+05    0.5931828833E+00    0.4767846471E+00    0.5806810175E-03    0.8399617626E-01    0.2027647824E+00
    0.7000000000E+05    0.5938999889E+00    0.4767573772E+00    0.4861363479E-03    0.8414783609E-01    0.2033783207E+00
    0.9000000000E+05    0.5942905563E+00    0.4766658676E+00    0.4256950593E-03    0.8424082733E-01    0.2038088052E+00
    0.1100000000E+06    0.5945339744E+00    0.4765584752E+00    0.3828670308E-03    0.8430550975E-01    0.2041392065E+00
    0.1300000000E+06    0.5946988974E+00    0.4764497935E+00    0.3505130877E-03    0.8435408428E-01    0.2044068043E+00
    0.1500000000E+06    0.5948171823E+00    0.4763447419E+00    0.3249772402E-03    0.8439248103E-01    0.2046314318E+00
    0.1700000000E+06    0.5949055922E+00    0.4762449130E+00    0.3041693409E-03    0.8442396232E-01    0.2048248580E+00
    0.1900000000E+06    0.5949737707E+00    0.4761506382E+00    0.2867971439E-03    0.8445048725E-01    0.2049946236E+00
    0.2100000000E+06    0.5950276491E+00    0.4760617539E+00    0.2720133982E-03    0.8447331183E-01    0.2051458430E+00
    0.2300000000E+06    0.5950710701E+00    0.4759779114E+00    0.2592366042E-03    0.8449328327E-01    0.2052821418E+00
    0.2500000000E+06    0.5951066288E+00    0.4758987081E+00    0.2480527361E-03    0.8451099669E-01    0.2054061813E+00
    0.2700000000E+06    0.5951361394E+00    0.4758237437E+00    0.2381579964E-03    0.8452688425E-01    0.2055199720E+00
    0.2900000000E+06    0.5951609063E+00    0.4757526430E+00    0.2293237862E-03    0.8454126852E-01    0.2056250689E+00
    0.3100000000E+06    0.5951818904E+00    0.4756850642E+00    0.2213743777E-03    0.8455439599E-01    0.2057226995E+00
    0.3300000000E+06    0.5951998149E+00    0.4756207002E+00    0.2141721835E-03    0.8456645878E-01    0.2058138493E+00
    0.3500000000E+06    0.5952152333E+00    0.4755592767E+00    0.2076077465E-03    0.8457760931E-01    0.2058993212E+00
    0.3700000000E+06    0.5952285766E+00    0.4755005492E+00    0.2015927620E-03    0.8458797026E-01    0.2059797781E+00
    0.3900000000E+06    0.5952401847E+00    0.4754443002E+00    0.1960551032E-03    0.8459764177E-01    0.2060557737E+00
    0.4100000000E+06    0.5952503293E+00    0.4753903355E+00    0.1909352047E-03    0.8460670652E-01    0.2061277749E+00
    0.4300000000E+06    0.5952592299E+00    0.4753384819E+00    0.1861833870E-03    0.8461523350E-01    0.2061961790E+00
    0.4500000000E+06    0.5952670656E+00    0.4752885840E+00    0.1817578448E-03    0.8462328083E-01    0.2062613273E+00
    0.4700000000E+06    0.5952739839E+00    0.4752405024E+00    0.1776231142E-03    0.8463089790E-01    0.2063235145E+00
    0.4900000000E+06    0.5952801072E+00    0.4751941117E+00    0.1737488890E-03    0.8463812701E-01    0.2063829973E+00
    0.1000000000E+06    0.5944250729E+00    0.4766128858E+00    0.4026440738E-03    0.8427572662E-01    0.2039835984E+00
    0.3000000000E+06    0.5951718214E+00    0.4757184334E+00    0.2252478395E-03    0.8454797627E-01    0.2056747510E+00
    0.5000000000E+06    0.5952829035E+00    0.4751715147E+00    0.1719011737E-03    0.8464160767E-01    0.2064117959E+00
    0.7000000000E+06    0.5953149367E+00    0.4747859186E+00    0.1438594632E-03    0.8469755636E-01    0.2068881610E+00
    0.9000000000E+06    0.5953241803E+00    0.4744882273E+00    0.1259395930E-03    0.8473730707E-01    0.2072406109E+00
    0.1100000000E+07    0.5953246422E+00    0.4742457073E+00    0.1132462134E-03    0.8476808953E-01    0.2075204274E+00
    0.1300000000E+07    0.5953212159E+00    0.4740410364E+00    0.1036599823E-03    0.8479318907E-01    0.2077524712E+00
    0.1500000000E+07    0.5953159581E+00    0.4738639495E+00    0.9609578194E-04    0.8481436982E-01    0.2079506921E+00
    0.1700000000E+07    0.5953098390E+00    0.4737078640E+00    0.8993338540E-04    0.8483268672E-01    0.2081237034E+00
    0.1900000000E+07    0.5953033517E+00    0.4735683058E+00    0.8478942072E-04    0.8484882016E-01    0.2082771984E+00
    0.2100000000E+07    0.5952967591E+00    0.4734420948E+00    0.8041258684E-04    0.8486323423E-01    0.2084151364E+00
    0.2300000000E+07    0.5952902052E+00    0.4733268900E+00    0.7663044047E-04    0.8487625953E-01    0.2085403824E+00
    0.2500000000E+07    0.5952837692E+00    0.4732209175E+00    0.7332022491E-04    0.8488813979E-01    0.2086550767E+00
    0.2700000000E+07    0.5952774938E+00    0.4731228010E+00    0.7039188036E-04    0.8489905983E-01    0.2087608599E+00
    0.2900000000E+07    0.5952714003E+00    0.4730314511E+00    0.6777764969E-04    0.8490916314E-01    0.2088590177E+00
    0.3100000000E+07    0.5952654976E+00    0.4729459909E+00    0.6542545410E-04    0.8491856329E-01    0.2089505761E+00
    0.3300000000E+07    0.5952597870E+00    0.4728657037E+00    0.6329452325E-04    0.8492735174E-01    0.2090363671E+00
    0.3500000000E+07    0.5952542653E+00    0.4727899963E+00    0.6135242626E-04    0.8493560319E-01    0.2091170748E+00
    0.3700000000E+07    0.5952489270E+00    0.4727183722E+00    0.5957300226E-04    0.8494337946E-01    0.2091932680E+00
    0.3900000000E+07    0.5952437651E+00    0.4726504119E+00    0.5793488538E-04    0.8495073229E-01    0.2092654255E+00
    0.4100000000E+07    0.5952387717E+00    0.4725857570E+00    0.5642043245E-04    0.8495770541E-01    0.2093339536E+00
    0.4300000000E+07    0.5952339388E+00    0.4725240998E+00    0.5501492966E-04    0.8496433611E-01    0.2093992000E+00
    0.4500000000E+07    0.5952292587E+00    0.4724651734E+00    0.5370599644E-04    0.8497065643E-01    0.2094614650E+00
    0.4700000000E+07    0.5952247234E+00    0.4724087453E+00    0.5248313097E-04    0.8497669414E-01    0.2095210093E+00
    0.4900000000E+07    0.5952203257E+00    0.4723546114E+00    0.5133735940E-04    0.8498247343E-01    0.2095780608E+00
    0.1000000000E+07    0.5953251011E+00    0.4743613793E+00    0.1191072323E-03    0.8475356291E-01    0.2073876853E+00
    0.3000000000E+07    0.5952684249E+00    0.4729880329E+00    0.6657157056E-04    0.8491394495E-01    0.2089055659E+00
    0.5000000000E+07    0.5952181761E+00    0.4723283476E+00    0.5079092860E-04    0.8498527291E-01    0.2096057154E+00
    0.7000000000E+07    0.5951808940E+00    0.4718891681E+00    0.4249936537E-04    0.8503170519E-01    0.2100660009E+00
    0.9000000000E+07    0.5951515469E+00    0.4715592135E+00    0.3720197089E-04    0.8506619457E-01    0.2104095235E+00
    0.1100000000E+08    0.5951274030E+00    0.4712947315E+00    0.3345020493E-04    0.8509364601E-01    0.2106837212E+00
    0.1300000000E+08    0.5951069107E+00    0.4710739388E+00    0.3061713966E-04    0.8511645174E-01    0.2109119461E+00
    0.1500000000E+08    0.5950891161E+00    0.4708843964E+00    0.2838185064E-04    0.8513595962E-01    0.2111074335E+00
    0.1700000000E+08    0.5950733939E+00    0.4707183256E+00    0.2656093404E-04    0.8515300451E-01    0.2112784150E+00
    0.1900000000E+08    0.5950593128E+00    0.4705705358E+00    0.2504103893E-04    0.8516813956E-01    0.2114303610E+00
    0.2100000000E+08    0.5950465632E+00    0.4704373892E+00    0.2374787099E-04    0.8518175021E-01    0.2115670922E+00
    0.2300000000E+08    0.5950349151E+00    0.4703162372E+00    0.2263045351E-04    0.8519411584E-01    0.2116913831E+00
    0.2500000000E+08    0.5950241936E+00    0.4702050914E+00    0.2165250039E-04    0.8520544540E-01    0.2118053120E+00
    0.2700000000E+08    0.5950142621E+00    0.4701024205E+00    0.2078739215E-04    0.8521589930E-01    0.2119104763E+00
