  Pressure (Pa) 22mC5-400 (mol/kg) 3mC6-400 (mol/kg) 33mC5-400 (mol/kg) 23mC5-400 (mol/kg) C7-400 (mol/kg)
    0.1000000000E+01    0.2649719604E-02    0.5295612770E-03    0.1946632486E-03    0.8374716472E-03    0.3437214693E-02
    0.3000000000E+01    0.7865510913E-02    0.1569721481E-02    0.5742806202E-03    0.2486000618E-02    0.1018913052E-01
    0.5000000000E+01    0.1297273331E-01    0.2585347131E-02    0.9413780293E-03    0.4100245448E-02    0.1678252400E-01
    0.7000000000E+01    0.1797480938E-01    0.3577299683E-02    0.1296444708E-02    0.5681286621E-02    0.2322295259E-01
    0.9000000000E+01    0.2287501859E-01    0.4546400689E-02    0.1639946674E-02    0.7230159448E-02    0.2951571650E-01
    0.1100000000E+02    0.2767650470E-01    0.5493434081E-02    0.1972328048E-02    0.8747856405E-02    0.3566587343E-01
    0.1300000000E+02    0.3238228271E-01    0.6419148298E-02    0.2294012277E-02    0.1023532932E-01    0.4167825227E-01
    0.1500000000E+02    0.3699524535E-01    0.7324258276E-02    0.2605403282E-02    0.1169349144E-01    0.4755746592E-01
    0.1700000000E+02    0.4151816925E-01    0.8209447299E-02    0.2906886532E-02    0.1312321934E-01    0.5330792324E-01
    0.1900000000E+02    0.4595372065E-01    0.9075368734E-02    0.3198830046E-02    0.1452535477E-01    0.5893384021E-01
    0.2100000000E+02    0.5030446087E-01    0.9922647651E-02    0.3481585333E-02    0.1590070635E-01    0.6443925035E-01
    0.2300000000E+02    0.5457285140E-01    0.1075188234E-01    0.3755488272E-02    0.1725005121E-01    0.6982801453E-01
    0.2500000000E+02    0.5876125870E-01    0.1156364572E-01    0.4020859942E-02    0.1857413645E-01    0.7510383006E-01
    0.2700000000E+02    0.6287195878E-01    0.1235848669E-01    0.4278007392E-02    0.1987368063E-01    0.8027023933E-01
    0.2900000000E+02    0.6690714144E-01    0.1313693135E-01    0.4527224372E-02    0.2114937512E-01    0.8533063779E-01
    0.3100000000E+02    0.7086891431E-01    0.1389948421E-01    0.4768792015E-02    0.2240188533E-01    0.9028828153E-01
    0.3300000000E+02    0.7475930673E-01    0.1464662924E-01    0.5002979481E-02    0.2363185194E-01    0.9514629434E-01
    0.3500000000E+02    0.7858027326E-01    0.1537883093E-01    0.5230044561E-02    0.2483989206E-01    0.9990767438E-01
    0.3700000000E+02    0.8233369718E-01    0.1609653528E-01    0.5450234247E-02    0.2602660028E-01    0.1045753004E+00
    0.3900000000E+02    0.8602139366E-01    0.1680017067E-01    0.5663785267E-02    0.2719254969E-01    0.1091519378E+00
    0.4100000000E+02    0.8964511282E-01    0.1749014875E-01    0.5870924589E-02    0.2833829285E-01    0.1136402438E+00
    0.4300000000E+02    0.9320654264E-01    0.1816686524E-01    0.6071869900E-02    0.2946436270E-01    0.1180427731E+00
    0.4500000000E+02    0.9670731168E-01    0.1883070069E-01    0.6266830053E-02    0.3057127343E-01    0.1223619824E+00
    0.4700000000E+02    0.1001489917E+00    0.1948202121E-01    0.6456005490E-02    0.3165952128E-01    0.1266002355E+00
    0.4900000000E+02    0.1035331000E+00    0.2012117915E-01    0.6639588645E-02    0.3272958534E-01    0.1307598071E+00
    0.1000000000E+02    0.2528791066E-01    0.5022628252E-02    0.1807500499E-02    0.7992844493E-02    0.3260831383E-01
    0.3000000000E+02    0.6889707547E-01    0.1352016354E-01    0.4648947265E-02    0.2177848765E-01    0.8782210574E-01
    0.5000000000E+02    0.1052040247E+00    0.2043630365E-01    0.6729341156E-02    0.3325794365E-01    0.1328107750E+00
    0.7000000000E+02    0.1359312228E+00    0.2617642090E-01    0.8272042233E-02    0.4297503920E-01    0.1701911510E+00
    0.9000000000E+02    0.1622951734E+00    0.3101809471E-01    0.9426167017E-02    0.5131387937E-01    0.2017557906E+00
    0.1100000000E+03    0.1851797688E+00    0.3515780700E-01    0.1029415214E-01    0.5855356548E-01    0.2287740154E+00
    0.1300000000E+03    0.2052429902E+00    0.3873855551E-01    0.1094807606E-01    0.6490187671E-01    0.2521699718E+00
    0.1500000000E+03    0.2229850154E+00    0.4186690248E-01    0.1143970365E-01    0.7051676996E-01    0.2726325923E+00
    0.1700000000E+03    0.2387930738E+00    0.4462389163E-01    0.1180687237E-01    0.7552054008E-01    0.2906860252E+00
    0.1900000000E+03    0.2529718048E+00    0.4707226095E-01    0.1207766733E-01    0.8000940400E-01    0.3067361773E+00
    0.2100000000E+03    0.2657643038E+00    0.4926133924E-01    0.1227321786E-01    0.8406014531E-01    0.3211023174E+00
    0.2300000000E+03    0.2773670277E+00    0.5123045019E-01    0.1240961067E-01    0.8773482003E-01    0.3340390530E+00
    0.2500000000E+03    0.2879405523E+00    0.5301132918E-01    0.1249922365E-01    0.9108415337E-01    0.3457519351E+00
    0.2700000000E+03    0.2976174729E+00    0.5462987147E-01    0.1255167131E-01    0.9415003398E-01    0.3564087500E+00
    0.2900000000E+03    0.3065082946E+00    0.5610741809E-01    0.1257448508E-01    0.9696737408E-01    0.3661478261E+00
    0.3100000000E+03    0.3147058874E+00    0.5746171620E-01    0.1257360952E-01    0.9956551618E-01    0.3750842390E+00
    0.3300000000E+03    0.3222888996E+00    0.5870764601E-01    0.1255376869E-01    0.1019693108E+00    0.3833145100E+00
    0.3500000000E+03    0.3293244025E+00    0.5985777808E-01    0.1251873973E-01    0.1041999519E+00    0.3909202088E+00
    0.3700000000E+03    0.3358699630E+00    0.6092280535E-01    0.1247155920E-01    0.1062756311E+00    0.3979707463E+00
    0.3900000000E+03    0.3419752830E+00    0.6191188164E-01    0.1241468021E-01    0.1082120557E+00    0.4045255647E+00
    0.4100000000E+03    0.3476835097E+00    0.6283288939E-01    0.1235009317E-01    0.1100228621E+00    0.4106358686E+00
    0.4300000000E+03    0.3530322894E+00    0.6369265336E-01    0.1227941917E-01    0.1117199492E+00    0.4163460082E+00
    0.4500000000E+03    0.3580546238E+00    0.6449711254E-01    0.1220398293E-01    0.1133137483E+00    0.4216945916E+00
    0.4700000000E+03    0.3627795700E+00    0.6525145965E-01    0.1212487001E-01    0.1148134447E+00    0.4267153880E+00
    0.4900000000E+03    0.3672328170E+00    0.6596025493E-01    0.1204297208E-01    0.1162271591E+00    0.4314380641E+00
    0.1000000000E+03    0.1741269118E+00    0.3316574283E-01    0.9890850909E-02    0.5505675556E-01    0.2157688886E+00
    0.3000000000E+03    0.3106885299E+00    0.5679898324E-01    0.1257668819E-01    0.9829219724E-01    0.3707099447E+00
    0.5000000000E+03    0.3693647792E+00    0.6629884617E-01    0.1200121339E-01    0.1169040574E+00    0.4336959078E+00
    0.7000000000E+03    0.4021157940E+00    0.7144251098E-01    0.1114113545E-01    0.1273115824E+00    0.4681725557E+00
    0.9000000000E+03    0.4230079431E+00    0.7467129575E-01    0.1035635698E-01    0.1339626995E+00    0.4900466638E+00
    0.1100000000E+04    0.4374832552E+00    0.7688724097E-01    0.9685639182E-02    0.1385793424E+00    0.5052182321E+00
    0.1300000000E+04    0.4480968108E+00    0.7850195708E-01    0.9116104807E-02    0.1419704832E+00    0.5163895656E+00
    0.1500000000E+04    0.4562074338E+00    0.7973033986E-01    0.8628954063E-02    0.1445666105E+00    0.5249766860E+00
    0.1700000000E+04    0.4626042363E+00    0.8069565866E-01    0.8207884699E-02    0.1466178764E+00    0.5317948077E+00
    0.1900000000E+04    0.4677766850E+00    0.8147373521E-01    0.7840053383E-02    0.1482795392E+00    0.5373471643E+00
    0.2100000000E+04    0.4720443784E+00    0.8211379064E-01    0.7515556516E-02    0.1496530369E+00    0.5419616057E+00
    0.2300000000E+04    0.4756247819E+00    0.8264918084E-01    0.7226750167E-02    0.1508074332E+00    0.5458610951E+00
    0.2500000000E+04    0.4786709631E+00    0.8310331721E-01    0.6967682587E-02    0.1517913700E+00    0.5492026744E+00
    0.2700000000E+04    0.4812937602E+00    0.8349311812E-01    0.6733666495E-02    0.1526400903E+00    0.5521002289E+00
    0.2900000000E+04    0.4835753882E+00    0.8383111528E-01    0.6520966019E-02    0.1533797523E+00    0.5546384096E+00
    0.3100000000E+04    0.4855781080E+00    0.8412678949E-01    0.6326568652E-02    0.1540301771E+00    0.5568814815E+00
    0.3300000000E+04    0.4873499267E+00    0.8438744607E-01    0.6148018290E-02    0.1546066574E+00    0.5588791345E+00
    0.3500000000E+04    0.4889284507E+00    0.8461880503E-01    0.5983291847E-02    0.1551211801E+00    0.5606704101E+00
    0.3700000000E+04    0.4903435552E+00    0.8482540894E-01    0.5830707077E-02    0.1555832734E+00    0.5622864194E+00
    0.3900000000E+04    0.4916192707E+00    0.8501091097E-01    0.5688852911E-02    0.1560006063E+00    0.5637522685E+00
    0.4100000000E+04    0.4927751447E+00    0.8517828229E-01    0.5556536223E-02    0.1563794208E+00    0.5650884461E+00
    0.4300000000E+04    0.4938272391E+00    0.8532996404E-01    0.5432740699E-02    0.1567248490E+00    0.5663118434E+00
    0.4500000000E+04    0.4947888731E+00    0.8546798035E-01    0.5316594725E-02    0.1570411491E+00    0.5674365139E+00
    0.4700000000E+04    0.4956711841E+00    0.8559402363E-01    0.5207346077E-02    0.1573318842E+00    0.5684742478E+00
    0.4900000000E+04    0.4964835563E+00    0.8570951980E-01    0.5104341788E-02    0.1576000581E+00    0.5694350125E+00
    0.1000000000E+04    0.4308483783E+00    0.7587356858E-01    0.1000719576E-01    0.1364622322E+00    0.4982583955E+00
    0.3000000000E+04    0.4846083293E+00    0.8398374319E-01    0.6421644370E-02    0.1537150740E+00    0.5557934401E+00
    0.5000000000E+04    0.4968660518E+00    0.8576369807E-01    0.5055000320E-02    0.1577264969E+00    0.5698892331E+00
    0.7000000000E+04    0.5022638111E+00    0.8650916300E-01    0.4289485011E-02    0.1595260274E+00    0.5764545496E+00
    0.9000000000E+04    0.5052921199E+00    0.8690191844E-01    0.3784590384E-02    0.1605541599E+00    0.5803121330E+00
    0.1100000000E+05    0.5072262775E+00    0.8713480051E-01    0.3420022544E-02    0.1612227253E+00    0.5828769690E+00
    0.1300000000E+05    0.5085663115E+00    0.8728284146E-01    0.3141103121E-02    0.1616942336E+00    0.5847192601E+00
    0.1500000000E+05    0.5095481602E+00    0.8738107254E-01    0.2918947445E-02    0.1620458480E+00    0.5861145491E+00
    0.1700000000E+05    0.5102976035E+00    0.8744792931E-01    0.2736677544E-02    0.1623189604E+00    0.5872128940E+00
    0.1900000000E+05    0.5108877962E+00    0.8749397602E-01    0.2583687231E-02    0.1625377933E+00    0.5881032819E+00
    0.2100000000E+05    0.5113641654E+00    0.8752566527E-01    0.2452934103E-02    0.1627174806E+00    0.5888419719E+00
    0.2300000000E+05    0.5117563996E+00    0.8754713886E-01    0.2339535456E-02    0.1628679730E+00    0.5894663530E+00
    0.2500000000E+05    0.5120847151E+00    0.8756116302E-01    0.2239985815E-02    0.1629960877E+00    0.5900022906E+00
    0.2700000000E+05    0.5123633507E+00    0.8756964619E-01    0.2151695060E-02    0.1631066551E+00    0.5904682764E+00
    0.2900000000E+05    0.5126026220E+00    0.8757394102E-01    0.2072702693E-02    0.1632031959E+00    0.5908779000E+00
    0.3100000000E+05    0.5128101843E+00    0.8757502832E-01    0.2001494003E-02    0.1632883383E+00    0.5912413845E+00
    0.3300000000E+05    0.5129918362E+00    0.8757363319E-01    0.1936877814E-02    0.1633640852E+00    0.5915665764E+00
    0.3500000000E+05    0.5131520501E+00    0.8757030074E-01    0.1877902836E-02    0.1634319905E+00    0.5918596042E+00
    0.3700000000E+05    0.5132943300E+00    0.8756544672E-01    0.1823799000E-02    0.1634932789E+00    0.5921253286E+00
    0.3900000000E+05    0.5134214595E+00    0.8755939225E-01    0.1773935413E-02    0.1635489290E+00    0.5923676569E+00
    0.4100000000E+05    0.5135356776E+00    0.8755238814E-01    0.1727789645E-02    0.1635997328E+00    0.5925897688E+00
    0.4300000000E+05    0.5136388054E+00    0.8754463218E-01    0.1684924905E-02    0.1636463380E+00    0.5927942791E+00
    0.4500000000E+05    0.5137323392E+00    0.8753628170E-01    0.1644972825E-02    0.1636892800E+00    0.5929833600E+00
    0.4700000000E+05    0.5138175192E+00    0.8752746280E-01    0.1607620287E-02    0.1637290053E+00    0.5931588315E+00
    0.4900000000E+05    0.5138953825E+00    0.8751827719E-01    0.1572599221E-02    0.1637658892E+00    0.5933222308E+00
    0.1000000000E+05    0.5063554802E+00    0.8703225311E-01    0.3589047783E-02    0.1609202518E+00    0.5817102783E+00
    0.3000000000E+05    0.5127099681E+00    0.8757483533E-01    0.2036206292E-02    0.1632470544E+00    0.5910648725E+00
    0.5000000000E+05    0.5139318487E+00    0.8751357330E-01    0.1555889533E-02    0.1637833669E+00    0.5933998200E+00
    0.7000000000E+05    0.5144309621E+00    0.8741375998E-01    0.1301777829E-02    0.1640403909E+00    0.5945525178E+00
    0.9000000000E+05    0.5146943434E+00    0.8731702450E-01    0.1138967855E-02    0.1641979310E+00    0.5952687594E+00
    0.1100000000E+06    0.5148530405E+00    0.8722899010E-01    0.1023501590E-02    0.1643074856E+00    0.5957698306E+00
    0.1300000000E+06    0.5149567179E+00    0.8714960641E-01    0.9362475156E-03    0.1643897424E+00    0.5961467172E+00
    0.1500000000E+06    0.5150281988E+00    0.8707780982E-01    0.8673793631E-03    0.1644547539E+00    0.5964443757E+00
    0.1700000000E+06    0.5150793763E+00    0.8701248272E-01    0.8112692105E-03    0.1645080494E+00    0.5966878446E+00
    0.1900000000E+06    0.5151170258E+00    0.8695265505E-01    0.7644334824E-03    0.1645529487E+00    0.5968923026E+00
    0.2100000000E+06    0.5151452725E+00    0.8689752522E-01    0.7245864213E-03    0.1645915802E+00    0.5970675525E+00
    0.2300000000E+06    0.5151667619E+00    0.8684643869E-01    0.6901584055E-03    0.1646253793E+00    0.5972202440E+00
    0.2500000000E+06    0.5151832625E+00    0.8679886037E-01    0.6600314805E-03    0.1646553543E+00    0.5973550688E+00
    0.2700000000E+06    0.5151959969E+00    0.8675435018E-01    0.6333851432E-03    0.1646822372E+00    0.5974754455E+00
    0.2900000000E+06    0.5152058350E+00    0.8671254327E-01    0.6096019030E-03    0.1647065746E+00    0.5975839324E+00
    0.3100000000E+06    0.5152134105E+00    0.8667313458E-01    0.5882070495E-03    0.1647287838E+00    0.5976824880E+00
    0.3300000000E+06    0.5152191946E+00    0.8663586690E-01    0.5688288944E-03    0.1647491905E+00    0.5977726410E+00
    0.3500000000E+06    0.5152235440E+00    0.8660052165E-01    0.5511717460E-03    0.1647680525E+00    0.5978556051E+00
    0.3700000000E+06    0.5152267329E+00    0.8656691163E-01    0.5349970632E-03    0.1647855779E+00    0.5979323579E+00
    0.3900000000E+06    0.5152289752E+00    0.8653487544E-01    0.5201100191E-03    0.1648019361E+00    0.5980036974E+00
    0.4100000000E+06    0.5152304393E+00    0.8650427298E-01    0.5063497300E-03    0.1648172673E+00    0.5980702824E+00
    0.4300000000E+06    0.5152312599E+00    0.8647498192E-01    0.4935820250E-03    0.1648316881E+00    0.5981326623E+00
    0.4500000000E+06    0.5152315451E+00    0.8644689484E-01    0.4816940112E-03    0.1648452970E+00    0.5981913001E+00
    0.4700000000E+06    0.5152313829E+00    0.8641991693E-01    0.4705899303E-03    0.1648581777E+00    0.5982465885E+00
    0.4900000000E+06    0.5152308452E+00    0.8639396410E-01    0.4601879601E-03    0.1648704018E+00    0.5982988639E+00
    0.1000000000E+06    0.5147827263E+00    0.8727187682E-01    0.1076828522E-02    0.1642570438E+00    0.5955389151E+00
    0.3000000000E+06    0.5152098730E+00    0.8669255623E-01    0.5986312077E-03    0.1647179231E+00    0.5976343475E+00
    0.5000000000E+06    0.5152304545E+00    0.8638134835E-01    0.4552278811E-03    0.1648762872E+00    0.5983239637E+00
    0.7000000000E+06    0.5152129752E+00    0.8616832189E-01    0.3800297740E-03    0.1649708726E+00    0.5987208890E+00
    0.9000000000E+06    0.5151888335E+00    0.8600619154E-01    0.3320649297E-03    0.1650380530E+00    0.5989950226E+00
    0.1100000000E+07    0.5151643286E+00    0.8587526169E-01    0.2981411103E-03    0.1650900648E+00    0.5992026607E+00
    0.1300000000E+07    0.5151410473E+00    0.8576543530E-01    0.2725540657E-03    0.1651324667E+00    0.5993689659E+00
    0.1500000000E+07    0.5151193469E+00    0.8567084155E-01    0.2523863556E-03    0.1651682431E+00    0.5995072407E+00
    0.1700000000E+07    0.5150992157E+00    0.8558776359E-01    0.2359720485E-03    0.1651991784E+00    0.5996253274E+00
    0.1900000000E+07    0.5150805310E+00    0.8551369868E-01    0.2222822923E-03    0.1652264233E+00    0.5997282187E+00
    0.2100000000E+07    0.5150631458E+00    0.8544688084E-01    0.2106431976E-03    0.1652507624E+00    0.5998192803E+00
    0.2300000000E+07    0.5150469176E+00    0.8538601730E-01    0.2005926680E-03    0.1652727548E+00    0.5999008841E+00
    0.2500000000E+07    0.5150317179E+00    0.8533013319E-01    0.1918019668E-03    0.1652928124E+00    0.5999747617E+00
    0.2700000000E+07    0.5150174344E+00    0.8527847511E-01    0.1840300633E-03    0.1653112478E+00    0.6000422145E+00
    0.2900000000E+07    0.5150039695E+00    0.8523044872E-01    0.1770957180E-03    0.1653283033E+00    0.6001042442E+00
    0.3100000000E+07    0.5149912390E+00    0.8518557692E-01    0.1708597013E-03    0.1653441711E+00    0.6001616378E+00
    0.3300000000E+07    0.5149791700E+00    0.8514347088E-01    0.1652130698E-03    0.1653590055E+00    0.6002150244E+00
    0.3500000000E+07    0.5149676996E+00    0.8510380952E-01    0.1600692041E-03    0.1653729329E+00    0.6002649146E+00
    0.3700000000E+07    0.5149567727E+00    0.8506632462E-01    0.1553582620E-03    0.1653860578E+00    0.6003117282E+00
    0.3900000000E+07    0.5149463414E+00    0.8503078983E-01    0.1510232261E-03    0.1653984675E+00    0.6003558145E+00
    0.4100000000E+07    0.5149363636E+00    0.8499701237E-01    0.1470170323E-03    0.1654102360E+00    0.6003974670E+00
    0.4300000000E+07    0.5149268023E+00    0.8496482673E-01    0.1433004453E-03    0.1654214262E+00    0.6004369349E+00
    0.4500000000E+07    0.5149176246E+00    0.8493408972E-01    0.1398404634E-03    0.1654320922E+00    0.6004744313E+00
    0.4700000000E+07    0.5149088014E+00    0.8490467664E-01    0.1366091025E-03    0.1654422811E+00    0.6005101398E+00
    0.4900000000E+07    0.5149003066E+00    0.8487647824E-01    0.1335824580E-03    0.1654520336E+00    0.6005442197E+00
    0.1000000000E+07    0.5151764801E+00    0.8593759427E-01    0.3137992402E-03    0.1650655211E+00    0.5991051808E+00
    0.3000000000E+07    0.5149975172E+00    0.8520764460E-01    0.1738978297E-03    0.1653363753E+00    0.6001334780E+00
    0.5000000000E+07    0.5148961750E+00    0.8486280401E-01    0.1321393659E-03    0.1654567576E+00    0.6005606932E+00
    0.7000000000E+07    0.5148262317E+00    0.8463475367E-01    0.1102713993E-03    0.1655351020E+00    0.6008307786E+00
    0.9000000000E+07    0.5147728413E+00    0.8446413298E-01    0.9633258026E-04    0.1655932861E+00    0.6010278491E+00
    0.1100000000E+08    0.5147296641E+00    0.8432778187E-01    0.8647837658E-04    0.1656395921E+00    0.6011827639E+00
    0.1300000000E+08    0.5146934171E+00    0.8421422421E-01    0.7904804950E-04    0.1656780585E+00    0.6013102598E+00
    0.1500000000E+08    0.5146621815E+00    0.8411692905E-01    0.7319275334E-04    0.1657109604E+00    0.6014185120E+00
    0.1700000000E+08    0.5146347387E+00    0.8403182314E-01    0.6842799634E-04    0.1657397068E+00    0.6015125231E+00
    0.1900000000E+08    0.5146102666E+00    0.8395619421E-01    0.6445466760E-04    0.1657652312E+00    0.6015955746E+00
    0.2100000000E+08    0.5145881845E+00    0.8388814500E-01    0.6107690530E-04    0.1657881840E+00    0.6016699345E+00
    0.2300000000E+08    0.5145680665E+00    0.8382629628E-01    0.5816043378E-04    0.1658090366E+00    0.6017372349E+00
    0.2500000000E+08    0.5145495917E+00    0.8376961394E-01    0.5560974651E-04    0.1658281416E+00    0.6017986891E+00
    0.2700000000E+08    0.5145325116E+00    0.8371730266E-01    0.5335482880E-04    0.1658457696E+00    0.6018552233E+00
