  Pressure (Pa) 22mC5-400 (mol/kg) 3mC6-400 (mol/kg) 33mC5-400 (mol/kg) 23mC5-400 (mol/kg) C7-400 (mol/kg)
    0.1000000000E+01    0.2649721264E-02    0.1060964472E-02    0.1949383853E-03    0.8374721717E-03    0.1721581589E-02
    0.3000000000E+01    0.7865525514E-02    0.3155682134E-02    0.5767020213E-03    0.2486005231E-02    0.5120788318E-02
    0.5000000000E+01    0.1297277297E-01    0.5214892718E-02    0.9479566932E-03    0.4100257979E-02    0.8462636011E-02
    0.7000000000E+01    0.1797488540E-01    0.7239498182E-02    0.1309059002E-02    0.5681310641E-02    0.1174857965E-01
    0.9000000000E+01    0.2287514151E-01    0.9230370135E-02    0.1660350650E-02    0.7230198288E-02    0.1498002528E-01
    0.1100000000E+02    0.2767668435E-01    0.1118835110E-01    0.2002159190E-02    0.8747913173E-02    0.1815833207E-01
    0.1300000000E+02    0.3238252826E-01    0.1311425573E-01    0.2334798723E-02    0.1023540691E-01    0.2128481425E-01
    0.1500000000E+02    0.3699556536E-01    0.1500887194E-01    0.2658570567E-02    0.1169359256E-01    0.2436074294E-01
    0.1700000000E+02    0.4151857166E-01    0.1687296198E-01    0.2973763874E-02    0.1312334650E-01    0.2738734791E-01
    0.1900000000E+02    0.4595421288E-01    0.1870726351E-01    0.3280656221E-02    0.1452551031E-01    0.3036581925E-01
    0.2100000000E+02    0.5030504982E-01    0.2051249056E-01    0.3579514164E-02    0.1590089246E-01    0.3329730898E-01
    0.2300000000E+02    0.5457354349E-01    0.2228933447E-01    0.3870593764E-02    0.1725026991E-01    0.3618293252E-01
    0.2500000000E+02    0.5876205989E-01    0.2403846478E-01    0.4154141077E-02    0.1857438963E-01    0.3902377015E-01
    0.2700000000E+02    0.6287287461E-01    0.2576053010E-01    0.4430392625E-02    0.1987397005E-01    0.4182086842E-01
    0.2900000000E+02    0.6690817705E-01    0.2745615892E-01    0.4699575835E-02    0.2114970239E-01    0.4457524141E-01
    0.3100000000E+02    0.7087007448E-01    0.2912596036E-01    0.4961909461E-02    0.2240225196E-01    0.4728787198E-01
    0.3300000000E+02    0.7476059586E-01    0.3077052493E-01    0.5217603973E-02    0.2363225933E-01    0.4995971301E-01
    0.3500000000E+02    0.7858169544E-01    0.3239042525E-01    0.5466861937E-02    0.2484034150E-01    0.5259168848E-01
    0.3700000000E+02    0.8233525619E-01    0.3398621669E-01    0.5709878365E-02    0.2602709297E-01    0.5518469461E-01
    0.3900000000E+02    0.8602309297E-01    0.3555843804E-01    0.5946841057E-02    0.2719308672E-01    0.5773960085E-01
    0.4100000000E+02    0.8964695564E-01    0.3710761210E-01    0.6177930911E-02    0.2833887524E-01    0.6025725090E-01
    0.4300000000E+02    0.9320853193E-01    0.3863424632E-01    0.6403322233E-02    0.2946499138E-01    0.6273846366E-01
    0.4500000000E+02    0.9670945014E-01    0.4013883329E-01    0.6623183020E-02    0.3057194926E-01    0.6518403410E-01
    0.4700000000E+02    0.1001512818E+00    0.4162185133E-01    0.6837675231E-02    0.3166024504E-01    0.6759473419E-01
    0.4900000000E+02    0.1035355440E+00    0.4308376498E-01    0.7046955049E-02    0.3273035775E-01    0.6997131367E-01
    0.1000000000E+02    0.2528806075E-01    0.1021342044E-01    0.1832420370E-02    0.7992891922E-02    0.1657573786E-01
    0.3000000000E+02    0.6889817279E-01    0.2829425073E-01    0.4831585502E-02    0.2177883442E-01    0.4593671425E-01
    0.5000000000E+02    0.1052065465E+00    0.4380694919E-01    0.7149687598E-02    0.3325874064E-01    0.7114703660E-01
    0.7000000000E+02    0.1359353751E+00    0.5726598696E-01    0.8964638773E-02    0.4297635163E-01    0.9303694881E-01
    0.9000000000E+02    0.1623010154E+00    0.6905676397E-01    0.1040059021E-01    0.5131572597E-01    0.1122285519E+00
    0.1100000000E+03    0.1851872795E+00    0.7947371883E-01    0.1154628145E-01    0.5855593973E-01    0.1291972361E+00
    0.1300000000E+03    0.2052521063E+00    0.8874568704E-01    0.1246645964E-01    0.6490475867E-01    0.1443125620E+00
    0.1500000000E+03    0.2229956524E+00    0.9705322233E-01    0.1320921839E-01    0.7052013295E-01    0.1578661897E+00
    0.1700000000E+03    0.2388051380E+00    0.1045407039E+00    0.1381084625E-01    0.7552435453E-01    0.1700914022E+00
    0.1900000000E+03    0.2529852004E+00    0.1113249730E+00    0.1429910770E-01    0.8001363968E-01    0.1811770354E+00
    0.2100000000E+03    0.2657789369E+00    0.1175016077E+00    0.1469551064E-01    0.8406477256E-01    0.1912775985E+00
    0.2300000000E+03    0.2773828083E+00    0.1231495550E+00    0.1501690312E-01    0.8773981046E-01    0.2005207476E+00
    0.2500000000E+03    0.2879573957E+00    0.1283346027E+00    0.1527661652E-01    0.9108948019E-01    0.2090128877E+00
    0.2700000000E+03    0.2976352999E+00    0.1331120154E+00    0.1548529653E-01    0.9415567218E-01    0.2168434262E+00
    0.2900000000E+03    0.3065270314E+00    0.1375285614E+00    0.1565151539E-01    0.9697330040E-01    0.2240880442E+00
    0.3100000000E+03    0.3147254662E+00    0.1416240877E+00    0.1578222864E-01    0.9957170911E-01    0.2308112388E+00
    0.3300000000E+03    0.3223092574E+00    0.1454327571E+00    0.1588311969E-01    0.1019757505E+00    0.2370683207E+00
    0.3500000000E+03    0.3293454814E+00    0.1489840285E+00    0.1595886256E-01    0.1042066201E+00    0.2429069974E+00
    0.3700000000E+03    0.3358917096E+00    0.1523034419E+00    0.1601332410E-01    0.1062825108E+00    0.2483686396E+00
    0.3900000000E+03    0.3419976482E+00    0.1554132498E+00    0.1604972103E-01    0.1082191314E+00    0.2534893025E+00
    0.4100000000E+03    0.3477064482E+00    0.1583329313E+00    0.1607074295E-01    0.1100301196E+00    0.2583005555E+00
    0.4300000000E+03    0.3530557594E+00    0.1610796119E+00    0.1607864936E-01    0.1117273752E+00    0.2628301606E+00
    0.4500000000E+03    0.3580785868E+00    0.1636684095E+00    0.1607534678E-01    0.1133213307E+00    0.2671026314E+00
    0.4700000000E+03    0.3628039906E+00    0.1661127209E+00    0.1606245051E-01    0.1148211721E+00    0.2711396966E+00
    0.4900000000E+03    0.3672576623E+00    0.1684244607E+00    0.1604133425E-01    0.1162350213E+00    0.2749606854E+00
    0.1000000000E+03    0.1741335940E+00    0.7442136324E-01    0.1100521045E-01    0.5505886784E-01    0.1209655580E+00
    0.3000000000E+03    0.3107076959E+00    0.1396141962E+00    0.1572092861E-01    0.9829825945E-01    0.2275111675E+00
    0.5000000000E+03    0.3693898254E+00    0.1695339841E+00    0.1602806693E-01    0.1169119834E+00    0.2767956162E+00
    0.7000000000E+03    0.4021436341E+00    0.1868243724E+00    0.1553975570E-01    0.1273203961E+00    0.3054946495E+00
    0.9000000000E+03    0.4230371101E+00    0.1981320845E+00    0.1489709714E-01    0.1339719366E+00    0.3244038175E+00
    0.1100000000E+04    0.4375129937E+00    0.2061241185E+00    0.1425695576E-01    0.1385887635E+00    0.3378664033E+00
    0.1300000000E+04    0.4481267077E+00    0.2120823066E+00    0.1366091601E-01    0.1419799573E+00    0.3479753634E+00
    0.1500000000E+04    0.4562372543E+00    0.2167007537E+00    0.1311737949E-01    0.1445760629E+00    0.3558669395E+00
    0.1700000000E+04    0.4626338438E+00    0.2203887192E+00    0.1262446998E-01    0.1466272637E+00    0.3622127897E+00
    0.1900000000E+04    0.4678060003E+00    0.2234034708E+00    0.1217733313E-01    0.1482888360E+00    0.3674361938E+00
    0.2100000000E+04    0.4720733565E+00    0.2259150230E+00    0.1177062022E-01    0.1496622288E+00    0.3718175735E+00
    0.2300000000E+04    0.4756533986E+00    0.2280403336E+00    0.1139932596E-01    0.1508165125E+00    0.3755503159E+00
    0.2500000000E+04    0.4786992077E+00    0.2298625589E+00    0.1105902978E-01    0.1518003329E+00    0.3787722566E+00
    0.2700000000E+04    0.4813216302E+00    0.2314424767E+00    0.1074591804E-01    0.1526489362E+00    0.3815843831E+00
    0.2900000000E+04    0.4836028867E+00    0.2328255612E+00    0.1045673040E-01    0.1533884819E+00    0.3840624380E+00
    0.3100000000E+04    0.4856052413E+00    0.2340465285E+00    0.1018868570E-01    0.1540387923E+00    0.3862643844E+00
    0.3300000000E+04    0.4873767031E+00    0.2351323498E+00    0.9939408657E-02    0.1546151608E+00    0.3882353614E+00
    0.3500000000E+04    0.4889548801E+00    0.2361043033E+00    0.9706864461E-02    0.1551295747E+00    0.3900110656E+00
    0.3700000000E+04    0.4903696477E+00    0.2369794054E+00    0.9489303127E-02    0.1555915624E+00    0.3916201109E+00
    0.3900000000E+04    0.4916450370E+00    0.2377714298E+00    0.9285213043E-02    0.1560087930E+00    0.3930857136E+00
    0.4100000000E+04    0.4928005954E+00    0.2384916474E+00    0.9093282603E-02    0.1563875085E+00    0.3944269151E+00
    0.4300000000E+04    0.4938523847E+00    0.2391493712E+00    0.8912368597E-02    0.1567328409E+00    0.3956594861E+00
    0.4500000000E+04    0.4948137238E+00    0.2397523652E+00    0.8741470195E-02    0.1570490485E+00    0.3967966047E+00
    0.4700000000E+04    0.4956957499E+00    0.2403071545E+00    0.8579707466E-02    0.1573396941E+00    0.3978493715E+00
    0.4900000000E+04    0.4965078469E+00    0.2408192636E+00    0.8426303605E-02    0.1576077816E+00    0.3988272065E+00
    0.1000000000E+04    0.4308778987E+00    0.2024431129E+00    0.1457286018E-01    0.1364715828E+00    0.3316536740E+00
    0.3000000000E+04    0.4846356443E+00    0.2334544700E+00    0.1032022234E-01    0.1537237461E+00    0.3851948487E+00
    0.5000000000E+04    0.4968902082E+00    0.2410608123E+00    0.8352518009E-02    0.1577341784E+00    0.3992905861E+00
    0.7000000000E+04    0.5022856971E+00    0.2444970199E+00    0.7183752788E-02    0.1595329958E+00    0.4060760997E+00
    0.9000000000E+04    0.5053123147E+00    0.2464415700E+00    0.6389743892E-02    0.1605605971E+00    0.4101558345E+00
    0.1100000000E+05    0.5072451550E+00    0.2476829529E+00    0.5805938193E-02    0.1612287487E+00    0.4129183809E+00
    0.1300000000E+05    0.5085841257E+00    0.2485375323E+00    0.5353745725E-02    0.1616999230E+00    0.4149335632E+00
    0.1500000000E+05    0.5095650922E+00    0.2491570108E+00    0.4990328964E-02    0.1620512604E+00    0.4164805832E+00
    0.1700000000E+05    0.5103137878E+00    0.2496232162E+00    0.4690104152E-02    0.1623241381E+00    0.4177132285E+00
    0.1900000000E+05    0.5109033358E+00    0.2499841556E+00    0.4436731804E-02    0.1625427688E+00    0.4187235891E+00
    0.2100000000E+05    0.5113791413E+00    0.2502698317E+00    0.4219225749E-02    0.1627222792E+00    0.4195703868E+00
    0.2300000000E+05    0.5117708768E+00    0.2504999445E+00    0.4029892219E-02    0.1628726152E+00    0.4202929495E+00
    0.2500000000E+05    0.5120987469E+00    0.2506879529E+00    0.3863162008E-02    0.1630005903E+00    0.4209186754E+00
    0.2700000000E+05    0.5123769812E+00    0.2508433561E+00    0.3714891806E-02    0.1631110319E+00    0.4214672802E+00
    0.2900000000E+05    0.5126158886E+00    0.2509730446E+00    0.3581927135E-02    0.1632074587E+00    0.4219533408E+00
    0.3100000000E+05    0.5128231185E+00    0.2510821329E+00    0.3461818527E-02    0.1632924970E+00    0.4223878855E+00
    0.3300000000E+05    0.5130044653E+00    0.2511744944E+00    0.3352631264E-02    0.1633681484E+00    0.4227794243E+00
    0.3500000000E+05    0.5131643979E+00    0.2512531132E+00    0.3252814296E-02    0.1634359657E+00    0.4231346380E+00
    0.3700000000E+05    0.5133064170E+00    0.2513203236E+00    0.3161107751E-02    0.1634971725E+00    0.4234588509E+00
    0.3900000000E+05    0.5134333039E+00    0.2513779763E+00    0.3076476303E-02    0.1635527469E+00    0.4237563631E+00
    0.4100000000E+05    0.5135472955E+00    0.2514275561E+00    0.2998060258E-02    0.1636034798E+00    0.4240306892E+00
    0.4300000000E+05    0.5136502113E+00    0.2514702671E+00    0.2925139060E-02    0.1636500188E+00    0.4242847322E+00
    0.4500000000E+05    0.5137435459E+00    0.2515070955E+00    0.2857103650E-02    0.1636928986E+00    0.4245209134E+00
    0.4700000000E+05    0.5138285384E+00    0.2515388555E+00    0.2793435245E-02    0.1637325653E+00    0.4247412695E+00
    0.4900000000E+05    0.5139062246E+00    0.2515662252E+00    0.2733688856E-02    0.1637693940E+00    0.4249475278E+00
    0.1000000000E+05    0.5063749786E+00    0.2471246641E+00    0.6077657796E-02    0.1609264702E+00    0.4116561044E+00
    0.3000000000E+05    0.5127230648E+00    0.2510298974E+00    0.3520397043E-02    0.1632512641E+00    0.4221764711E+00
    0.5000000000E+05    0.5139426059E+00    0.2515784451E+00    0.2705164290E-02    0.1637868452E+00    0.4250458397E+00
    0.7000000000E+05    0.5144403926E+00    0.2516916601E+00    0.2270007954E-02    0.1640434561E+00    0.4265383309E+00
    0.9000000000E+05    0.5147028851E+00    0.2516821053E+00    0.1989892225E-02    0.1642007204E+00    0.4275018506E+00
    0.1100000000E+06    0.5148609308E+00    0.2516281229E+00    0.1790632360E-02    0.1643100736E+00    0.4281965344E+00
    0.1300000000E+06    0.5149641030E+00    0.2515567335E+00    0.1639734062E-02    0.1643921748E+00    0.4287321388E+00
    0.1500000000E+06    0.5150351762E+00    0.2514789708E+00    0.1520437221E-02    0.1644570612E+00    0.4291640734E+00
    0.1700000000E+06    0.5150860156E+00    0.2513997968E+00    0.1423113326E-02    0.1645102531E+00    0.4295237770E+00
    0.1900000000E+06    0.5151233781E+00    0.2513215552E+00    0.1341788575E-02    0.1645550650E+00    0.4298306237E+00
    0.2100000000E+06    0.5151513771E+00    0.2512453598E+00    0.1272535927E-02    0.1645936212E+00    0.4300973109E+00
    0.2300000000E+06    0.5151726499E+00    0.2511717122E+00    0.1212654550E-02    0.1646273546E+00    0.4303325678E+00
    0.2500000000E+06    0.5151889586E+00    0.2511007974E+00    0.1160218306E-02    0.1646572716E+00    0.4305426290E+00
    0.2700000000E+06    0.5152015215E+00    0.2510326344E+00    0.1113811970E-02    0.1646841029E+00    0.4307320883E+00
    0.2900000000E+06    0.5152112050E+00    0.2509671548E+00    0.1072369447E-02    0.1647083938E+00    0.4309044197E+00
    0.3100000000E+06    0.5152186401E+00    0.2509042468E+00    0.1035070458E-02    0.1647305610E+00    0.4310623083E+00
    0.3300000000E+06    0.5152242959E+00    0.2508437785E+00    0.1001272250E-02    0.1647509294E+00    0.4312078695E+00
    0.3500000000E+06    0.5152285275E+00    0.2507856115E+00    0.9704631433E-03    0.1647697564E+00    0.4313427967E+00
    0.3700000000E+06    0.5152316078E+00    0.2507296085E+00    0.9422300984E-03    0.1647872495E+00    0.4314684649E+00
    0.3900000000E+06    0.5152337493E+00    0.2506756372E+00    0.9162355787E-03    0.1648035779E+00    0.4315860049E+00
    0.4100000000E+06    0.5152351197E+00    0.2506235723E+00    0.8922007096E-03    0.1648188814E+00    0.4316963572E+00
    0.4300000000E+06    0.5152358527E+00    0.2505732965E+00    0.8698928097E-03    0.1648332764E+00    0.4318003115E+00
    0.4500000000E+06    0.5152360559E+00    0.2505247006E+00    0.8491160118E-03    0.1648468613E+00    0.4318985369E+00
    0.4700000000E+06    0.5152358166E+00    0.2504776835E+00    0.8297041092E-03    0.1648597194E+00    0.4319916053E+00
    0.4900000000E+06    0.5152352064E+00    0.2504321515E+00    0.8115150288E-03    0.1648719223E+00    0.4320800087E+00
    0.1000000000E+06    0.5147909198E+00    0.2516584026E+00    0.1882719596E-02    0.1642597254E+00    0.4278740736E+00
    0.3000000000E+06    0.5152151711E+00    0.2509353874E+00    0.1053245716E-02    0.1647197207E+00    0.4309850258E+00
    0.5000000000E+06    0.5152347809E+00    0.2504099152E+00    0.8028401657E-03    0.1648777976E+00    0.4321225965E+00
    0.7000000000E+06    0.5152167630E+00    0.2500254406E+00    0.6711949424E-03    0.1649722281E+00    0.4328083713E+00
    0.9000000000E+06    0.5151922645E+00    0.2497233257E+00    0.5870928912E-03    0.1650393087E+00    0.4332955659E+00
    0.1100000000E+07    0.5151674998E+00    0.2494745732E+00    0.5275431179E-03    0.1650912495E+00    0.4336718877E+00
    0.1300000000E+07    0.5151440181E+00    0.2492631277E+00    0.4825881706E-03    0.1651335980E+00    0.4339777397E+00
    0.1500000000E+07    0.5151221566E+00    0.2490792202E+00    0.4471292566E-03    0.1651693325E+00    0.4342349708E+00
    0.1700000000E+07    0.5151018920E+00    0.2489164745E+00    0.4182521362E-03    0.1652002340E+00    0.4344566950E+00
    0.1900000000E+07    0.5150830945E+00    0.2487705010E+00    0.3941556574E-03    0.1652274509E+00    0.4346513845E+00
    0.2100000000E+07    0.5150656120E+00    0.2486381491E+00    0.3736593248E-03    0.1652517666E+00    0.4348248217E+00
    0.2300000000E+07    0.5150492989E+00    0.2485170813E+00    0.3559532070E-03    0.1652737388E+00    0.4349811251E+00
    0.2500000000E+07    0.5150340242E+00    0.2484055155E+00    0.3404608360E-03    0.1652937792E+00    0.4351233291E+00
    0.2700000000E+07    0.5150196736E+00    0.2483020613E+00    0.3267593607E-03    0.1653121994E+00    0.4352537328E+00
    0.2900000000E+07    0.5150061484E+00    0.2482056136E+00    0.3145307000E-03    0.1653292417E+00    0.4353741188E+00
    0.3100000000E+07    0.5149933631E+00    0.2481152791E+00    0.3035304149E-03    0.1653450977E+00    0.4354858966E+00
    0.3300000000E+07    0.5149812442E+00    0.2480303254E+00    0.2935671759E-03    0.1653599217E+00    0.4355901996E+00
    0.3500000000E+07    0.5149697280E+00    0.2479501446E+00    0.2844888139E-03    0.1653738397E+00    0.4356879523E+00
    0.3700000000E+07    0.5149587588E+00    0.2478742266E+00    0.2761725991E-03    0.1653869562E+00    0.4357799190E+00
    0.3900000000E+07    0.5149482884E+00    0.2478021390E+00    0.2685183121E-03    0.1653993583E+00    0.4358667380E+00
    0.4100000000E+07    0.5149382743E+00    0.2477335122E+00    0.2614432077E-03    0.1654111199E+00    0.4359489485E+00
    0.4300000000E+07    0.5149286790E+00    0.2476680277E+00    0.2548782895E-03    0.1654223038E+00    0.4360270092E+00
    0.4500000000E+07    0.5149194695E+00    0.2476054091E+00    0.2487655104E-03    0.1654329642E+00    0.4361013144E+00
    0.4700000000E+07    0.5149106165E+00    0.2475454152E+00    0.2430556387E-03    0.1654431478E+00    0.4361722048E+00
    0.4900000000E+07    0.5149020936E+00    0.2474878338E+00    0.2377066115E-03    0.1654528955E+00    0.4362399769E+00
    0.1000000000E+07    0.5151797720E+00    0.2495934806E+00    0.5550365682E-03    0.1650667386E+00    0.4334944403E+00
    0.3000000000E+07    0.5149996681E+00    0.2481597312E+00    0.3088900248E-03    0.1653373076E+00    0.4354310074E+00
    0.5000000000E+07    0.5148979485E+00    0.2474598885E+00    0.2351559076E-03    0.1654576173E+00    0.4362727761E+00
    0.7000000000E+07    0.5148277975E+00    0.2469918185E+00    0.1964777569E-03    0.1655359316E+00    0.4368140437E+00
    0.9000000000E+07    0.5147742701E+00    0.2466393843E+00    0.1717961108E-03    0.1655941019E+00    0.4372128698E+00
    0.1100000000E+08    0.5147309936E+00    0.2463565311E+00    0.1543322658E-03    0.1656404020E+00    0.4375284633E+00
    0.1300000000E+08    0.5146946703E+00    0.2461202200E+00    0.1411550494E-03    0.1656788668E+00    0.4377894678E+00
    0.1500000000E+08    0.5146633735E+00    0.2459172543E+00    0.1307651055E-03    0.1657117697E+00    0.4380119196E+00
    0.1700000000E+08    0.5146358802E+00    0.2457393637E+00    0.1223061133E-03    0.1657405188E+00    0.4382056999E+00
    0.1900000000E+08    0.5146113656E+00    0.2455810200E+00    0.1152491233E-03    0.1657660470E+00    0.4383773271E+00
    0.2100000000E+08    0.5145892468E+00    0.2454383447E+00    0.1092476122E-03    0.1657890043E+00    0.4385313264E+00
    0.2300000000E+08    0.5145690970E+00    0.2453085105E+00    0.1040639194E-03    0.1658098620E+00    0.4386709668E+00
    0.2500000000E+08    0.5145505941E+00    0.2451893934E+00    0.9952894150E-04    0.1658289723E+00    0.4387986866E+00
    0.2700000000E+08    0.5145334890E+00    0.2450793563E+00    0.9551867004E-04    0.1658466059E+00    0.4389163526E+00
