  Pressure (Pa) 22mC5-400 (mol/kg) 3mC6-400 (mol/kg) 33mC5-400 (mol/kg) 23mC5-400 (mol/kg) C7-400 (mol/kg)
    0.1000000000E+01    0.2652065518E-02    0.4748779755E-02    0.1294696804E-03    0.2794041491E-03    0.1712409826E-02
    0.3000000000E+01    0.7886206312E-02    0.1397681175E-01    0.3801985508E-03    0.8308453046E-03    0.5040494467E-02
    0.5000000000E+01    0.1302909409E-01    0.2286218782E-01    0.6204660699E-03    0.1372681145E-02    0.8245588371E-02
    0.7000000000E+01    0.1808313305E-01    0.3142368209E-01    0.8508199253E-03    0.1905164665E-02    0.1133441938E-01
    0.9000000000E+01    0.2305064332E-01    0.3967872111E-01    0.1071770440E-02    0.2428540012E-02    0.1431323280E-01
    0.1100000000E+02    0.2793386461E-01    0.4764350262E-01    0.1283793764E-02    0.2943042873E-02    0.1718783392E-01
    0.1300000000E+02    0.3273495962E-01    0.5533310197E-01    0.1487334746E-02    0.3448900834E-02    0.1996362611E-01
    0.1500000000E+02    0.3745601738E-01    0.6276156775E-01    0.1682809504E-02    0.3946333727E-02    0.2264564502E-01
    0.1700000000E+02    0.4209905630E-01    0.6994200768E-01    0.1870607757E-02    0.4435553955E-02    0.2523858937E-01
    0.1900000000E+02    0.4666602715E-01    0.7688666615E-01    0.2051094916E-02    0.4916766805E-02    0.2774684866E-01
    0.2100000000E+02    0.5115881588E-01    0.8360699413E-01    0.2224613986E-02    0.5390170743E-02    0.3017452821E-01
    0.2300000000E+02    0.5557924626E-01    0.9011371242E-01    0.2391487284E-02    0.5855957693E-02    0.3252547181E-01
    0.2500000000E+02    0.5992908246E-01    0.9641686896E-01    0.2552018001E-02    0.6314313305E-02    0.3480328222E-01
    0.2700000000E+02    0.6421003142E-01    0.1025258908E+00    0.2706491621E-02    0.6765417210E-02    0.3701133981E-01
    0.2900000000E+02    0.6842374516E-01    0.1084496313E+00    0.2855177212E-02    0.7209443263E-02    0.3915281942E-01
    0.3100000000E+02    0.7257182301E-01    0.1141964132E+00    0.2998328608E-02    0.7646559769E-02    0.4123070580E-01
    0.3300000000E+02    0.7665581363E-01    0.1197740678E+00    0.3136185483E-02    0.8076929706E-02    0.4324780760E-01
    0.3500000000E+02    0.8067721706E-01    0.1251899706E+00    0.3268974340E-02    0.8500710935E-02    0.4520677021E-01
    0.3700000000E+02    0.8463748658E-01    0.1304510741E+00    0.3396909413E-02    0.8918056396E-02    0.4711008742E-01
    0.3900000000E+02    0.8853803052E-01    0.1355639377E+00    0.3520193491E-02    0.9329114300E-02    0.4896011218E-01
    0.4100000000E+02    0.9238021399E-01    0.1405347549E+00    0.3639018684E-02    0.9734028311E-02    0.5075906637E-01
    0.4300000000E+02    0.9616536054E-01    0.1453693789E+00    0.3753567124E-02    0.1013293772E-01    0.5250904983E-01
    0.4500000000E+02    0.9989475369E-01    0.1500733452E+00    0.3864011604E-02    0.1052597760E-01    0.5421204863E-01
    0.4700000000E+02    0.1035696385E+00    0.1546518931E+00    0.3970516176E-02    0.1091327899E-01    0.5586994265E-01
    0.4900000000E+02    0.1071912229E+00    0.1591099853E+00    0.4073236702E-02    0.1129496901E-01    0.5748451263E-01
    0.1000000000E+02    0.2550265316E-01    0.4369642671E-01    0.1178869496E-02    0.2686886093E-02    0.1576321318E-01
    0.3000000000E+02    0.7050589062E-01    0.1113446416E+00    0.2927429385E-02    0.7428854901E-02    0.4019953226E-01
    0.5000000000E+02    0.1089823951E+00    0.1612953402E+00    0.4123224539E-02    0.1148374845E-01    0.5827608208E-01
    0.7000000000E+02    0.1422754077E+00    0.1997004583E+00    0.4956709574E-02    0.1499292867E-01    0.7219973286E-01
    0.9000000000E+02    0.1713812216E+00    0.2301552294E+00    0.5542550584E-02    0.1806125028E-01    0.8326101289E-01
    0.1100000000E+03    0.1970545086E+00    0.2549015990E+00    0.5953889621E-02    0.2076814262E-01    0.9226518792E-01
    0.1300000000E+03    0.2198775060E+00    0.2754103558E+00    0.6239438562E-02    0.2317488938E-01    0.9974086983E-01
    0.1500000000E+03    0.2403067294E+00    0.2926865458E+00    0.6432734991E-02    0.2532954374E-01    0.1060495049E+00
    0.1700000000E+03    0.2587052804E+00    0.3074403707E+00    0.6557483028E-02    0.2727032798E-01    0.1114466629E+00
    0.1900000000E+03    0.2753656738E+00    0.3201879675E+00    0.6630794606E-02    0.2902803553E-01    0.1161181937E+00
    0.2100000000E+03    0.2905262753E+00    0.3313134878E+00    0.6665238544E-02    0.3062776073E-01    0.1202025072E+00
    0.2300000000E+03    0.3043833436E+00    0.3411087748E+00    0.6670180174E-02    0.3209016607E-01    0.1238048195E+00
    0.2500000000E+03    0.3170999881E+00    0.3497995341E+00    0.6652682045E-02    0.3343242489E-01    0.1270065523E+00
    0.2700000000E+03    0.3288129277E+00    0.3575630767E+00    0.6618124051E-02    0.3466893266E-01    0.1298717086E+00
    0.2900000000E+03    0.3396376556E+00    0.3645406378E+00    0.6570639114E-02    0.3581185055E-01    0.1324513003E+00
    0.3100000000E+03    0.3496724320E+00    0.3708461151E+00    0.6513424716E-02    0.3687152568E-01    0.1347864904E+00
    0.3300000000E+03    0.3590014052E+00    0.3765723818E+00    0.6448969079E-02    0.3785681959E-01    0.1369108640E+00
    0.3500000000E+03    0.3676970754E+00    0.3817959285E+00    0.6379217598E-02    0.3877536754E-01    0.1388520986E+00
    0.3700000000E+03    0.3758222566E+00    0.3865803251E+00    0.6305696788E-02    0.3963378504E-01    0.1406332104E+00
    0.3900000000E+03    0.3834316536E+00    0.3909788412E+00    0.6229607568E-02    0.4043783387E-01    0.1422734977E+00
    0.4100000000E+03    0.3905731390E+00    0.3950364525E+00    0.6151896139E-02    0.4119255644E-01    0.1437892640E+00
    0.4300000000E+03    0.3972887948E+00    0.3987913961E+00    0.6073308309E-02    0.4190238547E-01    0.1451943784E+00
    0.4500000000E+03    0.4036157684E+00    0.4022763882E+00    0.5994431438E-02    0.4257123410E-01    0.1465007147E+00
    0.4700000000E+03    0.4095869799E+00    0.4055195866E+00    0.5915727068E-02    0.4320257033E-01    0.1477184982E+00
    0.4900000000E+03    0.4152317110E+00    0.4085453584E+00    0.5837556458E-02    0.4379947901E-01    0.1488565830E+00
    0.1000000000E+03    0.1846071328E+00    0.2431364291E+00    0.5766549701E-02    0.1945568621E-01    0.8798231597E-01
    0.3000000000E+03    0.3447482293E+00    0.3677711507E+00    0.6543078153E-02    0.3635150813E-01    0.1336471909E+00
    0.5000000000E+03    0.4179399247E+00    0.4099834421E+00    0.5798761824E-02    0.4408589521E-01    0.1493981862E+00
    0.7000000000E+03    0.4600304164E+00    0.4312616238E+00    0.5091464826E-02    0.4854061305E-01    0.1574770713E+00
    0.9000000000E+03    0.4873786980E+00    0.4440920827E+00    0.4531416376E-02    0.5143950773E-01    0.1624316913E+00
    0.1100000000E+04    0.5065690132E+00    0.4526729747E+00    0.4093446790E-02    0.5347677640E-01    0.1658007751E+00
    0.1300000000E+04    0.5207717488E+00    0.4588145382E+00    0.3745687516E-02    0.5498686017E-01    0.1682518445E+00
    0.1500000000E+04    0.5317035606E+00    0.4634261672E+00    0.3464015649E-02    0.5615094236E-01    0.1701222223E+00
    0.1700000000E+04    0.5403750413E+00    0.4670150005E+00    0.3231469958E-02    0.5707574077E-01    0.1716011179E+00
    0.1900000000E+04    0.5474198011E+00    0.4698862769E+00    0.3036175310E-02    0.5782819876E-01    0.1728030684E+00
    0.2100000000E+04    0.5532551717E+00    0.4722347522E+00    0.2869699104E-02    0.5845243170E-01    0.1738015698E+00
    0.2300000000E+04    0.5581671712E+00    0.4741905554E+00    0.2725937554E-02    0.5897868960E-01    0.1746460066E+00
    0.2500000000E+04    0.5623583451E+00    0.4758439492E+00    0.2600384335E-02    0.5942840515E-01    0.1753708261E+00
    0.2700000000E+04    0.5659761209E+00    0.4772595145E+00    0.2489649196E-02    0.5981718665E-01    0.1760008116E+00
    0.2900000000E+04    0.5691303458E+00    0.4784846790E+00    0.2391136699E-02    0.6015666969E-01    0.1765542644E+00
    0.3100000000E+04    0.5719045329E+00    0.4795550577E+00    0.2302828029E-02    0.6045570489E-01    0.1770450034E+00
    0.3300000000E+04    0.5743632986E+00    0.4804979157E+00    0.2223130047E-02    0.6072114380E-01    0.1774836651E+00
    0.3500000000E+04    0.5765574168E+00    0.4813344788E+00    0.2150768953E-02    0.6095837286E-01    0.1778785755E+00
    0.3700000000E+04    0.5785273334E+00    0.4820815181E+00    0.2084714100E-02    0.6117168509E-01    0.1782363484E+00
    0.3900000000E+04    0.5803056628E+00    0.4827524600E+00    0.2024122511E-02    0.6136454402E-01    0.1785623076E+00
    0.4100000000E+04    0.5819189945E+00    0.4833581800E+00    0.1968297877E-02    0.6153977478E-01    0.1788607881E+00
    0.4300000000E+04    0.5833892214E+00    0.4839075808E+00    0.1916659836E-02    0.6169970469E-01    0.1791353578E+00
    0.4500000000E+04    0.5847345320E+00    0.4844080200E+00    0.1868720651E-02    0.6184626827E-01    0.1793889809E+00
    0.4700000000E+04    0.5859701618E+00    0.4848656310E+00    0.1824067310E-02    0.6198108675E-01    0.1796241416E+00
    0.4900000000E+04    0.5871089682E+00    0.4852855677E+00    0.1782347621E-02    0.6210552905E-01    0.1798429383E+00
    0.1000000000E+04    0.4977476813E+00    0.4487699296E+00    0.4299317830E-02    0.5253990731E-01    0.1642614867E+00
    0.3000000000E+04    0.5705605310E+00    0.4790373482E+00    0.2345815012E-02    0.6031077541E-01    0.1768067456E+00
    0.5000000000E+04    0.5876455422E+00    0.4854827978E+00    0.1762491735E-02    0.6216422977E-01    0.1799467685E+00
    0.7000000000E+04    0.5952462056E+00    0.4882240700E+00    0.1464440812E-02    0.6300166527E-01    0.1814843377E+00
    0.9000000000E+04    0.5995381583E+00    0.4897118230E+00    0.1277118556E-02    0.6348177660E-01    0.1824354568E+00
    0.1100000000E+05    0.6022933524E+00    0.4906295831E+00    0.1145790023E-02    0.6379461837E-01    0.1830997496E+00
    0.1300000000E+05    0.6042106325E+00    0.4912422869E+00    0.1047280456E-02    0.6401554969E-01    0.1835995105E+00
    0.1500000000E+05    0.6056210881E+00    0.4916737419E+00    0.9699157349E-03    0.6418046139E-01    0.1839947716E+00
    0.1700000000E+05    0.6067017744E+00    0.4919893502E+00    0.9071031859E-03    0.6430864646E-01    0.1843187854E+00
    0.1900000000E+05    0.6075559316E+00    0.4922268070E+00    0.8548049032E-03    0.6441141257E-01    0.1845916195E+00
    0.2100000000E+05    0.6082478093E+00    0.4924093053E+00    0.8103927905E-03    0.6449583282E-01    0.1848261864E+00
    0.2300000000E+05    0.6088194790E+00    0.4925518610E+00    0.7720735864E-03    0.6456656236E-01    0.1850312202E+00
    0.2500000000E+05    0.6092996397E+00    0.4926646000E+00    0.7385765249E-03    0.6462679275E-01    0.1852128686E+00
    0.2700000000E+05    0.6097085379E+00    0.4927545838E+00    0.7089727863E-03    0.6467878686E-01    0.1853756029E+00
    0.2900000000E+05    0.6100608643E+00    0.4928268757E+00    0.6825657267E-03    0.6472419486E-01    0.1855227647E+00
    0.3100000000E+05    0.6103675365E+00    0.4928851938E+00    0.6588212889E-03    0.6476424920E-01    0.1856569093E+00
    0.3300000000E+05    0.6106368363E+00    0.4929323238E+00    0.6373223022E-03    0.6479988944E-01    0.1857800302E+00
    0.3500000000E+05    0.6108751597E+00    0.4929703906E+00    0.6177375523E-03    0.6483184476E-01    0.1858937089E+00
    0.3700000000E+05    0.6110875242E+00    0.4930010397E+00    0.5998002941E-03    0.6486069000E-01    0.1859992194E+00
    0.3900000000E+05    0.6112779211E+00    0.4930255631E+00    0.5832929811E-03    0.6488688470E-01    0.1860976012E+00
    0.4100000000E+05    0.6114495648E+00    0.4930449875E+00    0.5680361927E-03    0.6491080072E-01    0.1861897128E+00
    0.4300000000E+05    0.6116050730E+00    0.4930601376E+00    0.5538804606E-03    0.6493274238E-01    0.1862762706E+00
    0.4500000000E+05    0.6117465987E+00    0.4930716826E+00    0.5407001381E-03    0.6495296121E-01    0.1863578780E+00
    0.4700000000E+05    0.6118759292E+00    0.4930801697E+00    0.5283887362E-03    0.6497166699E-01    0.1864350476E+00
    0.4900000000E+05    0.6119945603E+00    0.4930860506E+00    0.5168553283E-03    0.6498903614E-01    0.1865082182E+00
    0.1000000000E+05    0.6010513320E+00    0.4902204438E+00    0.1206297362E-02    0.6365302006E-01    0.1827936583E+00
    0.3000000000E+05    0.6102193380E+00    0.4928575892E+00    0.6703890740E-03    0.6474482678E-01    0.1855913284E+00
    0.5000000000E+05    0.6120502656E+00    0.4930881335E+00    0.5113555100E-03    0.6499726709E-01    0.1865434242E+00
    0.7000000000E+05    0.6128254120E+00    0.4930573750E+00    0.4279373574E-03    0.6511834246E-01    0.1871070968E+00
    0.9000000000E+05    0.6132500223E+00    0.4929672660E+00    0.3746640708E-03    0.6519258522E-01    0.1875049382E+00
    0.1100000000E+06    0.6135162270E+00    0.4928629510E+00    0.3369368478E-03    0.6524422897E-01    0.1878115091E+00
    0.1300000000E+06    0.6136976958E+00    0.4927579424E+00    0.3084464892E-03    0.6528301323E-01    0.1880605299E+00
    0.1500000000E+06    0.6138286763E+00    0.4926567315E+00    0.2859654936E-03    0.6531367197E-01    0.1882700296E+00
    0.1700000000E+06    0.6139272230E+00    0.4925607262E+00    0.2676500058E-03    0.6533880956E-01    0.1884507483E+00
    0.1900000000E+06    0.6140037419E+00    0.4924701760E+00    0.2523606360E-03    0.6535999001E-01    0.1886095894E+00
    0.2100000000E+06    0.6140646448E+00    0.4923848823E+00    0.2393506390E-03    0.6537821605E-01    0.1887512478E+00
    0.2300000000E+06    0.6141140937E+00    0.4923044843E+00    0.2281076474E-03    0.6539416407E-01    0.1888790590E+00
    0.2500000000E+06    0.6141549050E+00    0.4922285781E+00    0.2182669438E-03    0.6540830920E-01    0.1889954761E+00
    0.2700000000E+06    0.6141890507E+00    0.4921567678E+00    0.2095609622E-03    0.6542099647E-01    0.1891023557E+00
    0.2900000000E+06    0.6142179521E+00    0.4920886850E+00    0.2017883987E-03    0.6543248342E-01    0.1892011359E+00
    0.3100000000E+06    0.6142426579E+00    0.4920239960E+00    0.1947945278E-03    0.6544296684E-01    0.1892929532E+00
    0.3300000000E+06    0.6142639589E+00    0.4919624017E+00    0.1884582197E-03    0.6545260015E-01    0.1893787213E+00
    0.3500000000E+06    0.6142824619E+00    0.4919036358E+00    0.1826831192E-03    0.6546150502E-01    0.1894591855E+00
    0.3700000000E+06    0.6142986399E+00    0.4918474615E+00    0.1773914976E-03    0.6546977942E-01    0.1895349616E+00
    0.3900000000E+06    0.6143128672E+00    0.4917936682E+00    0.1725198714E-03    0.6547750329E-01    0.1896065643E+00
    0.4100000000E+06    0.6143254432E+00    0.4917420684E+00    0.1680158165E-03    0.6548474266E-01    0.1896744281E+00
    0.4300000000E+06    0.6143366104E+00    0.4916924947E+00    0.1638356116E-03    0.6549155260E-01    0.1897389232E+00
    0.4500000000E+06    0.6143465672E+00    0.4916447974E+00    0.1599424673E-03    0.6549797953E-01    0.1898003674E+00
    0.4700000000E+06    0.6143554773E+00    0.4915988421E+00    0.1563051759E-03    0.6550406289E-01    0.1898590358E+00
    0.4900000000E+06    0.6143634769E+00    0.4915545081E+00    0.1528970694E-03    0.6550983643E-01    0.1899151678E+00
    0.1000000000E+06    0.6133969340E+00    0.4929157045E+00    0.3543564110E-03    0.6522044926E-01    0.1876669972E+00
    0.3000000000E+06    0.6142307750E+00    0.4920559358E+00    0.1982023654E-03    0.6543784012E-01    0.1892478533E+00
    0.5000000000E+06    0.6143671717E+00    0.4915329146E+00    0.1512716640E-03    0.6551261629E-01    0.1899423492E+00
    0.7000000000E+06    0.6144132356E+00    0.4911645937E+00    0.1266041025E-03    0.6555730139E-01    0.1903924136E+00
    0.9000000000E+06    0.6144320158E+00    0.4908803939E+00    0.1108404188E-03    0.6558905090E-01    0.1907258863E+00
    0.1100000000E+07    0.6144396484E+00    0.4906489393E+00    0.9967413171E-04    0.6561363812E-01    0.1909908845E+00
    0.1300000000E+07    0.6144419471E+00    0.4904536480E+00    0.9124097298E-04    0.6563368665E-01    0.1912107869E+00
    0.1500000000E+07    0.6144414446E+00    0.4902847020E+00    0.8458645294E-04    0.6565060532E-01    0.1913987312E+00
    0.1700000000E+07    0.6144393873E+00    0.4901358085E+00    0.7916501494E-04    0.6566523665E-01    0.1915628388E+00
    0.1900000000E+07    0.6144364422E+00    0.4900026920E+00    0.7463944220E-04    0.6567812404E-01    0.1917084820E+00
    0.2100000000E+07    0.6144329887E+00    0.4898823150E+00    0.7078868762E-04    0.6568963812E-01    0.1918394000E+00
    0.2300000000E+07    0.6144292522E+00    0.4897724413E+00    0.6746106710E-04    0.6570004294E-01    0.1919582998E+00
    0.2500000000E+07    0.6144253712E+00    0.4896713771E+00    0.6454860074E-04    0.6570953318E-01    0.1920672045E+00
    0.2700000000E+07    0.6144214327E+00    0.4895778086E+00    0.6197206883E-04    0.6571825644E-01    0.1921676659E+00
    0.2900000000E+07    0.6144174920E+00    0.4894906958E+00    0.5967186923E-04    0.6572632733E-01    0.1922609002E+00
    0.3100000000E+07    0.6144135846E+00    0.4894092016E+00    0.5760219062E-04    0.6573383656E-01    0.1923478784E+00
    0.3300000000E+07    0.6144097333E+00    0.4893326419E+00    0.5572716880E-04    0.6574085717E-01    0.1924293882E+00
    0.3500000000E+07    0.6144059521E+00    0.4892604509E+00    0.5401827517E-04    0.6574744884E-01    0.1925060771E+00
    0.3700000000E+07    0.6144022497E+00    0.4891921547E+00    0.5245249643E-04    0.6575366095E-01    0.1925784841E+00
    0.3900000000E+07    0.6143986308E+00    0.4891273528E+00    0.5101103718E-04    0.6575953482E-01    0.1926470626E+00
    0.4100000000E+07    0.6143950976E+00    0.4890657036E+00    0.4967837663E-04    0.6576510538E-01    0.1927121976E+00
    0.4300000000E+07    0.6143916506E+00    0.4890069133E+00    0.4844157089E-04    0.6577040241E-01    0.1927742186E+00
    0.4500000000E+07    0.6143882889E+00    0.4889507274E+00    0.4728972849E-04    0.6577545151E-01    0.1928334101E+00
    0.4700000000E+07    0.6143850110E+00    0.4888969240E+00    0.4621361064E-04    0.6578027487E-01    0.1928900193E+00
    0.4900000000E+07    0.6143818150E+00    0.4888453085E+00    0.4520532269E-04    0.6578489179E-01    0.1929442624E+00
    0.1000000000E+07    0.6144367450E+00    0.4907593263E+00    0.1048300663E-03    0.6560203503E-01    0.1908651466E+00
    0.3000000000E+07    0.6144155325E+00    0.4894492922E+00    0.5861065414E-04    0.6573014723E-01    0.1923051183E+00
    0.5000000000E+07    0.6143802469E+00    0.4888202667E+00    0.4472445496E-04    0.6578712822E-01    0.1929705569E+00
    0.7000000000E+07    0.6143525556E+00    0.4884015283E+00    0.3742737142E-04    0.6582422235E-01    0.1934083207E+00
    0.9000000000E+07    0.6143302775E+00    0.4880869354E+00    0.3276491851E-04    0.6585177603E-01    0.1937351650E+00
    0.1100000000E+08    0.6143117338E+00    0.4878347654E+00    0.2946260160E-04    0.6587370740E-01    0.1939961216E+00
    0.1300000000E+08    0.6142958791E+00    0.4876242482E+00    0.2696878180E-04    0.6589192745E-01    0.1942133701E+00
    0.1500000000E+08    0.6142820423E+00    0.4874435239E+00    0.2500105918E-04    0.6590751289E-01    0.1943994859E+00
    0.1700000000E+08    0.6142697721E+00    0.4872851764E+00    0.2339803835E-04    0.6592113069E-01    0.1945622924E+00
    0.1900000000E+08    0.6142587520E+00    0.4871442571E+00    0.2205996632E-04    0.6593322271E-01    0.1947069898E+00
    0.2100000000E+08    0.6142487518E+00    0.4870172980E+00    0.2092145890E-04    0.6594409688E-01    0.1948372111E+00
    0.2300000000E+08    0.6142395995E+00    0.4869017741E+00    0.1993765154E-04    0.6595397640E-01    0.1949555945E+00
    0.2500000000E+08    0.6142311627E+00    0.4867957896E+00    0.1907660791E-04    0.6596302818E-01    0.1950641166E+00
    0.2700000000E+08    0.6142233379E+00    0.4866978847E+00    0.1831489887E-04    0.6597138038E-01    0.1951642969E+00
