  Pressure (Pa) 22mC5-400 (mol/kg) 3mC6-400 (mol/kg) 33mC5-400 (mol/kg) 23mC5-400 (mol/kg) C7-400 (mol/kg)
    0.1000000000E+01    0.2651602037E-02    0.1055157781E-02    0.5825352326E-03    0.9311843711E-04    0.5136613816E-02
    0.3000000000E+01    0.7882162028E-02    0.3104875621E-02    0.1710227225E-02    0.2768063811E-03    0.1511621858E-01
    0.5000000000E+01    0.1301820124E-01    0.5077627354E-02    0.2790347821E-02    0.4571777672E-03    0.2472285966E-01
    0.7000000000E+01    0.1806243008E-01    0.6977709820E-02    0.3825447531E-02    0.6343276752E-03    0.3397732610E-01
    0.9000000000E+01    0.2301745480E-01    0.8809105084E-02    0.4817898784E-02    0.8083475323E-03    0.4289888518E-01
    0.1100000000E+02    0.2788578250E-01    0.1057550876E-01    0.5769911445E-02    0.9793252871E-03    0.5150541928E-01
    0.1300000000E+02    0.3266982573E-01    0.1228035530E-01    0.6683546725E-02    0.1147345572E-02    0.5981354823E-01
    0.1500000000E+02    0.3737190691E-01    0.1392684075E-01    0.7560729657E-02    0.1312489860E-02    0.6783873890E-01
    0.1700000000E+02    0.4199426251E-01    0.1551794299E-01    0.8403260331E-02    0.1474836606E-02    0.7559540356E-01
    0.1900000000E+02    0.4653904697E-01    0.1705644015E-01    0.9212824005E-02    0.1634461389E-02    0.8309698838E-01
    0.2100000000E+02    0.5100833638E-01    0.1854492705E-01    0.9991000246E-02    0.1791437041E-02    0.9035605310E-01
    0.2300000000E+02    0.5540413208E-01    0.1998583007E-01    0.1073927119E-01    0.1945833770E-02    0.9738434301E-01
    0.2500000000E+02    0.5972836392E-01    0.2138142065E-01    0.1145902905E-01    0.2097719279E-02    0.1041928540E+00
    0.2700000000E+02    0.6398289345E-01    0.2273382744E-01    0.1215158289E-01    0.2247158872E-02    0.1107918913E+00
    0.2900000000E+02    0.6816951692E-01    0.2404504740E-01    0.1281816482E-01    0.2394215566E-02    0.1171911233E+00
    0.3100000000E+02    0.7228996809E-01    0.2531695578E-01    0.1345993564E-01    0.2538950183E-02    0.1233996296E+00
    0.3300000000E+02    0.7634592096E-01    0.2655131530E-01    0.1407798995E-01    0.2681421450E-02    0.1294259456E+00
    0.3500000000E+02    0.8033899227E-01    0.2774978449E-01    0.1467336088E-01    0.2821686087E-02    0.1352781026E+00
    0.3700000000E+02    0.8427074399E-01    0.2891392524E-01    0.1524702434E-01    0.2959798890E-02    0.1409636644E+00
    0.3900000000E+02    0.8814268558E-01    0.3004520977E-01    0.1579990298E-01    0.3095812814E-02    0.1464897611E+00
    0.4100000000E+02    0.9195627618E-01    0.3114502700E-01    0.1633286982E-01    0.3229779051E-02    0.1518631196E+00
    0.4300000000E+02    0.9571292671E-01    0.3221468833E-01    0.1684675152E-01    0.3361747099E-02    0.1570900919E+00
    0.4500000000E+02    0.9941400184E-01    0.3325543299E-01    0.1734233143E-01    0.3491764834E-02    0.1621766808E+00
    0.4700000000E+02    0.1030608219E+00    0.3426843299E-01    0.1782035246E-01    0.3619878577E-02    0.1671285637E+00
    0.4900000000E+02    0.1066546645E+00    0.3525479754E-01    0.1828151960E-01    0.3746133155E-02    0.1719511142E+00
    0.1000000000E+02    0.2546230283E-01    0.9700210372E-02    0.5298827781E-02    0.8942113071E-03    0.4724046336E-01
    0.3000000000E+02    0.7023790805E-01    0.2468580283E-01    0.1314208171E-01    0.2466869416E-02    0.1203186714E+00
    0.5000000000E+02    0.1084321074E+00    0.3573832202E-01    0.1850599351E-01    0.3808576871E-02    0.1743154910E+00
    0.7000000000E+02    0.1414806886E+00    0.4423835117E-01    0.2225665303E-01    0.4969704789E-02    0.2159173682E+00
    0.9000000000E+02    0.1704222184E+00    0.5098646734E-01    0.2490968717E-01    0.5986690442E-02    0.2490040966E+00
    0.1100000000E+03    0.1960268923E+00    0.5647913614E-01    0.2679102782E-01    0.6886556711E-02    0.2759831665E+00
    0.1300000000E+03    0.2188783911E+00    0.6104075393E-01    0.2811619731E-01    0.7689783346E-02    0.2984286297E+00
    0.1500000000E+03    0.2394275358E+00    0.6489235723E-01    0.2903278963E-01    0.8412189088E-02    0.3174136672E+00
    0.1700000000E+03    0.2580284321E+00    0.6818982264E-01    0.2964474214E-01    0.9066199567E-02    0.3336955548E+00
    0.1900000000E+03    0.2749634111E+00    0.7104627787E-01    0.3002693024E-01    0.9661722233E-02    0.3478242199E+00
    0.2100000000E+03    0.2904606116E+00    0.7354584968E-01    0.3023431558E-01    0.1020676318E-01    0.3602088589E+00
    0.2300000000E+03    0.3047066157E+00    0.7575242094E-01    0.3030788074E-01    0.1070787039E-01    0.3711603881E+00
    0.2500000000E+03    0.3178556864E+00    0.7771539133E-01    0.3027859236E-01    0.1117045787E-01    0.3809193779E+00
    0.2700000000E+03    0.3300366292E+00    0.7947357391E-01    0.3017011357E-01    0.1159904635E-01    0.3896749562E+00
    0.2900000000E+03    0.3413579611E+00    0.8105789603E-01    0.3000070039E-01    0.1199744465E-01    0.3975779147E+00
    0.3100000000E+03    0.3519118568E+00    0.8249331206E-01    0.2978455227E-01    0.1236888812E-01    0.4047499949E+00
    0.3300000000E+03    0.3617771964E+00    0.8380018408E-01    0.2953278974E-01    0.1271614557E-01    0.4112905935E+00
    0.3500000000E+03    0.3710219475E+00    0.8499529581E-01    0.2925417227E-01    0.1304160291E-01    0.4172816874E+00
    0.3700000000E+03    0.3797050445E+00    0.8609260865E-01    0.2895563222E-01    0.1334732899E-01    0.4227915086E+00
    0.3900000000E+03    0.3878778862E+00    0.8710383343E-01    0.2864267658E-01    0.1363512823E-01    0.4278773235E+00
    0.4100000000E+03    0.3955855400E+00    0.8803886819E-01    0.2831969231E-01    0.1390658285E-01    0.4325875626E+00
    0.4300000000E+03    0.4028677177E+00    0.8890613744E-01    0.2799018066E-01    0.1416308709E-01    0.4369634698E+00
    0.4500000000E+03    0.4097595732E+00    0.8971285771E-01    0.2765693845E-01    0.1440587525E-01    0.4410403962E+00
    0.4700000000E+03    0.4162923580E+00    0.9046524758E-01    0.2732219941E-01    0.1463604463E-01    0.4448488216E+00
    0.4900000000E+03    0.4224939651E+00    0.9116869519E-01    0.2698774514E-01    0.1485457467E-01    0.4484151708E+00
    0.1000000000E+03    0.1836015452E+00    0.5386643128E-01    0.2593137796E-01    0.6449855918E-02    0.2631440468E+00
    0.3000000000E+03    0.3467256276E+00    0.8179285040E-01    0.2989771046E-01    0.1218635283E-01    0.4012486435E+00
    0.5000000000E+03    0.4254784883E+00    0.9150355609E-01    0.2682107991E-01    0.1495975274E-01    0.4501148801E+00
    0.7000000000E+03    0.4726655429E+00    0.9650391296E-01    0.2371859008E-01    0.1662374787E-01    0.4756867233E+00
    0.9000000000E+03    0.5041731359E+00    0.9956967942E-01    0.2119429326E-01    0.1773628719E-01    0.4916085017E+00
    0.1100000000E+04    0.5266832750E+00    0.1016472921E+00    0.1918747171E-01    0.1853216423E-01    0.5025606006E+00
    0.1300000000E+04    0.5435437954E+00    0.1031502010E+00    0.1757687932E-01    0.1912907129E-01    0.5105993675E+00
    0.1500000000E+04    0.5566263458E+00    0.1042885534E+00    0.1626298350E-01    0.1959283615E-01    0.5167757760E+00
    0.1700000000E+04    0.5670606142E+00    0.1051807756E+00    0.1517293227E-01    0.1996320923E-01    0.5216852770E+00
    0.1900000000E+04    0.5755687282E+00    0.1058988192E+00    0.1425441259E-01    0.2026561152E-01    0.5256915499E+00
    0.2100000000E+04    0.5826335359E+00    0.1064889830E+00    0.1346961766E-01    0.2051704828E-01    0.5290298190E+00
    0.2300000000E+04    0.5885898731E+00    0.1069824400E+00    0.1279082737E-01    0.2072931725E-01    0.5318592665E+00
    0.2500000000E+04    0.5936770589E+00    0.1074009642E+00    0.1219737666E-01    0.2091085442E-01    0.5342916369E+00
    0.2700000000E+04    0.5980705643E+00    0.1077602340E+00    0.1167360177E-01    0.2106784789E-01    0.5364077893E+00
    0.2900000000E+04    0.6019018920E+00    0.1080718306E+00    0.1120744079E-01    0.2120493723E-01    0.5382677455E+00
    0.3100000000E+04    0.6052714812E+00    0.1083444976E+00    0.1078946803E-01    0.2132566763E-01    0.5399170405E+00
    0.3300000000E+04    0.6082573312E+00    0.1085849620E+00    0.1041221782E-01    0.2143279344E-01    0.5413908740E+00
    0.3500000000E+04    0.6109209112E+00    0.1087984845E+00    0.1006970329E-01    0.2152848626E-01    0.5427169066E+00
    0.3700000000E+04    0.6133113016E+00    0.1089892399E+00    0.9757068894E-02    0.2161448078E-01    0.5439171903E+00
    0.3900000000E+04    0.6154681525E+00    0.1091605831E+00    0.9470335613E-02    0.2169217901E-01    0.5450095319E+00
    0.4100000000E+04    0.6174238362E+00    0.1093152420E+00    0.9206211674E-02    0.2176272614E-01    0.5460084761E+00
    0.4300000000E+04    0.6192050371E+00    0.1094554573E+00    0.8961950027E-02    0.2182706656E-01    0.5469260254E+00
    0.4500000000E+04    0.6208339439E+00    0.1095830867E+00    0.8735239767E-02    0.2188598589E-01    0.5477721769E+00
    0.4700000000E+04    0.6223291543E+00    0.1096996835E+00    0.8524122473E-02    0.2194014293E-01    0.5485553279E+00
    0.4900000000E+04    0.6237063707E+00    0.1098065566E+00    0.8326927081E-02    0.2199009414E-01    0.5492825862E+00
    0.1000000000E+04    0.5162957992E+00    0.1006992720E+00    0.2013402440E-01    0.1816477184E-01    0.4975432076E+00
    0.3000000000E+04    0.6036390828E+00    0.1082125701E+00    0.1099293701E-01    0.2126715942E-01    0.5391163214E+00
    0.5000000000E+04    0.6243549819E+00    0.1098567005E+00    0.8233093632E-02    0.2201364327E-01    0.5496271845E+00
    0.7000000000E+04    0.6335179513E+00    0.1105471521E+00    0.6826346155E-02    0.2234846484E-01    0.5546742810E+00
    0.9000000000E+04    0.6386665751E+00    0.1109106026E+00    0.5944226696E-02    0.2253920923E-01    0.5577149837E+00
    0.1100000000E+05    0.6419597332E+00    0.1111250795E+00    0.5326835980E-02    0.2266288702E-01    0.5597797786E+00
    0.1300000000E+05    0.6442453754E+00    0.1112601964E+00    0.4864322229E-02    0.2274989165E-01    0.5612901333E+00
    0.1500000000E+05    0.6459236495E+00    0.1113485982E+00    0.4501447099E-02    0.2281463397E-01    0.5624524725E+00
    0.1700000000E+05    0.6472078064E+00    0.1114075287E+00    0.4207064174E-02    0.2286483019E-01    0.5633805905E+00
    0.1900000000E+05    0.6482218287E+00    0.1114468996E+00    0.3962121304E-02    0.2290498747E-01    0.5641427243E+00
    0.2100000000E+05    0.6490426825E+00    0.1114727803E+00    0.3754231546E-02    0.2293791684E-01    0.5647824574E+00
    0.2300000000E+05    0.6497206597E+00    0.1114890741E+00    0.3574950352E-02    0.2296546363E-01    0.5653290305E+00
    0.2500000000E+05    0.6502900045E+00    0.1114983920E+00    0.3418298182E-02    0.2298889016E-01    0.5658028504E+00
    0.2700000000E+05    0.6507748375E+00    0.1115025373E+00    0.3279907363E-02    0.2300908966E-01    0.5662186276E+00
    0.2900000000E+05    0.6511926367E+00    0.1115027887E+00    0.3156503861E-02    0.2302671237E-01    0.5665872566E+00
    0.3100000000E+05    0.6515563759E+00    0.1115000739E+00    0.3045578998E-02    0.2304224314E-01    0.5669169930E+00
    0.3300000000E+05    0.6518758869E+00    0.1114950784E+00    0.2945174022E-02    0.2305605108E-01    0.5672142171E+00
    0.3500000000E+05    0.6521587555E+00    0.1114883174E+00    0.2853734381E-02    0.2306842227E-01    0.5674839453E+00
    0.3700000000E+05    0.6524109283E+00    0.1114801834E+00    0.2770008554E-02    0.2307958199E-01    0.5677301807E+00
    0.3900000000E+05    0.6526371323E+00    0.1114709792E+00    0.2692976179E-02    0.2308971012E-01    0.5679561609E+00
    0.4100000000E+05    0.6528411720E+00    0.1114609410E+00    0.2621795962E-02    0.2309895210E-01    0.5681645351E+00
    0.4300000000E+05    0.6530261444E+00    0.1114502544E+00    0.2555767241E-02    0.2310742682E-01    0.5683574941E+00
    0.4500000000E+05    0.6531945953E+00    0.1114390670E+00    0.2494301171E-02    0.2311523247E-01    0.5685368674E+00
    0.4700000000E+05    0.6533486373E+00    0.1114274964E+00    0.2436898807E-02    0.2312245089E-01    0.5687041952E+00
    0.4900000000E+05    0.6534900377E+00    0.1114156374E+00    0.2383134208E-02    0.2312915085E-01    0.5688607853E+00
    0.1000000000E+05    0.6404764361E+00    0.1110308189E+00    0.5611177373E-02    0.2260697382E-01    0.5588355933E+00
    0.3000000000E+05    0.6513805879E+00    0.1115017546E+00    0.3099614937E-02    0.2303471392E-01    0.5667565506E+00
    0.5000000000E+05    0.6535564723E+00    0.1114096242E+00    0.2357499627E-02    0.2313232495E-01    0.5689354094E+00
    0.7000000000E+05    0.6544845234E+00    0.1112866232E+00    0.1968996520E-02    0.2317894957E-01    0.5700663134E+00
    0.9000000000E+05    0.6549977193E+00    0.1111707272E+00    0.1721230601E-02    0.2320748069E-01    0.5707928227E+00
    0.1100000000E+06    0.6553228275E+00    0.1110662076E+00    0.1545961060E-02    0.2322730250E-01    0.5713136360E+00
    0.1300000000E+06    0.6555469037E+00    0.1109722950E+00    0.1413726590E-02    0.2324217627E-01    0.5717128410E+00
    0.1500000000E+06    0.6557105021E+00    0.1108874790E+00    0.1309468366E-02    0.2325392693E-01    0.5720329403E+00
    0.1700000000E+06    0.6558350563E+00    0.1108103395E+00    0.1224589255E-02    0.2326355719E-01    0.5722980529E+00
    0.1900000000E+06    0.6559329554E+00    0.1107396898E+00    0.1153779941E-02    0.2327166864E-01    0.5725230339E+00
    0.2100000000E+06    0.6560118569E+00    0.1106745672E+00    0.1093562618E-02    0.2327864668E-01    0.5727176091E+00
    0.2300000000E+06    0.6560767471E+00    0.1106141932E+00    0.1041552217E-02    0.2328475115E-01    0.5728884561E+00
    0.2500000000E+06    0.6561310116E+00    0.1105579357E+00    0.9960517419E-03    0.2329016447E-01    0.5730403366E+00
    0.2700000000E+06    0.6561770296E+00    0.1105052765E+00    0.9558167541E-03    0.2329501905E-01    0.5731767533E+00
    0.2900000000E+06    0.6562165212E+00    0.1104557872E+00    0.9199113639E-03    0.2329941372E-01    0.5733003503E+00
    0.3100000000E+06    0.6562507609E+00    0.1104091102E+00    0.8876164968E-03    0.2330342395E-01    0.5734131679E+00
    0.3300000000E+06    0.6562807129E+00    0.1103649443E+00    0.8583694061E-03    0.2330710856E-01    0.5735168097E+00
    0.3500000000E+06    0.6563071197E+00    0.1103230338E+00    0.8317225905E-03    0.2331051421E-01    0.5736125574E+00
    0.3700000000E+06    0.6563305626E+00    0.1102831597E+00    0.8073151701E-03    0.2331367844E-01    0.5737014499E+00
    0.3900000000E+06    0.6563515032E+00    0.1102451332E+00    0.7848524897E-03    0.2331663190E-01    0.5737843395E+00
    0.4100000000E+06    0.6563703121E+00    0.1102087906E+00    0.7640912955E-03    0.2331939988E-01    0.5738619339E+00
    0.4300000000E+06    0.6563872907E+00    0.1101739888E+00    0.7448287715E-03    0.2332200349E-01    0.5739348263E+00
    0.4500000000E+06    0.6564026867E+00    0.1101406022E+00    0.7268943020E-03    0.2332446050E-01    0.5740035182E+00
    0.4700000000E+06    0.6564167050E+00    0.1101085199E+00    0.7101431943E-03    0.2332678601E-01    0.5740684377E+00
    0.4900000000E+06    0.6564295169E+00    0.1100776436E+00    0.6944518340E-03    0.2332899297E-01    0.5741299520E+00
    0.1000000000E+06    0.6551767077E+00    0.1111170562E+00    0.1626865441E-02    0.2321817782E-01    0.5710722613E+00
    0.3000000000E+06    0.6562342313E+00    0.1104321172E+00    0.9033508951E-03    0.2330146288E-01    0.5733579976E+00
    0.5000000000E+06    0.6564355165E+00    0.1100626299E+00    0.6869697446E-03    0.2333005554E-01    0.5741595333E+00
    0.7000000000E+06    0.6565175838E+00    0.1098086565E+00    0.5735475730E-03    0.2334713214E-01    0.5746310473E+00
    0.9000000000E+06    0.6565608437E+00    0.1096148005E+00    0.5012080413E-03    0.2335926130E-01    0.5749604176E+00
    0.1100000000E+07    0.6565868803E+00    0.1094579133E+00    0.4500450608E-03    0.2336865208E-01    0.5752116340E+00
    0.1300000000E+07    0.6566038670E+00    0.1093260927E+00    0.4114543415E-03    0.2337630802E-01    0.5754137808E+00
    0.1500000000E+07    0.6566155583E+00    0.1092124014E+00    0.3810359609E-03    0.2338276785E-01    0.5755824124E+00
    0.1700000000E+07    0.6566239109E+00    0.1091124384E+00    0.3562776713E-03    0.2338835369E-01    0.5757267766E+00
    0.1900000000E+07    0.6566300390E+00    0.1090232352E+00    0.3356280184E-03    0.2339327326E-01    0.5758527993E+00
    0.2100000000E+07    0.6566346215E+00    0.1089426940E+00    0.3180708321E-03    0.2339766822E-01    0.5759644964E+00
    0.2300000000E+07    0.6566380934E+00    0.1088692770E+00    0.3029093122E-03    0.2340163948E-01    0.5760647096E+00
    0.2500000000E+07    0.6566407457E+00    0.1088018235E+00    0.2896477507E-03    0.2340526142E-01    0.5761555209E+00
    0.2700000000E+07    0.6566427796E+00    0.1087394352E+00    0.2779226893E-03    0.2340859046E-01    0.5762384995E+00
    0.2900000000E+07    0.6566443380E+00    0.1086814032E+00    0.2674608267E-03    0.2341167037E-01    0.5763148564E+00
    0.3100000000E+07    0.6566455254E+00    0.1086271577E+00    0.2580522073E-03    0.2341453581E-01    0.5763855450E+00
    0.3300000000E+07    0.6566464191E+00    0.1085762340E+00    0.2495325433E-03    0.2341721469E-01    0.5764513288E+00
    0.3500000000E+07    0.6566470778E+00    0.1085282482E+00    0.2417712091E-03    0.2341972979E-01    0.5765128284E+00
    0.3700000000E+07    0.6566475467E+00    0.1084828793E+00    0.2346628780E-03    0.2342209998E-01    0.5765705551E+00
    0.3900000000E+07    0.6566478609E+00    0.1084398562E+00    0.2281215621E-03    0.2342434104E-01    0.5766249345E+00
    0.4100000000E+07    0.6566480480E+00    0.1083989481E+00    0.2220762822E-03    0.2342646631E-01    0.5766763250E+00
    0.4300000000E+07    0.6566481303E+00    0.1083599565E+00    0.2164678653E-03    0.2342848716E-01    0.5767250308E+00
    0.4500000000E+07    0.6566481254E+00    0.1083227097E+00    0.2112465385E-03    0.2343041338E-01    0.5767713125E+00
    0.4700000000E+07    0.6566480478E+00    0.1082870581E+00    0.2063700955E-03    0.2343225342E-01    0.5768153948E+00
    0.4900000000E+07    0.6566479093E+00    0.1082528706E+00    0.2018024820E-03    0.2343401467E-01    0.5768574729E+00
    0.1000000000E+07    0.6565753481E+00    0.1095326401E+00    0.4736603358E-03    0.2336422066E-01    0.5750935231E+00
    0.3000000000E+07    0.6566449727E+00    0.1086538384E+00    0.2626360376E-03    0.2341312802E-01    0.5763508577E+00
    0.5000000000E+07    0.6566478204E+00    0.1082362892E+00    0.1996246246E-03    0.2343486781E-01    0.5768778145E+00
    0.7000000000E+07    0.6566444920E+00    0.1079594936E+00    0.1666191419E-03    0.2344901679E-01    0.5772114615E+00
    0.9000000000E+07    0.6566401307E+00    0.1077521044E+00    0.1455776417E-03    0.2345952521E-01    0.5774550097E+00
    0.1100000000E+08    0.6566357572E+00    0.1075862042E+00    0.1307001878E-03    0.2346788857E-01    0.5776464751E+00
    0.1300000000E+08    0.6566316219E+00    0.1074479336E+00    0.1194810164E-03    0.2347483615E-01    0.5778040457E+00
    0.1500000000E+08    0.6566277761E+00    0.1073293947E+00    0.1106392263E-03    0.2348077878E-01    0.5779378213E+00
    0.1700000000E+08    0.6566242124E+00    0.1072256565E+00    0.1034436557E-03    0.2348597093E-01    0.5780539853E+00
    0.1900000000E+08    0.6566209067E+00    0.1071334328E+00    0.9744287062E-04    0.2349058117E-01    0.5781565957E+00
    0.2100000000E+08    0.6566178316E+00    0.1070504234E+00    0.9234124524E-04    0.2349472696E-01    0.5782484573E+00
    0.2300000000E+08    0.6566149614E+00    0.1069749550E+00    0.8793609674E-04    0.2349849343E-01    0.5783315888E+00
    0.2500000000E+08    0.6566122729E+00    0.1069057724E+00    0.8408325435E-04    0.2350194426E-01    0.5784074911E+00
    0.2700000000E+08    0.6566097462E+00    0.1068419098E+00    0.8067702276E-04    0.2350512832E-01    0.5784773100E+00
