  Pressure (Pa) 22mC5-400 (mol/kg) 3mC6-400 (mol/kg) 33mC5-400 (mol/kg) 23mC5-400 (mol/kg) C7-400 (mol/kg)
    0.1000000000E+01    0.2651773045E-02    0.2112493280E-02    0.5182590169E-03    0.9312443964E-04    0.3427925958E-02
    0.3000000000E+01    0.7883665303E-02    0.6228639838E-02    0.1524093590E-02    0.2768591476E-03    0.1010798353E-01
    0.5000000000E+01    0.1302228066E-01    0.1020585440E-01    0.2490705381E-02    0.4573209601E-03    0.1656362783E-01
    0.7000000000E+01    0.1807024274E-01    0.1405112562E-01    0.3420007262E-02    0.6346019115E-03    0.2280612981E-01
    0.9000000000E+01    0.2303007636E-01    0.1777097996E-01    0.4313791866E-02    0.8087905719E-03    0.2884601558E-01
    0.1100000000E+02    0.2790421219E-01    0.2137151930E-01    0.5173740999E-02    0.9799722073E-03    0.3469312702E-01
    0.1300000000E+02    0.3269499102E-01    0.2485845492E-01    0.6001434165E-02    0.1148228933E-02    0.4035667656E-01
    0.1500000000E+02    0.3740466791E-01    0.2823713831E-01    0.6798356302E-02    0.1313639855E-02    0.4584529671E-01
    0.1700000000E+02    0.4203541603E-01    0.3151258904E-01    0.7565904827E-02    0.1476281210E-02    0.5116708507E-01
    0.1900000000E+02    0.4658933039E-01    0.3468952017E-01    0.8305396044E-02    0.1636226491E-02    0.5632964515E-01
    0.2100000000E+02    0.5106843127E-01    0.3777236128E-01    0.9018070989E-02    0.1793546570E-02    0.6134012355E-01
    0.2300000000E+02    0.5547466753E-01    0.4076527950E-01    0.9705100778E-02    0.1948309815E-02    0.6620524380E-01
    0.2500000000E+02    0.5980991974E-01    0.4367219865E-01    0.1036759149E-01    0.2100582197E-02    0.7093133724E-01
    0.2700000000E+02    0.6407600312E-01    0.4649681682E-01    0.1100658865E-01    0.2250427398E-02    0.7552437126E-01
    0.2900000000E+02    0.6827467041E-01    0.4924262232E-01    0.1162308132E-01    0.2397906903E-02    0.7998997511E-01
    0.3100000000E+02    0.7240761444E-01    0.5191290839E-01    0.1221800592E-01    0.2543080101E-02    0.8433346352E-01
    0.3300000000E+02    0.7647647075E-01    0.5451078670E-01    0.1279224963E-01    0.2686004368E-02    0.8855985844E-01
    0.3500000000E+02    0.8048281996E-01    0.5703919962E-01    0.1334665365E-01    0.2826735156E-02    0.9267390892E-01
    0.3700000000E+02    0.8442819004E-01    0.5950093168E-01    0.1388201612E-01    0.2965326068E-02    0.9668010945E-01
    0.3900000000E+02    0.8831405852E-01    0.6189861996E-01    0.1439909485E-01    0.3101828940E-02    0.1005827168E+00
    0.4100000000E+02    0.9214185453E-01    0.6423476379E-01    0.1489860980E-01    0.3236293907E-02    0.1043857655E+00
    0.4300000000E+02    0.9591296077E-01    0.6651173360E-01    0.1538124548E-01    0.3368769479E-02    0.1080930824E+00
    0.4500000000E+02    0.9962871540E-01    0.6873177912E-01    0.1584765305E-01    0.3499302601E-02    0.1117082995E+00
    0.4700000000E+02    0.1032904138E+00    0.7089703704E-01    0.1629845233E-01    0.3627938719E-02    0.1152348666E+00
    0.4900000000E+02    0.1068993103E+00    0.7300953798E-01    0.1673423366E-01    0.3754721838E-02    0.1186760624E+00
    0.1000000000E+02    0.2547770815E-01    0.1958579827E-01    0.4747894844E-02    0.8947520634E-03    0.3179307816E-01
    0.3000000000E+02    0.7034925429E-01    0.5058700670E-01    0.1192318306E-01    0.2470778158E-02    0.8217666325E-01
    0.5000000000E+02    0.1086843389E+00    0.7404661175E-01    0.1694666945E-01    0.3817431894E-02    0.1203656265E+00
    0.7000000000E+02    0.1418891818E+00    0.9244072931E-01    0.2053052577E-01    0.4984046551E-02    0.1503570328E+00
    0.9000000000E+02    0.1709865610E+00    0.1072657427E+00    0.2311435024E-01    0.6006505097E-02    0.1745677699E+00
    0.1100000000E+03    0.1967384912E+00    0.1194796689E+00    0.2498350901E-01    0.6911543110E-02    0.1945460399E+00
    0.1300000000E+03    0.2197247337E+00    0.1297245697E+00    0.2633057906E-01    0.7719502634E-02    0.2113300171E+00
    0.1500000000E+03    0.2403945887E+00    0.1384470682E+00    0.2728958039E-01    0.8446148897E-02    0.2256422579E+00
    0.1700000000E+03    0.2591019788E+00    0.1459675792E+00    0.2795613789E-01    0.9103901001E-02    0.2380014173E+00
    0.1900000000E+03    0.2761297780E+00    0.1525220356E+00    0.2839990109E-01    0.9702685377E-02    0.2487896061E+00
    0.2100000000E+03    0.2917070384E+00    0.1582880726E+00    0.2867248252E-01    0.1025054010E-01    0.2582946720E+00
    0.2300000000E+03    0.3060214176E+00    0.1634020306E+00    0.2881269119E-01    0.1075405087E-01    0.2667376657E+00
    0.2500000000E+03    0.3192282971E+00    0.1679703291E+00    0.2885007454E-01    0.1121867092E-01    0.2742912180E+00
    0.2700000000E+03    0.3314575763E+00    0.1720772716E+00    0.2880737049E-01    0.1164895935E-01    0.2810921569E+00
    0.2900000000E+03    0.3428188051E+00    0.1757905253E+00    0.2870223860E-01    0.1204876121E-01    0.2872503669E+00
    0.3100000000E+03    0.3534051126E+00    0.1791650457E+00    0.2854850339E-01    0.1242134533E-01    0.2928551374E+00
    0.3300000000E+03    0.3632962484E+00    0.1822459383E+00    0.2835706120E-01    0.1276951108E-01    0.2979797922E+00
    0.3500000000E+03    0.3725609649E+00    0.1850705790E+00    0.2813655044E-01    0.1309567186E-01    0.3026851220E+00
    0.3700000000E+03    0.3812588996E+00    0.1876702082E+00    0.2789385314E-01    0.1340192124E-01    0.3070219648E+00
    0.3900000000E+03    0.3894420788E+00    0.1900711456E+00    0.2763447436E-01    0.1369008565E-01    0.3110331733E+00
    0.4100000000E+03    0.3971561281E+00    0.1922957259E+00    0.2736283201E-01    0.1396176691E-01    0.3147551311E+00
    0.4300000000E+03    0.4044412545E+00    0.1943630292E+00    0.2708248021E-01    0.1421837666E-01    0.3182189359E+00
    0.4500000000E+03    0.4113330503E+00    0.1962894553E+00    0.2679628296E-01    0.1446116457E-01    0.3214513311E+00
    0.4700000000E+03    0.4178631551E+00    0.1980891807E+00    0.2650655000E-01    0.1469124159E-01    0.3244754464E+00
    0.4900000000E+03    0.4240598052E+00    0.1997745249E+00    0.2621514395E-01    0.1490959920E-01    0.3273113917E+00
    0.1000000000E+03    0.1842409079E+00    0.1136533031E+00    0.2412454367E-01    0.6472305255E-02    0.1850119390E+00
    0.3000000000E+03    0.3482035568E+00    0.1775171050E+00    0.2863070557E-01    0.1223827060E-01    0.2901170202E+00
    0.5000000000E+03    0.4270410920E+00    0.2005777201E+00    0.2606929461E-01    0.1501466441E-01    0.3286643794E+00
    0.7000000000E+03    0.4741005853E+00    0.2126461670E+00    0.2330001174E-01    0.1667419123E-01    0.3491305105E+00
    0.9000000000E+03    0.5054414420E+00    0.2201220724E+00    0.2099477335E-01    0.1778088025E-01    0.3619838310E+00
    0.1100000000E+04    0.5277942170E+00    0.2252281374E+00    0.1913696209E-01    0.1857123252E-01    0.3708798266E+00
    0.1300000000E+04    0.5445182278E+00    0.2289459956E+00    0.1763086874E-01    0.1916334523E-01    0.3774411857E+00
    0.1500000000E+04    0.5574855119E+00    0.2317783500E+00    0.1639210968E-01    0.1962306075E-01    0.3825030165E+00
    0.1700000000E+04    0.5678231163E+00    0.2340101044E+00    0.1535717238E-01    0.1999003727E-01    0.3865408915E+00
    0.1900000000E+04    0.5762500546E+00    0.2358151453E+00    0.1447971845E-01    0.2028958671E-01    0.3898464372E+00
    0.2100000000E+04    0.5832463570E+00    0.2373057901E+00    0.1372589089E-01    0.2053861555E-01    0.3926088927E+00
    0.2300000000E+04    0.5891445109E+00    0.2385579125E+00    0.1307065668E-01    0.2074883912E-01    0.3949566756E+00
    0.2500000000E+04    0.5941819384E+00    0.2396246648E+00    0.1249522511E-01    0.2092862686E-01    0.3969801502E+00
    0.2700000000E+04    0.5985325964E+00    0.2405444203E+00    0.1198526870E-01    0.2108411370E-01    0.3987448433E+00
    0.2900000000E+04    0.6023267805E+00    0.2413455938E+00    0.1152969667E-01    0.2121989684E-01    0.4002994884E+00
    0.3100000000E+04    0.6056639656E+00    0.2420496866E+00    0.1111980120E-01    0.2133948760E-01    0.4016811205E+00
    0.3300000000E+04    0.6086213769E+00    0.2426732756E+00    0.1074865523E-01    0.2144561316E-01    0.4029184149E+00
    0.3500000000E+04    0.6112598585E+00    0.2432293516E+00    0.1041068152E-01    0.2154042313E-01    0.4040339381E+00
    0.3700000000E+04    0.6136279823E+00    0.2437282424E+00    0.1010133977E-01    0.2162563435E-01    0.4050457062E+00
    0.3900000000E+04    0.6157649824E+00    0.2441782642E+00    0.9816896241E-02    0.2170263422E-01    0.4059682861E+00
    0.4100000000E+04    0.6177028884E+00    0.2445861901E+00    0.9554251810E-02    0.2177255588E-01    0.4068135908E+00
    0.4300000000E+04    0.6194681007E+00    0.2449575932E+00    0.9310812108E-02    0.2183633373E-01    0.4075914627E+00
    0.4500000000E+04    0.6210825705E+00    0.2452971021E+00    0.9084388176E-02    0.2189474507E-01    0.4083101092E+00
    0.4700000000E+04    0.6225646968E+00    0.2456085932E+00    0.8873119705E-02    0.2194844168E-01    0.4089764314E+00
    0.4900000000E+04    0.6239300138E+00    0.2458953379E+00    0.8675415068E-02    0.2199797414E-01    0.4095962773E+00
    0.1000000000E+04    0.5174831096E+00    0.2228937990E+00    0.2001585124E-01    0.1820652159E-01    0.3667984993E+00
    0.3000000000E+04    0.6040472291E+00    0.2417086420E+00    0.1131950831E-01    0.2128153023E-01    0.4010099735E+00
    0.5000000000E+04    0.6245730743E+00    0.2460303159E+00    0.8581213433E-02    0.2202132792E-01    0.4098903599E+00
    0.7000000000E+04    0.6336619236E+00    0.2479279388E+00    0.7158986221E-02    0.2235354048E-01    0.4142308216E+00
    0.9000000000E+04    0.6387732228E+00    0.2489760058E+00    0.6257428588E-02    0.2254297059E-01    0.4168849331E+00
    0.1100000000E+05    0.6420445423E+00    0.2496288630E+00    0.5621942984E-02    0.2266587922E-01    0.4187110203E+00
    0.1300000000E+05    0.6443160855E+00    0.2500667057E+00    0.5143483665E-02    0.2275238719E-01    0.4200627268E+00
    0.1500000000E+05    0.6459846028E+00    0.2503752003E+00    0.4766694043E-02    0.2281678578E-01    0.4211143803E+00
    0.1700000000E+05    0.6472616505E+00    0.2506002191E+00    0.4460136097E-02    0.2286673152E-01    0.4219626489E+00
    0.1900000000E+05    0.6482702825E+00    0.2507684953E+00    0.4204470778E-02    0.2290669887E-01    0.4226658182E+00
    0.2100000000E+05    0.6490869181E+00    0.2508966297E+00    0.3987067482E-02    0.2293947961E-01    0.4232613084E+00
    0.2300000000E+05    0.6497615085E+00    0.2509954541E+00    0.3799283338E-02    0.2296690706E-01    0.4237743484E+00
    0.2500000000E+05    0.6503280758E+00    0.2510723216E+00    0.3634979189E-02    0.2299023572E-01    0.4242226280E+00
    0.2700000000E+05    0.6508105900E+00    0.2511323894E+00    0.3489658815E-02    0.2301035351E-01    0.4246189561E+00
    0.2900000000E+05    0.6512264237E+00    0.2511793736E+00    0.3359944073E-02    0.2302790697E-01    0.4249728603E+00
    0.3100000000E+05    0.6515884752E+00    0.2512160142E+00    0.3243241336E-02    0.2304337826E-01    0.4252915904E+00
    0.3300000000E+05    0.6519065202E+00    0.2512443721E+00    0.3137521957E-02    0.2305713455E-01    0.4255807721E+00
    0.3500000000E+05    0.6521881030E+00    0.2512660238E+00    0.3041173403E-02    0.2306946043E-01    0.4258448456E+00
    0.3700000000E+05    0.6524391381E+00    0.2512821936E+00    0.2952895662E-02    0.2308058007E-01    0.4260873679E+00
    0.3900000000E+05    0.6526643274E+00    0.2512938447E+00    0.2871627509E-02    0.2309067245E-01    0.4263112261E+00
    0.4100000000E+05    0.6528674562E+00    0.2513017441E+00    0.2796492968E-02    0.2309988233E-01    0.4265187913E+00
    0.4300000000E+05    0.6530516053E+00    0.2513065087E+00    0.2726761742E-02    0.2310832805E-01    0.4267120313E+00
    0.4500000000E+05    0.6532193083E+00    0.2513086395E+00    0.2661819501E-02    0.2311610735E-01    0.4268925946E+00
    0.4700000000E+05    0.6533726672E+00    0.2513085467E+00    0.2601145254E-02    0.2312330171E-01    0.4270618739E+00
    0.4900000000E+05    0.6535134410E+00    0.2513065689E+00    0.2544293893E-02    0.2312997959E-01    0.4272210554E+00
    0.1000000000E+05    0.6405708683E+00    0.2493372792E+00    0.5915074757E-02    0.2261030496E-01    0.4178731896E+00
    0.3000000000E+05    0.6514135002E+00    0.2511988448E+00    0.3300104223E-02    0.2303587769E-01    0.4251362384E+00
    0.5000000000E+05    0.6535795811E+00    0.2513049630E+00    0.2517180029E-02    0.2313314332E-01    0.4272971831E+00
    0.7000000000E+05    0.6545034799E+00    0.2512221423E+00    0.2105670148E-02    0.2317962171E-01    0.4284746021E+00
    0.9000000000E+05    0.6550142839E+00    0.2511012378E+00    0.1842664332E-02    0.2320806862E-01    0.4292585469E+00
    0.1100000000E+06    0.6553377917E+00    0.2509751843E+00    0.1656349149E-02    0.2322783411E-01    0.4298366270E+00
    0.1300000000E+06    0.6555606992E+00    0.2508532009E+00    0.1515634835E-02    0.2324266677E-01    0.4302901240E+00
    0.1500000000E+06    0.6557233939E+00    0.2507378930E+00    0.1404600828E-02    0.2325438566E-01    0.4306609472E+00
    0.1700000000E+06    0.6558472212E+00    0.2506297078E+00    0.1314145740E-02    0.2326399037E-01    0.4309732945E+00
    0.1900000000E+06    0.6559445181E+00    0.2505283488E+00    0.1238642950E-02    0.2327208065E-01    0.4312423001E+00
    0.2100000000E+06    0.6560229094E+00    0.2504332814E+00    0.1174403682E-02    0.2327904077E-01    0.4314780111E+00
    0.2300000000E+06    0.6560873596E+00    0.2503439233E+00    0.1118896397E-02    0.2328512979E-01    0.4316874122E+00
    0.2500000000E+06    0.6561412393E+00    0.2502597176E+00    0.1070318805E-02    0.2329052960E-01    0.4318755423E+00
    0.2700000000E+06    0.6561869167E+00    0.2501801575E+00    0.1027348562E-02    0.2329537223E-01    0.4320461473E+00
    0.2900000000E+06    0.6562261038E+00    0.2501047921E+00    0.9889907341E-03    0.2329975622E-01    0.4322020827E+00
    0.3100000000E+06    0.6562600690E+00    0.2500332237E+00    0.9544805689E-03    0.2330375682E-01    0.4323455722E+00
    0.3300000000E+06    0.6562897717E+00    0.2499651030E+00    0.9232193514E-03    0.2330743269E-01    0.4324783788E+00
    0.3500000000E+06    0.6563159508E+00    0.2499001229E+00    0.8947308197E-03    0.2331083036E-01    0.4326019228E+00
    0.3700000000E+06    0.6563391845E+00    0.2498380133E+00    0.8686307830E-03    0.2331398726E-01    0.4327173639E+00
    0.3900000000E+06    0.6563599319E+00    0.2497785361E+00    0.8446054651E-03    0.2331693395E-01    0.4328256608E+00
    0.4100000000E+06    0.6563785616E+00    0.2497214801E+00    0.8223957594E-03    0.2331969566E-01    0.4329276148E+00
    0.4300000000E+06    0.6563953735E+00    0.2496666581E+00    0.8017855804E-03    0.2332229343E-01    0.4330239016E+00
    0.4500000000E+06    0.6564106137E+00    0.2496139031E+00    0.7825931084E-03    0.2332474498E-01    0.4331150964E+00
    0.4700000000E+06    0.6564244860E+00    0.2495630659E+00    0.7646641170E-03    0.2332706539E-01    0.4332016924E+00
    0.4900000000E+06    0.6564371607E+00    0.2495140123E+00    0.7478668201E-03    0.2332926755E-01    0.4332841159E+00
    0.1000000000E+06    0.6551924026E+00    0.2510380302E+00    0.1742379534E-02    0.2321873514E-01    0.4295668999E+00
    0.3000000000E+06    0.6562436732E+00    0.2500685562E+00    0.9712954157E-03    0.2330180044E-01    0.4322752638E+00
    0.5000000000E+06    0.6564430946E+00    0.2494901162E+00    0.7398565014E-03    0.2333032782E-01    0.4333238806E+00
    0.7000000000E+06    0.6565241517E+00    0.2490820476E+00    0.6183530709E-03    0.2334736914E-01    0.4339691121E+00
    0.9000000000E+06    0.6565667477E+00    0.2487664639E+00    0.5407810870E-03    0.2335947517E-01    0.4344326739E+00
    0.1100000000E+07    0.6565923027E+00    0.2485089598E+00    0.4858761472E-03    0.2336884922E-01    0.4347933359E+00
    0.1300000000E+07    0.6566089181E+00    0.2482913533E+00    0.4444381650E-03    0.2337649230E-01    0.4350879563E+00
    0.1500000000E+07    0.6566203112E+00    0.2481028651E+00    0.4117592113E-03    0.2338294182E-01    0.4353366860E+00
    0.1700000000E+07    0.6566284168E+00    0.2479365758E+00    0.3851496414E-03    0.2338851914E-01    0.4355517189E+00
    0.1900000000E+07    0.6566343359E+00    0.2477877771E+00    0.3629476553E-03    0.2339343151E-01    0.4357409836E+00
    0.2100000000E+07    0.6566387381E+00    0.2476531191E+00    0.3440643619E-03    0.2339782028E-01    0.4359099197E+00
    0.2300000000E+07    0.6566420524E+00    0.2475301327E+00    0.3277528262E-03    0.2340178614E-01    0.4360624177E+00
    0.2500000000E+07    0.6566445653E+00    0.2474169451E+00    0.3134815030E-03    0.2340540332E-01    0.4362013550E+00
    0.2700000000E+07    0.6566464745E+00    0.2473121023E+00    0.3008605449E-03    0.2340872810E-01    0.4363289180E+00
    0.2900000000E+07    0.6566479206E+00    0.2472144520E+00    0.2895967300E-03    0.2341180419E-01    0.4364468068E+00
    0.3100000000E+07    0.6566490059E+00    0.2471230661E+00    0.2794647445E-03    0.2341466616E-01    0.4365563686E+00
    0.3300000000E+07    0.6566498064E+00    0.2470371855E+00    0.2702882436E-03    0.2341734188E-01    0.4366586891E+00
    0.3500000000E+07    0.6566503796E+00    0.2469561815E+00    0.2619269861E-03    0.2341985408E-01    0.4367546556E+00
    0.3700000000E+07    0.6566507695E+00    0.2468795276E+00    0.2542678694E-03    0.2342222160E-01    0.4368450027E+00
    0.3900000000E+07    0.6566510104E+00    0.2468067784E+00    0.2472185412E-03    0.2342446020E-01    0.4369303452E+00
    0.4100000000E+07    0.6566511293E+00    0.2467375538E+00    0.2407027553E-03    0.2342658317E-01    0.4370112025E+00
    0.4300000000E+07    0.6566511479E+00    0.2466715265E+00    0.2346569374E-03    0.2342860189E-01    0.4370880178E+00
    0.4500000000E+07    0.6566510833E+00    0.2466084132E+00    0.2290276043E-03    0.2343052610E-01    0.4371611718E+00
    0.4700000000E+07    0.6566509496E+00    0.2465479664E+00    0.2237693969E-03    0.2343236427E-01    0.4372309942E+00
    0.4900000000E+07    0.6566507583E+00    0.2464899691E+00    0.2188435621E-03    0.2343412376E-01    0.4372977724E+00
    0.1000000000E+07    0.6565809942E+00    0.2486318252E+00    0.5112230804E-03    0.2336442556E-01    0.4346230077E+00
    0.3000000000E+07    0.6566485031E+00    0.2471680269E+00    0.2844012539E-03    0.2341326006E-01    0.4365025554E+00
    0.5000000000E+07    0.6566506440E+00    0.2464618283E+00    0.2164946834E-03    0.2343497605E-01    0.4373300997E+00
    0.7000000000E+07    0.6566469222E+00    0.2459910360E+00    0.1808787810E-03    0.2344911203E-01    0.4378643754E+00
    0.9000000000E+07    0.6566422991E+00    0.2456371250E+00    0.1581529268E-03    0.2345961194E-01    0.4382588860E+00
    0.1100000000E+08    0.6566377342E+00    0.2453533678E+00    0.1420736591E-03    0.2346796919E-01    0.4385714837E+00
    0.1300000000E+08    0.6566334504E+00    0.2451164622E+00    0.1299415429E-03    0.2347491210E-01    0.4388302531E+00
    0.1500000000E+08    0.6566294847E+00    0.2449130871E+00    0.1203758567E-03    0.2348085102E-01    0.4390509542E+00
    0.1700000000E+08    0.6566258215E+00    0.2447349059E+00    0.1125880735E-03    0.2348604013E-01    0.4392433141E+00
    0.1900000000E+08    0.6566224312E+00    0.2445763520E+00    0.1060911381E-03    0.2349064783E-01    0.4394137581E+00
    0.2100000000E+08    0.6566192830E+00    0.2444335228E+00    0.1005659817E-03    0.2349479145E-01    0.4395667509E+00
    0.2300000000E+08    0.6566163486E+00    0.2443035759E+00    0.9579377846E-04    0.2349855605E-01    0.4397055211E+00
    0.2500000000E+08    0.6566136032E+00    0.2441843765E+00    0.9161882947E-04    0.2350200524E-01    0.4398324782E+00
    0.2700000000E+08    0.6566110256E+00    0.2440742804E+00    0.8792695792E-04    0.2350518785E-01    0.4399494680E+00
