  Pressure (Pa) 22mC5-400 (mol/kg) 3mC6-400 (mol/kg) 33mC5-400 (mol/kg) 23mC5-400 (mol/kg) C7-400 (mol/kg)
    0.1000000000E+01    0.3180632418E-02    0.4203656372E-02    0.6449163286E-04    0.1861614777E-03    0.5116057726E-02
    0.3000000000E+01    0.9447133715E-02    0.1227358494E-01    0.1880115514E-03    0.5529429268E-03    0.1493950275E-01
    0.5000000000E+01    0.1559041228E-01    0.1992295130E-01    0.3046958411E-03    0.9125186023E-03    0.2425346812E-01
    0.7000000000E+01    0.2161409339E-01    0.2718377477E-01    0.4150368742E-03    0.1265100439E-02    0.3309667979E-01
    0.9000000000E+01    0.2752166121E-01    0.3408490523E-01    0.5194800063E-03    0.1610892123E-02    0.4150403357E-01
    0.1100000000E+02    0.3331646560E-01    0.4065240578E-01    0.6184291822E-03    0.1950089493E-02    0.4950705726E-01
    0.1300000000E+02    0.3900172852E-01    0.4690988128E-01    0.7122517485E-03    0.2282880907E-02    0.5713430752E-01
    0.1500000000E+02    0.4458055009E-01    0.5287876145E-01    0.8012826037E-03    0.2609447604E-02    0.6441171189E-01
    0.1700000000E+02    0.5005591424E-01    0.5857854576E-01    0.8858277884E-03    0.2929964032E-02    0.7136286464E-01
    0.1900000000E+02    0.5543069416E-01    0.6402701594E-01    0.9661676031E-03    0.3244598164E-02    0.7800928348E-01
    0.2100000000E+02    0.6070765736E-01    0.6924042106E-01    0.1042559325E-02    0.3553511796E-02    0.8437063320E-01
    0.2300000000E+02    0.6588947048E-01    0.7423363912E-01    0.1115239582E-02    0.3856860828E-02    0.9046492095E-01
    0.2500000000E+02    0.7097870386E-01    0.7902031873E-01    0.1184426435E-02    0.4154795532E-02    0.9630866733E-01
    0.2700000000E+02    0.7597783582E-01    0.8361300344E-01    0.1250321211E-02    0.4447460799E-02    0.1019170567E+00
    0.2900000000E+02    0.8088925678E-01    0.8802324139E-01    0.1313110114E-02    0.4734996384E-02    0.1073040699E+00
    0.3100000000E+02    0.8571527308E-01    0.9226168211E-01    0.1372965658E-02    0.5017537127E-02    0.1124826007E+00
    0.3300000000E+02    0.9045811068E-01    0.9633816226E-01    0.1430047931E-02    0.5295213166E-02    0.1174645599E+00
    0.3500000000E+02    0.9511991862E-01    0.1002617817E+00    0.1484505719E-02    0.5568150147E-02    0.1222609672E+00
    0.3700000000E+02    0.9970277228E-01    0.1040409713E+00    0.1536477514E-02    0.5836469407E-02    0.1268820329E+00
    0.3900000000E+02    0.1042086766E+00    0.1076835530E+00    0.1586092408E-02    0.6100288167E-02    0.1313372311E+00
    0.4100000000E+02    0.1086395689E+00    0.1111967944E+00    0.1633470893E-02    0.6359719696E-02    0.1356353647E+00
    0.4300000000E+02    0.1129973218E+00    0.1145874564E+00    0.1678725585E-02    0.6614873483E-02    0.1397846239E+00
    0.4500000000E+02    0.1172837461E+00    0.1178618367E+00    0.1721961868E-02    0.6865855390E-02    0.1437926386E+00
    0.4700000000E+02    0.1215005928E+00    0.1210258094E+00    0.1763278478E-02    0.7112767800E-02    0.1476665257E+00
    0.4900000000E+02    0.1256495559E+00    0.1240848590E+00    0.1802768032E-02    0.7355709763E-02    0.1514129312E+00
    0.1000000000E+02    0.3043295453E-01    0.3740882984E-01    0.5696175734E-03    0.1781303154E-02    0.4555423650E-01
    0.3000000000E+02    0.8331279955E-01    0.9016330350E-01    0.1343394273E-02    0.4876882869E-02    0.1099186292E+00
    0.5000000000E+02    0.1276990956E+00    0.1255766532E+00    0.1821855049E-02    0.7475721902E-02    0.1532402861E+00
    0.7000000000E+02    0.1654982008E+00    0.1509872055E+00    0.2126219624E-02    0.9689278022E-02    0.1844074208E+00
    0.9000000000E+02    0.1980842230E+00    0.1701049767E+00    0.2320605236E-02    0.1159789505E-01    0.2079177648E+00
    0.1100000000E+03    0.2264727572E+00    0.1850073502E+00    0.2442314484E-02    0.1326095818E-01    0.2262920816E+00
    0.1300000000E+03    0.2514307625E+00    0.1969481063E+00    0.2514515268E-02    0.1472331667E-01    0.2410531359E+00
    0.1500000000E+03    0.2735483664E+00    0.2067287575E+00    0.2552286207E-02    0.1601948129E-01    0.2531752801E+00
    0.1700000000E+03    0.2932871391E+00    0.2148855988E+00    0.2565787378E-02    0.1717644637E-01    0.2633110467E+00
    0.1900000000E+03    0.3110133658E+00    0.2217910189E+00    0.2562047685E-02    0.1821563486E-01    0.2719139451E+00
    0.2100000000E+03    0.3270214855E+00    0.2277116685E+00    0.2546030266E-02    0.1915426867E-01    0.2793090049E+00
    0.2300000000E+03    0.3415509288E+00    0.2328434994E+00    0.2521296178E-02    0.2000635305E-01    0.2857352920E+00
    0.2500000000E+03    0.3547984265E+00    0.2373337362E+00    0.2490432767E-02    0.2078339627E-01    0.2913725843E+00
    0.2700000000E+03    0.3669271497E+00    0.2412951342E+00    0.2455338286E-02    0.2149494398E-01    0.2963586913E+00
    0.2900000000E+03    0.3780735947E+00    0.2448155078E+00    0.2417415614E-02    0.2214898183E-01    0.3008010351E+00
    0.3100000000E+03    0.3883528364E+00    0.2479642637E+00    0.2377706803E-02    0.2275224260E-01    0.3047845948E+00
    0.3300000000E+03    0.3978625847E+00    0.2507969833E+00    0.2336988153E-02    0.2331044343E-01    0.3083774825E+00
    0.3500000000E+03    0.4066863511E+00    0.2533587007E+00    0.2295838398E-02    0.2382847099E-01    0.3116349336E+00
    0.3700000000E+03    0.4148959453E+00    0.2556862909E+00    0.2254688235E-02    0.2431052745E-01    0.3146022157E+00
    0.3900000000E+03    0.4225534608E+00    0.2578102364E+00    0.2213856716E-02    0.2476024664E-01    0.3173167823E+00
    0.4100000000E+03    0.4297128700E+00    0.2597559552E+00    0.2173578241E-02    0.2518078732E-01    0.3198098907E+00
    0.4300000000E+03    0.4364213130E+00    0.2615448095E+00    0.2134022756E-02    0.2557490852E-01    0.3221078344E+00
    0.4500000000E+03    0.4427201486E+00    0.2631948839E+00    0.2095310989E-02    0.2594503108E-01    0.3242328914E+00
    0.4700000000E+03    0.4486458168E+00    0.2647215901E+00    0.2057526004E-02    0.2629328804E-01    0.3262040639E+00
    0.4900000000E+03    0.4542305503E+00    0.2661381431E+00    0.2020722036E-02    0.2662156628E-01    0.3280376596E+00
    0.1000000000E+03    0.2127503972E+00    0.1779910417E+00    0.2388855509E-02    0.1245703458E-01    0.2176351640E+00
    0.3000000000E+03    0.3833151429E+00    0.2464325837E+00    0.2397730635E-02    0.2245658061E-01    0.3028455637E+00
    0.5000000000E+03    0.4569041366E+00    0.2668087358E+00    0.2002698697E-02    0.2677874436E-01    0.3289073411E+00
    0.7000000000E+03    0.4979719554E+00    0.2765217875E+00    0.1694702756E-02    0.2919516289E-01    0.3416566382E+00
    0.9000000000E+03    0.5241748714E+00    0.2821720754E+00    0.1470261426E-02    0.3073969290E-01    0.3492654041E+00
    0.1100000000E+04    0.5423427494E+00    0.2858490636E+00    0.1303389277E-02    0.3181250629E-01    0.3543446657E+00
    0.1300000000E+04    0.5556772610E+00    0.2884214016E+00    0.1175493266E-02    0.3260130931E-01    0.3579895910E+00
    0.1500000000E+04    0.5658789881E+00    0.2903143839E+00    0.1074632847E-02    0.3320586361E-01    0.3607410699E+00
    0.1700000000E+04    0.5739348071E+00    0.2917605504E+00    0.9931066502E-03    0.3368409756E-01    0.3628974034E+00
    0.1900000000E+04    0.5804566821E+00    0.2928976405E+00    0.9258155169E-03    0.3407195424E-01    0.3646367998E+00
    0.2100000000E+04    0.5858442117E+00    0.2938123582E+00    0.8692812137E-03    0.3439291772E-01    0.3660723952E+00
    0.2300000000E+04    0.5903693661E+00    0.2945619586E+00    0.8210626944E-03    0.3466298100E-01    0.3672795353E+00
    0.2500000000E+04    0.5942236559E+00    0.2951857428E+00    0.7794019364E-03    0.3489341245E-01    0.3683103781E+00
    0.2700000000E+04    0.5975458262E+00    0.2957115639E+00    0.7430032272E-03    0.3509238061E-01    0.3692022023E+00
    0.2900000000E+04    0.6004388516E+00    0.2961596993E+00    0.7108917638E-03    0.3526595163E-01    0.3699823772E+00
    0.3100000000E+04    0.6029807613E+00    0.2965452530E+00    0.6823206455E-03    0.3541872492E-01    0.3706714616E+00
    0.3300000000E+04    0.6052317589E+00    0.2968796995E+00    0.6567081871E-03    0.3555425124E-01    0.3712852066E+00
    0.3500000000E+04    0.6072390355E+00    0.2971719075E+00    0.6335947166E-03    0.3567531556E-01    0.3718358893E+00
    0.3700000000E+04    0.6090401044E+00    0.2974288363E+00    0.6126121890E-03    0.3578413300E-01    0.3723332247E+00
    0.3900000000E+04    0.6106651593E+00    0.2976560201E+00    0.5934624172E-03    0.3588248756E-01    0.3727850043E+00
    0.4100000000E+04    0.6121387768E+00    0.2978579135E+00    0.5759012111E-03    0.3597183217E-01    0.3731975524E+00
    0.4300000000E+04    0.6134811633E+00    0.2980381401E+00    0.5597266431E-03    0.3605336216E-01    0.3735760575E+00
    0.4500000000E+04    0.6147090855E+00    0.2981996770E+00    0.5447702430E-03    0.3612806991E-01    0.3739248180E+00
    0.4700000000E+04    0.6158365714E+00    0.2983449912E+00    0.5308903068E-03    0.3619678625E-01    0.3742474266E+00
    0.4900000000E+04    0.6168754480E+00    0.2984761438E+00    0.5179667496E-03    0.3626021204E-01    0.3745469099E+00
    0.1000000000E+04    0.5340133209E+00    0.2841876930E+00    0.1380978910E-02    0.3132041745E-01    0.3520337558E+00
    0.3000000000E+04    0.6017495806E+00    0.2963595106E+00    0.6962033072E-03    0.3534469533E-01    0.3703372267E+00
    0.5000000000E+04    0.6173648561E+00    0.2985369626E+00    0.5118309950E-03    0.3629013059E-01    0.3746887979E+00
    0.7000000000E+04    0.6242929470E+00    0.2993148391E+00    0.4208723333E-03    0.3671711430E-01    0.3767712429E+00
    0.9000000000E+04    0.6282031639E+00    0.2996558655E+00    0.3647670585E-03    0.3696230645E-01    0.3780401202E+00
    0.1100000000E+05    0.6307137177E+00    0.2998136125E+00    0.3258954887E-03    0.3712242272E-01    0.3789165475E+00
    0.1300000000E+05    0.6324615046E+00    0.2998813059E+00    0.2969764172E-03    0.3723576418E-01    0.3795702100E+00
    0.1500000000E+05    0.6337479772E+00    0.2999002794E+00    0.2744019730E-03    0.3732056899E-01    0.3800835849E+00
    0.1700000000E+05    0.6347342687E+00    0.2998912186E+00    0.2561591689E-03    0.3738664400E-01    0.3805019906E+00
    0.1900000000E+05    0.6355143176E+00    0.2998653891E+00    0.2410264842E-03    0.3743974019E-01    0.3808525903E+00
    0.2100000000E+05    0.6361465826E+00    0.2998293183E+00    0.2282147411E-03    0.3748345735E-01    0.3811527595E+00
    0.2300000000E+05    0.6366693456E+00    0.2997869684E+00    0.2171886913E-03    0.3752016646E-01    0.3814141895E+00
    0.2500000000E+05    0.6371087232E+00    0.2997408314E+00    0.2075709432E-03    0.3755149441E-01    0.3816450718E+00
    0.2700000000E+05    0.6374831432E+00    0.2996925179E+00    0.1990868300E-03    0.3757859566E-01    0.3818513388E+00
    0.2900000000E+05    0.6378059791E+00    0.2996430898E+00    0.1915310960E-03    0.3760231279E-01    0.3820374074E+00
    0.3100000000E+05    0.6380871712E+00    0.2995932571E+00    0.1847468893E-03    0.3762327564E-01    0.3822066436E+00
    0.3300000000E+05    0.6383342622E+00    0.2995434989E+00    0.1786120295E-03    0.3764196480E-01    0.3823616647E+00
    0.3500000000E+05    0.6385530780E+00    0.2994941388E+00    0.1730297505E-03    0.3765875357E-01    0.3825045412E+00
    0.3700000000E+05    0.6387481902E+00    0.2994453947E+00    0.1679222934E-03    0.3767393647E-01    0.3826369363E+00
    0.3900000000E+05    0.6389232363E+00    0.2993974110E+00    0.1632263669E-03    0.3768774917E-01    0.3827602038E+00
    0.4100000000E+05    0.6390811464E+00    0.2993502810E+00    0.1588898652E-03    0.3770038254E-01    0.3828754591E+00
    0.4300000000E+05    0.6392243071E+00    0.2993040616E+00    0.1548694516E-03    0.3771199291E-01    0.3829836307E+00
    0.4500000000E+05    0.6393546820E+00    0.2992587844E+00    0.1511287505E-03    0.3772270958E-01    0.3830854992E+00
    0.4700000000E+05    0.6394739015E+00    0.2992144623E+00    0.1476369747E-03    0.3773264050E-01    0.3831817265E+00
    0.4900000000E+05    0.6395833304E+00    0.2991710957E+00    0.1443678692E-03    0.3774187654E-01    0.3832728781E+00
    0.1000000000E+05    0.6295818738E+00    0.2997499781E+00    0.3437588162E-03    0.3704990546E-01    0.3785137560E+00
    0.3000000000E+05    0.6379512623E+00    0.2996181897E+00    0.1880508752E-03    0.3761310554E-01    0.3821239512E+00
    0.5000000000E+05    0.6396347403E+00    0.2991497682E+00    0.1428096462E-03    0.3774625851E-01    0.3833167054E+00
    0.7000000000E+05    0.6403523235E+00    0.2987688565E+00    0.1192283514E-03    0.3781116139E-01    0.3840159292E+00
    0.9000000000E+05    0.6407480272E+00    0.2984582529E+00    0.1042194117E-03    0.3785146664E-01    0.3845069865E+00
    0.1100000000E+06    0.6409977643E+00    0.2981978519E+00    0.9361379146E-04    0.3787979289E-01    0.3848842568E+00
    0.1300000000E+06    0.6411691525E+00    0.2979742104E+00    0.8561761368E-04    0.3790124816E-01    0.3851900976E+00
    0.1500000000E+06    0.6412937005E+00    0.2977784326E+00    0.7931587630E-04    0.3791833117E-01    0.3854470375E+00
    0.1700000000E+06    0.6413880576E+00    0.2976044328E+00    0.7418695112E-04    0.3793242458E-01    0.3856684466E+00
    0.1900000000E+06    0.6414618416E+00    0.2974478942E+00    0.6990903245E-04    0.3794436313E-01    0.3858628941E+00
    0.2100000000E+06    0.6415209921E+00    0.2973056555E+00    0.6627149069E-04    0.3795468462E-01    0.3860361948E+00
    0.2300000000E+06    0.6415693732E+00    0.2971753359E+00    0.6312996435E-04    0.3796375345E-01    0.3861924722E+00
    0.2500000000E+06    0.6416096056E+00    0.2970551005E+00    0.6038178870E-04    0.3797182667E-01    0.3863347549E+00
    0.2700000000E+06    0.6416435283E+00    0.2969435057E+00    0.5795170700E-04    0.3797909167E-01    0.3864653317E+00
    0.2900000000E+06    0.6416724697E+00    0.2968393962E+00    0.5578313973E-04    0.3798568883E-01    0.3865859740E+00
    0.3100000000E+06    0.6416974122E+00    0.2967418330E+00    0.5383262640E-04    0.3799172578E-01    0.3866980805E+00
    0.3300000000E+06    0.6417190982E+00    0.2966500432E+00    0.5206616222E-04    0.3799728671E-01    0.3868027747E+00
    0.3500000000E+06    0.6417380987E+00    0.2965633826E+00    0.5045671125E-04    0.3800243857E-01    0.3869009724E+00
    0.3700000000E+06    0.6417548599E+00    0.2964813091E+00    0.4898247410E-04    0.3800723543E-01    0.3869934301E+00
    0.3900000000E+06    0.6417697353E+00    0.2964033621E+00    0.4762565408E-04    0.3801172155E-01    0.3870807794E+00
    0.4100000000E+06    0.6417830087E+00    0.2963291468E+00    0.4637156067E-04    0.3801593353E-01    0.3871635537E+00
    0.4300000000E+06    0.6417949104E+00    0.2962583226E+00    0.4520794659E-04    0.3801990202E-01    0.3872422068E+00
    0.4500000000E+06    0.6418056292E+00    0.2961905933E+00    0.4412450981E-04    0.3802365288E-01    0.3873171285E+00
    0.4700000000E+06    0.6418153212E+00    0.2961256999E+00    0.4311251418E-04    0.3802720815E-01    0.3873886559E+00
    0.4900000000E+06    0.6418241166E+00    0.2960634146E+00    0.4216449658E-04    0.3803058671E-01    0.3874570823E+00
    0.1000000000E+06    0.6408856459E+00    0.2983227501E+00    0.9850825423E-04    0.3786671737E-01    0.3847065293E+00
    0.3000000000E+06    0.6416853897E+00    0.2967898480E+00    0.5478293961E-04    0.3798877160E-01    0.3866430185E+00
    0.5000000000E+06    0.6418282130E+00    0.2960331861E+00    0.4171243812E-04    0.3803221492E-01    0.3874902142E+00
    0.7000000000E+06    0.6418822903E+00    0.2955269508E+00    0.3485795150E-04    0.3805851452E-01    0.3880385352E+00
    0.9000000000E+06    0.6419083808E+00    0.2951460086E+00    0.3048403272E-04    0.3807733275E-01    0.3884444974E+00
    0.1100000000E+07    0.6419224654E+00    0.2948404891E+00    0.2738909723E-04    0.3809197067E-01    0.3887669146E+00
    0.1300000000E+07    0.6419304692E+00    0.2945854080E+00    0.2505370516E-04    0.3810394307E-01    0.3890343389E+00
    0.1500000000E+07    0.6419350548E+00    0.2943664484E+00    0.2321218398E-04    0.3811406905E-01    0.3892628061E+00
    0.1700000000E+07    0.6419375778E+00    0.2941746384E+00    0.2171280967E-04    0.3812284100E-01    0.3894622257E+00
    0.1900000000E+07    0.6419387918E+00    0.2940039824E+00    0.2046186423E-04    0.3813057778E-01    0.3896391506E+00
    0.2100000000E+07    0.6419391439E+00    0.2938502750E+00    0.1939795158E-04    0.3813749762E-01    0.3897981404E+00
    0.2300000000E+07    0.6419389131E+00    0.2937104521E+00    0.1847896322E-04    0.3814375641E-01    0.3899424956E+00
    0.2500000000E+07    0.6419382803E+00    0.2935822121E+00    0.1767493706E-04    0.3814946933E-01    0.3900746821E+00
    0.2700000000E+07    0.6419373672E+00    0.2934637822E+00    0.1696390050E-04    0.3815472389E-01    0.3901965910E+00
    0.2900000000E+07    0.6419362570E+00    0.2933537679E+00    0.1632932841E-04    0.3815958816E-01    0.3903097045E+00
    0.3100000000E+07    0.6419350086E+00    0.2932510523E+00    0.1575852363E-04    0.3816411607E-01    0.3904152056E+00
    0.3300000000E+07    0.6419336639E+00    0.2931547270E+00    0.1524154921E-04    0.3816835112E-01    0.3905140536E+00
    0.3500000000E+07    0.6419322533E+00    0.2930640435E+00    0.1477050299E-04    0.3817232889E-01    0.3906070374E+00
    0.3700000000E+07    0.6419307993E+00    0.2929783774E+00    0.1433901230E-04    0.3817607885E-01    0.3906948134E+00
    0.3900000000E+07    0.6419293186E+00    0.2928972027E+00    0.1394187381E-04    0.3817962567E-01    0.3907779335E+00
    0.4100000000E+07    0.6419278234E+00    0.2928200718E+00    0.1357479178E-04    0.3818299022E-01    0.3908568665E+00
    0.4300000000E+07    0.6419263231E+00    0.2927466011E+00    0.1323418453E-04    0.3818619034E-01    0.3909320136E+00
    0.4500000000E+07    0.6419248247E+00    0.2926764588E+00    0.1291703896E-04    0.3818924134E-01    0.3910037213E+00
    0.4700000000E+07    0.6419233335E+00    0.2926093566E+00    0.1262079970E-04    0.3819215651E-01    0.3910722902E+00
    0.4900000000E+07    0.6419218535E+00    0.2925450419E+00    0.1234328362E-04    0.3819494742E-01    0.3911379835E+00
    0.1000000000E+07    0.6419164378E+00    0.2949857301E+00    0.2881779318E-04    0.3808505627E-01    0.3886139528E+00
    0.3000000000E+07    0.6419356471E+00    0.2933015588E+00    0.1603663105E-04    0.3816189123E-01    0.3903633421E+00
    0.5000000000E+07    0.6419211186E+00    0.2925138593E+00    0.1221094956E-04    0.3819629951E-01    0.3911698252E+00
    0.7000000000E+07    0.6419074104E+00    0.2919942636E+00    0.1020428666E-04    0.3821874011E-01    0.3916996055E+00
    0.9000000000E+07    0.6418956797E+00    0.2916059291E+00    0.8923744350E-05    0.3823542356E-01    0.3920947233E+00
    0.1100000000E+08    0.6418856036E+00    0.2912957486E+00    0.8017631919E-05    0.3824870948E-01    0.3924099158E+00
    0.1300000000E+08    0.6418768217E+00    0.2910374820E+00    0.7333891150E-05    0.3825975073E-01    0.3926721242E+00
    0.1500000000E+08    0.6418690572E+00    0.2908162232E+00    0.6794744381E-05    0.3826919761E-01    0.3928966151E+00
    0.1700000000E+08    0.6418621067E+00    0.2906226868E+00    0.6355771357E-05    0.3827745324E-01    0.3930928810E+00
    0.1900000000E+08    0.6418558193E+00    0.2904506956E+00    0.5989533606E-05    0.3828478484E-01    0.3932672292E+00
    0.2100000000E+08    0.6418500816E+00    0.2902959313E+00    0.5678055514E-05    0.3829137872E-01    0.3934240639E+00
    0.2300000000E+08    0.6418448063E+00    0.2901552564E+00    0.5409008413E-05    0.3829736995E-01    0.3935665824E+00
    0.2500000000E+08    0.6418399250E+00    0.2900263192E+00    0.5173619875E-05    0.3830285960E-01    0.3936971795E+00
    0.2700000000E+08    0.6418353834E+00    0.2899073119E+00    0.4965456661E-05    0.3830792525E-01    0.3938176953E+00
