  Pressure (Pa) 22mC5-400 (mol/kg) 3mC6-400 (mol/kg) 33mC5-400 (mol/kg) 23mC5-400 (mol/kg) C7-400 (mol/kg)
    0.1000000000E+01    0.3179384173E-02    0.1052844580E-02    0.3228669647E-03    0.2791326968E-03    0.6833877727E-02
    0.3000000000E+01    0.9436174077E-02    0.3084921927E-02    0.9435271140E-03    0.8284527957E-03    0.2002607099E-01
    0.5000000000E+01    0.1556070604E-01    0.5024454970E-02    0.1532579102E-02    0.1366171470E-02    0.3262033341E-01
    0.7000000000E+01    0.2155726623E-01    0.6877643353E-02    0.2092047993E-02    0.1892664592E-02    0.4465665675E-01
    0.9000000000E+01    0.2742995609E-01    0.8650144621E-02    0.2623790184E-02    0.2408291838E-02    0.5617153869E-01
    0.1100000000E+02    0.3318270220E-01    0.1034713221E-01    0.3129510921E-02    0.2913397550E-02    0.6719835646E-01
    0.1300000000E+02    0.3881926546E-01    0.1197334616E-01    0.3610779654E-02    0.3408311545E-02    0.7776769345E-01
    0.1500000000E+02    0.4434324973E-01    0.1353313756E-01    0.4069043517E-02    0.3893349868E-02    0.8790762573E-01
    0.1700000000E+02    0.4975810992E-01    0.1503050766E-01    0.4505639221E-02    0.4368815504E-02    0.9764397391E-01
    0.1900000000E+02    0.5506715961E-01    0.1646914233E-01    0.4921803557E-02    0.4834999047E-02    0.1070005253E+00
    0.2100000000E+02    0.6027357816E-01    0.1785244255E-01    0.5318682706E-02    0.5292179321E-02    0.1159992304E+00
    0.2300000000E+02    0.6538041749E-01    0.1918355143E-01    0.5697340514E-02    0.5740623975E-02    0.1246603767E+00
    0.2500000000E+02    0.7039060835E-01    0.2046537819E-01    0.6058765857E-02    0.6180590033E-02    0.1330027436E+00
    0.2700000000E+02    0.7530696629E-01    0.2170061951E-01    0.6403879220E-02    0.6612324417E-02    0.1410437401E+00
    0.2900000000E+02    0.8013219724E-01    0.2289177863E-01    0.6733538583E-02    0.7036064440E-02    0.1487995271E+00
    0.3100000000E+02    0.8486890284E-01    0.2404118237E-01    0.7048544699E-02    0.7452038266E-02    0.1562851283E+00
    0.3300000000E+02    0.8951958536E-01    0.2515099641E-01    0.7349645838E-02    0.7860465349E-02    0.1635145277E+00
    0.3500000000E+02    0.9408665246E-01    0.2622323903E-01    0.7637542062E-02    0.8261556844E-02    0.1705007584E+00
    0.3700000000E+02    0.9857242157E-01    0.2725979340E-01    0.7912889076E-02    0.8655515995E-02    0.1772559825E+00
    0.3900000000E+02    0.1029791241E+00    0.2826241877E-01    0.8176301713E-02    0.9042538504E-02    0.1837915619E+00
    0.4100000000E+02    0.1073089094E+00    0.2923276044E-01    0.8428357095E-02    0.9422812876E-02    0.1901181241E+00
    0.4300000000E+02    0.1115638486E+00    0.3017235888E-01    0.8669597492E-02    0.9796520752E-02    0.1962456198E+00
    0.4500000000E+02    0.1157459378E+00    0.3108265792E-01    0.8900532927E-02    0.1016383721E-01    0.2021833763E+00
    0.4700000000E+02    0.1198571020E+00    0.3196501227E-01    0.9121643544E-02    0.1052493107E-01    0.2079401459E+00
    0.4900000000E+02    0.1238991977E+00    0.3282069424E-01    0.9333381769E-02    0.1087996517E-01    0.2135241490E+00
    0.1000000000E+02    0.3032108328E-01    0.9507771766E-02    0.2879802127E-02    0.2662138941E-02    0.6174398219E-01
    0.3000000000E+02    0.8251145704E-01    0.2347156096E-01    0.6892825352E-02    0.7245008213E-02    0.1525752037E+00
    0.5000000000E+02    0.1258949072E+00    0.3323890968E-01    0.9435870528E-02    0.1105525912E-01    0.2162537966E+00
    0.7000000000E+02    0.1625871204E+00    0.4045843758E-01    0.1108532809E-01    0.1427844460E-01    0.2634278480E+00
    0.9000000000E+02    0.1940690932E+00    0.4601447370E-01    0.1216050081E-01    0.1704446079E-01    0.2998135478E+00
    0.1100000000E+03    0.2214090693E+00    0.5042409246E-01    0.1285215245E-01    0.1944700725E-01    0.3287558054E+00
    0.1300000000E+03    0.2453975306E+00    0.5400991235E-01    0.1328058651E-01    0.2155542406E-01    0.3523432280E+00
    0.1500000000E+03    0.2666324720E+00    0.5698370312E-01    0.1352479565E-01    0.2342216952E-01    0.3719478517E+00
    0.1700000000E+03    0.2855750518E+00    0.5949026071E-01    0.1363828403E-01    0.2508770042E-01    0.3885085143E+00
    0.1900000000E+03    0.3025869547E+00    0.6163196470E-01    0.1365818962E-01    0.2658374869E-01    0.4026895377E+00
    0.2100000000E+03    0.3179561098E+00    0.6348326414E-01    0.1361080049E-01    0.2793557683E-01    0.4149743744E+00
    0.2300000000E+03    0.3319147895E+00    0.6509960367E-01    0.1351502165E-01    0.2916356528E-01    0.4257233398E+00
    0.2500000000E+03    0.3446526009E+00    0.6652313019E-01    0.1338462402E-01    0.3028435178E-01    0.4352105382E+00
    0.2700000000E+03    0.3563259776E+00    0.6778645854E-01    0.1322974273E-01    0.3131166398E-01    0.4436482413E+00
    0.2900000000E+03    0.3670652281E+00    0.6891522529E-01    0.1305789797E-01    0.3225693760E-01    0.4512034279E+00
    0.3100000000E+03    0.3769798461E+00    0.6992986260E-01    0.1287470419E-01    0.3312978223E-01    0.4580092784E+00
    0.3300000000E+03    0.3861625647E+00    0.7084685686E-01    0.1268437104E-01    0.3393833698E-01    0.4641733341E+00
    0.3500000000E+03    0.3946924904E+00    0.7167965852E-01    0.1249006249E-01    0.3468954535E-01    0.4697833977E+00
    0.3700000000E+03    0.4026375519E+00    0.7243935115E-01    0.1229415759E-01    0.3538937008E-01    0.4749118752E+00
    0.3900000000E+03    0.4100564340E+00    0.7313515083E-01    0.1209844195E-01    0.3604296281E-01    0.4796190168E+00
    0.4100000000E+03    0.4170001197E+00    0.7377478411E-01    0.1190424978E-01    0.3665479930E-01    0.4839553725E+00
    0.4300000000E+03    0.4235131298E+00    0.7436477770E-01    0.1171257027E-01    0.3722878827E-01    0.4879636738E+00
    0.4500000000E+03    0.4296345280E+00    0.7491068295E-01    0.1152412782E-01    0.3776835952E-01    0.4916802930E+00
    0.4700000000E+03    0.4353987428E+00    0.7541725179E-01    0.1133944299E-01    0.3827653606E-01    0.4951363875E+00
    0.4900000000E+03    0.4408362428E+00    0.7588857581E-01    0.1115887916E-01    0.3875599337E-01    0.4983588045E+00
    0.1000000000E+03    0.2082020963E+00    0.4833911223E-01    0.1254552693E-01    0.1828636658E-01    0.3150631810E+00
    0.3000000000E+03    0.3721194681E+00    0.6943569930E-01    0.1296742845E-01    0.3270187394E-01    0.4546927761E+00
    0.5000000000E+03    0.4434410531E+00    0.7611214685E-01    0.1107022218E-01    0.3898570563E-01    0.4998897761E+00
    0.7000000000E+03    0.4835916778E+00    0.7938533538E-01    0.9533625374E-02    0.4252949819E-01    0.5225291191E+00
    0.9000000000E+03    0.5093356464E+00    0.8132357249E-01    0.8389050824E-02    0.4480572907E-01    0.5362206750E+00
    0.1100000000E+04    0.5272280287E+00    0.8260109764E-01    0.7523407163E-02    0.4639052042E-01    0.5454355595E+00
    0.1300000000E+04    0.5403723581E+00    0.8350362159E-01    0.6850342460E-02    0.4755680822E-01    0.5520825164E+00
    0.1500000000E+04    0.5504292657E+00    0.8417301698E-01    0.6312880820E-02    0.4845072280E-01    0.5571162307E+00
    0.1700000000E+04    0.5583674125E+00    0.8468772363E-01    0.5873624851E-02    0.4915755437E-01    0.5610683071E+00
    0.1900000000E+04    0.5647895724E+00    0.8509463030E-01    0.5507477142E-02    0.4973040855E-01    0.5642587652E+00
    0.2100000000E+04    0.5700902590E+00    0.8542348150E-01    0.5197124014E-02    0.5020406339E-01    0.5668920358E+00
    0.2300000000E+04    0.5745383811E+00    0.8569405075E-01    0.4930294048E-02    0.5060223840E-01    0.5691049662E+00
    0.2500000000E+04    0.5783234631E+00    0.8591999082E-01    0.4698070705E-02    0.5094166073E-01    0.5709926979E+00
    0.2700000000E+04    0.5815828749E+00    0.8611102824E-01    0.4493828762E-02    0.5123446163E-01    0.5726234799E+00
    0.2900000000E+04    0.5844185867E+00    0.8627427726E-01    0.4312546402E-02    0.5148965148E-01    0.5740475747E+00
    0.3100000000E+04    0.5869078618E+00    0.8641505961E-01    0.4150348960E-02    0.5171406153E-01    0.5753028389E+00
    0.3300000000E+04    0.5891102991E+00    0.8653743395E-01    0.4004199093E-02    0.5191296435E-01    0.5764183420E+00
    0.3500000000E+04    0.5910726003E+00    0.8664454845E-01    0.3871681796E-02    0.5209049394E-01    0.5774167866E+00
    0.3700000000E+04    0.5928318734E+00    0.8673888153E-01    0.3750852225E-02    0.5224993705E-01    0.5783161678E+00
    0.3900000000E+04    0.5944179718E+00    0.8682241025E-01    0.3640126039E-02    0.5239393941E-01    0.5791309387E+00
    0.4100000000E+04    0.5958551821E+00    0.8689673040E-01    0.3538199049E-02    0.5252465469E-01    0.5798728447E+00
    0.4300000000E+04    0.5971634615E+00    0.8696314368E-01    0.3443987457E-02    0.5264385369E-01    0.5805515322E+00
    0.4500000000E+04    0.5983593602E+00    0.8702272206E-01    0.3356582799E-02    0.5275300574E-01    0.5811749998E+00
    0.4700000000E+04    0.5994567174E+00    0.8707635604E-01    0.3275217528E-02    0.5285334027E-01    0.5817499370E+00
    0.4900000000E+04    0.6004671938E+00    0.8712479122E-01    0.3199238429E-02    0.5294589376E-01    0.5822819835E+00
    0.1000000000E+04    0.5190216464E+00    0.8202214746E-01    0.7927563762E-02    0.4566330768E-01    0.5412358369E+00
    0.3000000000E+04    0.5857024545E+00    0.8634719830E-01    0.4229268636E-02    0.5160534360E-01    0.5746943208E+00
    0.5000000000E+04    0.6009430034E+00    0.8714725969E-01    0.3163090622E-02    0.5298953290E-01    0.5825334479E+00
    0.7000000000E+04    0.6076618264E+00    0.8743462575E-01    0.2621429291E-02    0.5361086191E-01    0.5861664846E+00
    0.9000000000E+04    0.6114378128E+00    0.8755947988E-01    0.2281823055E-02    0.5396625804E-01    0.5883056493E+00
    0.1100000000E+05    0.6138546876E+00    0.8761556838E-01    0.2044097331E-02    0.5419770834E-01    0.5897343473E+00
    0.1300000000E+05    0.6155332180E+00    0.8763771041E-01    0.1865990017E-02    0.5436121600E-01    0.5907661793E+00
    0.1500000000E+05    0.6167662977E+00    0.8764145341E-01    0.1726251543E-02    0.5448336712E-01    0.5915522379E+00
    0.1700000000E+05    0.6177100937E+00    0.8763461772E-01    0.1612895979E-02    0.5457842305E-01    0.5921747169E+00
    0.1900000000E+05    0.6184554627E+00    0.8762147781E-01    0.1518588515E-02    0.5465473080E-01    0.5926823591E+00
    0.2100000000E+05    0.6190588488E+00    0.8760451627E-01    0.1438558583E-02    0.5471750679E-01    0.5931060017E+00
    0.2300000000E+05    0.6195571600E+00    0.8758524208E-01    0.1369552974E-02    0.5477018219E-01    0.5934661626E+00
    0.2500000000E+05    0.6199755441E+00    0.8756460465E-01    0.1309267584E-02    0.5481510860E-01    0.5937770562E+00
    0.2700000000E+05    0.6203317248E+00    0.8754321706E-01    0.1256019134E-02    0.5485395312E-01    0.5940488620E+00
    0.2900000000E+05    0.6206385521E+00    0.8752148275E-01    0.1208545683E-02    0.5488793141E-01    0.5942890746E+00
    0.3100000000E+05    0.6209055686E+00    0.8749967061E-01    0.1165880222E-02    0.5491795150E-01    0.5945033428E+00
    0.3300000000E+05    0.6211400090E+00    0.8747796105E-01    0.1127267691E-02    0.5494470576E-01    0.5946960110E+00
    0.3500000000E+05    0.6213474574E+00    0.8745647502E-01    0.1092108836E-02    0.5496873167E-01    0.5948704794E+00
    0.3700000000E+05    0.6215322927E+00    0.8743529301E-01    0.1059921221E-02    0.5499045308E-01    0.5950294504E+00
    0.3900000000E+05    0.6216979963E+00    0.8741446745E-01    0.1030311531E-02    0.5501020891E-01    0.5951751012E+00
    0.4100000000E+05    0.6218473715E+00    0.8739403126E-01    0.1002955488E-02    0.5502827359E-01    0.5953092069E+00
    0.4300000000E+05    0.6219827001E+00    0.8737400358E-01    0.9775830383E-03    0.5504487174E-01    0.5954332309E+00
    0.4500000000E+05    0.6221058584E+00    0.8735439383E-01    0.9539672379E-03    0.5506018913E-01    0.5955483911E+00
    0.4700000000E+05    0.6222184037E+00    0.8733520460E-01    0.9319158044E-03    0.5507438077E-01    0.5956557103E+00
    0.4900000000E+05    0.6223216388E+00    0.8731643361E-01    0.9112646033E-03    0.5508757708E-01    0.5957560543E+00
    0.1000000000E+05    0.6127658735E+00    0.8759326069E-01    0.2153586834E-02    0.5409294897E-01    0.5890835545E+00
    0.3000000000E+05    0.6207765394E+00    0.8751057346E-01    0.1186663353E-02    0.5490338873E-01    0.5943991546E+00
    0.5000000000E+05    0.6223701152E+00    0.8730720329E-01    0.9014192217E-03    0.5509383720E-01    0.5958038455E+00
    0.7000000000E+05    0.6230447980E+00    0.8714233826E-01    0.7522910254E-03    0.5518650050E-01    0.5965264361E+00
    0.9000000000E+05    0.6234146340E+00    0.8700771937E-01    0.6572755098E-03    0.5524399278E-01    0.5969900367E+00
    0.1100000000E+06    0.6236467133E+00    0.8689466118E-01    0.5901093343E-03    0.5528437537E-01    0.5973229261E+00
    0.1300000000E+06    0.6238050822E+00    0.8679740628E-01    0.5394631395E-03    0.5531495079E-01    0.5975788386E+00
    0.1500000000E+06    0.6239195140E+00    0.8671214888E-01    0.4995499807E-03    0.5533928856E-01    0.5977847642E+00
    0.1700000000E+06    0.6240057069E+00    0.8663628336E-01    0.4670679610E-03    0.5535936275E-01    0.5979559580E+00
    0.1900000000E+06    0.6240727106E+00    0.8656795938E-01    0.4399789292E-03    0.5537636466E-01    0.5981017924E+00
    0.2100000000E+06    0.6241261032E+00    0.8650581986E-01    0.4169483823E-03    0.5539106158E-01    0.5982283946E+00
    0.2300000000E+06    0.6241695065E+00    0.8644884163E-01    0.3970614592E-03    0.5540397326E-01    0.5983399683E+00
    0.2500000000E+06    0.6242053722E+00    0.8639623492E-01    0.3796674429E-03    0.5541546624E-01    0.5984395104E+00
    0.2700000000E+06    0.6242354179E+00    0.8634737778E-01    0.3642892897E-03    0.5542580770E-01    0.5985292259E+00
    0.2900000000E+06    0.6242608815E+00    0.8630177185E-01    0.3505683297E-03    0.5543519775E-01    0.5986107798E+00
    0.3100000000E+06    0.6242826773E+00    0.8625901175E-01    0.3382290510E-03    0.5544378983E-01    0.5986854579E+00
    0.3300000000E+06    0.6243014946E+00    0.8621876334E-01    0.3270558850E-03    0.5545170389E-01    0.5987542716E+00
    0.3500000000E+06    0.6243178627E+00    0.8618074803E-01    0.3168774443E-03    0.5545903535E-01    0.5988180302E+00
    0.3700000000E+06    0.6243321944E+00    0.8614473108E-01    0.3075555415E-03    0.5546586126E-01    0.5988773900E+00
    0.3900000000E+06    0.6243448164E+00    0.8611051291E-01    0.2989773673E-03    0.5547224466E-01    0.5989328907E+00
    0.4100000000E+06    0.6243559902E+00    0.8607792241E-01    0.2910498063E-03    0.5547823772E-01    0.5989849803E+00
    0.4300000000E+06    0.6243659278E+00    0.8604681173E-01    0.2836952335E-03    0.5548388408E-01    0.5990340352E+00
    0.4500000000E+06    0.6243748025E+00    0.8601705233E-01    0.2768483575E-03    0.5548922059E-01    0.5990803740E+00
    0.4700000000E+06    0.6243827574E+00    0.8598853170E-01    0.2704538143E-03    0.5549427862E-01    0.5991242687E+00
    0.4900000000E+06    0.6243899117E+00    0.8596115081E-01    0.2644643106E-03    0.5549908510E-01    0.5991659534E+00
    0.1000000000E+06    0.6235426844E+00    0.8694891224E-01    0.6211080727E-03    0.5526573683E-01    0.5971685429E+00
    0.3000000000E+06    0.6242721904E+00    0.8628005841E-01    0.3442406450E-03    0.5543958538E-01    0.5986489096E+00
    0.5000000000E+06    0.6243932205E+00    0.8594786000E-01    0.2616085130E-03    0.5550140140E-01    0.5991860314E+00
    0.7000000000E+06    0.6244348561E+00    0.8572508238E-01    0.2183307165E-03    0.5553881025E-01    0.5995090586E+00
    0.9000000000E+06    0.6244523332E+00    0.8555723643E-01    0.1907424796E-03    0.5556557190E-01    0.5997382562E+00
    0.1100000000E+07    0.6244598580E+00    0.8542252463E-01    0.1712372548E-03    0.5558638565E-01    0.5999151483E+00
    0.1300000000E+07    0.6244625744E+00    0.8531000100E-01    0.1565289695E-03    0.5560340740E-01    0.6000588294E+00
    0.1500000000E+07    0.6244627357E+00    0.8521338286E-01    0.1449379155E-03    0.5561780274E-01    0.6001796130E+00
    0.1700000000E+07    0.6244614571E+00    0.8512872819E-01    0.1355053173E-03    0.5563027224E-01    0.6002836842E+00
    0.1900000000E+07    0.6244593393E+00    0.8505340024E-01    0.1276392251E-03    0.5564126956E-01    0.6003750363E+00
    0.2100000000E+07    0.6244567267E+00    0.8498554808E-01    0.1209520054E-03    0.5565110515E-01    0.6004563933E+00
    0.2300000000E+07    0.6244538256E+00    0.8492382236E-01    0.1151779004E-03    0.5566000072E-01    0.6005296946E+00
    0.2500000000E+07    0.6244507640E+00    0.8486720897E-01    0.1101278777E-03    0.5566812012E-01    0.6005963687E+00
    0.2700000000E+07    0.6244476234E+00    0.8481492646E-01    0.1056633556E-03    0.5567558782E-01    0.6006574975E+00
    0.2900000000E+07    0.6244444564E+00    0.8476635985E-01    0.1016801408E-03    0.5568250061E-01    0.6007139196E+00
    0.3100000000E+07    0.6244412974E+00    0.8472101652E-01    0.9809819856E-04    0.5568893520E-01    0.6007662981E+00
    0.3300000000E+07    0.6244381691E+00    0.8467849572E-01    0.9485490890E-04    0.5569495345E-01    0.6008151659E+00
    0.3500000000E+07    0.6244350861E+00    0.8463846705E-01    0.9190048711E-04    0.5570060595E-01    0.6008609577E+00
    0.3700000000E+07    0.6244320578E+00    0.8460065495E-01    0.8919479370E-04    0.5570593459E-01    0.6009040329E+00
    0.3900000000E+07    0.6244290898E+00    0.8456482714E-01    0.8670506176E-04    0.5571097446E-01    0.6009446914E+00
    0.4100000000E+07    0.6244261854E+00    0.8453078605E-01    0.8440424557E-04    0.5571575526E-01    0.6009831866E+00
    0.4300000000E+07    0.6244233462E+00    0.8449836219E-01    0.8226979947E-04    0.5572030232E-01    0.6010197342E+00
    0.4500000000E+07    0.6244205725E+00    0.8446740912E-01    0.8028276053E-04    0.5572463742E-01    0.6010545193E+00
    0.4700000000E+07    0.6244178638E+00    0.8443779941E-01    0.7842704962E-04    0.5572877945E-01    0.6010877020E+00
    0.4900000000E+07    0.6244152190E+00    0.8440942149E-01    0.7668893202E-04    0.5573274487E-01    0.6011194217E+00
    0.1000000000E+07    0.6244569150E+00    0.8548657469E-01    0.1802395478E-03    0.5557655435E-01    0.5998317532E+00
    0.3000000000E+07    0.6244428743E+00    0.8474331219E-01    0.9984327058E-04    0.5568577351E-01    0.6007405784E+00
    0.5000000000E+07    0.6244139202E+00    0.8439566330E-01    0.7586021411E-04    0.5573466594E-01    0.6011347716E+00
    0.7000000000E+07    0.6243908761E+00    0.8416648373E-01    0.6330293548E-04    0.5576654799E-01    0.6013879652E+00
    0.9000000000E+07    0.6243722277E+00    0.8399530847E-01    0.5529951877E-04    0.5579024847E-01    0.6015743809E+00
    0.1100000000E+08    0.6243566524E+00    0.8385866285E-01    0.4964172359E-04    0.5580912122E-01    0.6017218005E+00
    0.1300000000E+08    0.6243433053E+00    0.8374494754E-01    0.4537576171E-04    0.5582480464E-01    0.6018436567E+00
    0.1500000000E+08    0.6243316375E+00    0.8364757383E-01    0.4201416622E-04    0.5583822285E-01    0.6019474667E+00
    0.1700000000E+08    0.6243212773E+00    0.8356243810E-01    0.3927872369E-04    0.5584994865E-01    0.6020378607E+00
    0.1900000000E+08    0.6243119630E+00    0.8348681073E-01    0.3699768081E-04    0.5586036175E-01    0.6021178921E+00
    0.2100000000E+08    0.6243035035E+00    0.8341878391E-01    0.3505857507E-04    0.5586972685E-01    0.6021896801E+00
    0.2300000000E+08    0.6242957556E+00    0.8335697174E-01    0.3338430849E-04    0.5587823587E-01    0.6022547552E+00
    0.2500000000E+08    0.6242886091E+00    0.8330033568E-01    0.3192004472E-04    0.5588603239E-01    0.6023142587E+00
    0.2700000000E+08    0.6242819773E+00    0.8324807739E-01    0.3062558469E-04    0.5589322664E-01    0.6023690643E+00
