  Pressure (Pa) 22mC5-400 (mol/kg) 3mC6-400 (mol/kg) 33mC5-400 (mol/kg) 23mC5-400 (mol/kg) C7-400 (mol/kg)
    0.1000000000E+01    0.3177624014E-02    0.1060964472E-02    0.1948548379E-03    0.7439421865E-03    0.1721581315E-02
    0.3000000000E+01    0.9420668348E-02    0.3155682132E-02    0.5759715724E-03    0.2205580903E-02    0.5120785914E-02
    0.5000000000E+01    0.1551853645E-01    0.5214892711E-02    0.9459851129E-03    0.3633261035E-02    0.8462629491E-02
    0.7000000000E+01    0.2147632409E-01    0.7239498169E-02    0.1305303156E-02    0.5028174211E-02    0.1174856716E-01
    0.9000000000E+01    0.2729889022E-01    0.9230370115E-02    0.1654314751E-02    0.6391456683E-02    0.1498000512E-01
    0.1100000000E+02    0.3299087053E-01    0.1118835107E-01    0.1993391336E-02    0.7724192502E-02    0.1815830264E-01
    0.1300000000E+02    0.3855669011E-01    0.1311425569E-01    0.2322887693E-02    0.9027416483E-02    0.2128477408E-01
    0.1500000000E+02    0.4400057528E-01    0.1500887189E-01    0.2643142855E-02    0.1030211696E-01    0.2436069065E-01
    0.1700000000E+02    0.4932656460E-01    0.1687296191E-01    0.2954480945E-02    0.1154923836E-01    0.2738728223E-01
    0.1900000000E+02    0.5453851919E-01    0.1870726343E-01    0.3257211971E-02    0.1276968364E-01    0.3036573900E-01
    0.2100000000E+02    0.5964013233E-01    0.2051249046E-01    0.3551632561E-02    0.1396431650E-01    0.3329721307E-01
    0.2300000000E+02    0.6463493853E-01    0.2228933435E-01    0.3838026665E-02    0.1513396351E-01    0.3618281993E-01
    0.2500000000E+02    0.6952632192E-01    0.2403846465E-01    0.4116666203E-02    0.1627941608E-01    0.3902363996E-01
    0.2700000000E+02    0.7431752419E-01    0.2576052995E-01    0.4387811681E-02    0.1740143234E-01    0.4182071976E-01
    0.2900000000E+02    0.7901165198E-01    0.2745615875E-01    0.4651712765E-02    0.1850073880E-01    0.4457507347E-01
    0.3100000000E+02    0.8361168389E-01    0.2912596016E-01    0.4908608826E-02    0.1957803206E-01    0.4728768403E-01
    0.3300000000E+02    0.8812047695E-01    0.3077052472E-01    0.5158729450E-02    0.2063398028E-01    0.4995950437E-01
    0.3500000000E+02    0.9254077280E-01    0.3239042501E-01    0.5402294916E-02    0.2166922465E-01    0.5259145854E-01
    0.3700000000E+02    0.9687520344E-01    0.3398621643E-01    0.5639516655E-02    0.2268438072E-01    0.5518444279E-01
    0.3900000000E+02    0.1011262967E+00    0.3555843775E-01    0.5870597669E-02    0.2368003967E-01    0.5773932662E-01
    0.4100000000E+02    0.1052964813E+00    0.3710761179E-01    0.6095732943E-02    0.2465676952E-01    0.6025695379E-01
    0.4300000000E+02    0.1093880917E+00    0.3863424598E-01    0.6315109817E-02    0.2561511622E-01    0.6273814322E-01
    0.4500000000E+02    0.1134033725E+00    0.4013883292E-01    0.6528908352E-02    0.2655560478E-01    0.6518368995E-01
    0.4700000000E+02    0.1173444831E+00    0.4162185094E-01    0.6737301667E-02    0.2747874019E-01    0.6759436595E-01
    0.4900000000E+02    0.1212135013E+00    0.4308376456E-01    0.6940456256E-02    0.2838500840E-01    0.6997092102E-01
    0.1000000000E+02    0.3016092224E-01    0.1021342041E-01    0.1825072367E-02    0.7061577128E-02    0.1657571326E-01
    0.3000000000E+02    0.8132324858E-01    0.2829425054E-01    0.4781021851E-02    0.1904209467E-01    0.4593653640E-01
    0.5000000000E+02    0.1231216037E+00    0.4380694876E-01    0.7040119324E-02    0.2883196419E-01    0.7114663163E-01
    0.7000000000E+02    0.1579477917E+00    0.5726598624E-01    0.8794242383E-02    0.3699056524E-01    0.9303628715E-01
    0.9000000000E+02    0.1874378653E+00    0.6905676292E-01    0.1017381348E-01    0.4390055329E-01    0.1122276272E+00
    0.1100000000E+03    0.2127492522E+00    0.7947371745E-01    0.1127006072E-01    0.4983265677E-01    0.1291960541E+00
    0.1300000000E+03    0.2347243228E+00    0.8874568534E-01    0.1214836093E-01    0.5498392385E-01    0.1443111346E+00
    0.1500000000E+03    0.2539911586E+00    0.9705322030E-01    0.1285654953E-01    0.5950128581E-01    0.1578645315E+00
    0.1700000000E+03    0.2710279355E+00    0.1045407015E+00    0.1343026576E-01    0.6349661305E-01    0.1700895291E+00
    0.1900000000E+03    0.2862053725E+00    0.1113249704E+00    0.1389648756E-01    0.6705664197E-01    0.1811749630E+00
    0.2100000000E+03    0.2998154962E+00    0.1175016048E+00    0.1427592634E-01    0.7024970208E-01    0.1912753419E+00
    0.2300000000E+03    0.3120916070E+00    0.1231495518E+00    0.1458468405E-01    0.7313038559E-01    0.2005183213E+00
    0.2500000000E+03    0.3232224382E+00    0.1283345992E+00    0.1483542153E-01    0.7574285901E-01    0.2090103050E+00
    0.2700000000E+03    0.3333623902E+00    0.1331120116E+00    0.1503819628E-01    0.7812325682E-01    0.2168406995E+00
    0.2900000000E+03    0.3426390547E+00    0.1375285574E+00    0.1520107241E-01    0.8030144158E-01    0.2240851849E+00
    0.3100000000E+03    0.3511588349E+00    0.1416240835E+00    0.1533057071E-01    0.8230231832E-01    0.2308082574E+00
    0.3300000000E+03    0.3590111998E+00    0.1454327526E+00    0.1543200510E-01    0.8414682991E-01    0.2370652269E+00
    0.3500000000E+03    0.3662719489E+00    0.1489840239E+00    0.1550973694E-01    0.8585272062E-01    0.2429037999E+00
    0.3700000000E+03    0.3730057445E+00    0.1523034370E+00    0.1556736928E-01    0.8743512866E-01    0.2483653465E+00
    0.3900000000E+03    0.3792680986E+00    0.1554132447E+00    0.1560789681E-01    0.8890705089E-01    0.2534859212E+00
    0.4100000000E+03    0.3851069465E+00    0.1583329260E+00    0.1563382247E-01    0.9027971106E-01    0.2582970928E+00
    0.4300000000E+03    0.3905639046E+00    0.1610796065E+00    0.1564724910E-01    0.9156285408E-01    0.2628266227E+00
    0.4500000000E+03    0.3956752848E+00    0.1636684039E+00    0.1564995182E-01    0.9276498327E-01    0.2670990242E+00
    0.4700000000E+03    0.4004729177E+00    0.1661127151E+00    0.1564343586E-01    0.9389355312E-01    0.2711360252E+00
    0.4900000000E+03    0.4049848270E+00    0.1684244548E+00    0.1562898282E-01    0.9495512702E-01    0.2749569547E+00
    0.1000000000E+03    0.2005572682E+00    0.7442136203E-01    0.1075277625E-01    0.4697512695E-01    0.1209645034E+00
    0.3000000000E+03    0.3469876090E+00    0.1396141921E+00    0.1526963670E-01    0.8132265157E-01    0.2275082459E+00
    0.5000000000E+03    0.4071414905E+00    0.1695339781E+00    0.1561912862E-01    0.9546263034E-01    0.2767918575E+00
    0.7000000000E+03    0.4399964936E+00    0.1868243651E+00    0.1520100745E-01    0.1032016174E+00    0.3054905096E+00
    0.9000000000E+03    0.4606852643E+00    0.1981320762E+00    0.1461908079E-01    0.1080848571E+00    0.3243995065E+00
    0.1100000000E+04    0.4748976150E+00    0.2061241094E+00    0.1402674141E-01    0.1114463173E+00    0.3378620268E+00
    0.1300000000E+04    0.4852558464E+00    0.2120822970E+00    0.1346779181E-01    0.1139012289E+00    0.3479709777E+00
    0.1500000000E+04    0.4931363527E+00    0.2167007436E+00    0.1295322862E-01    0.1157727405E+00    0.3558625760E+00
    0.1700000000E+04    0.4993306946E+00    0.2203887087E+00    0.1248324372E-01    0.1172468231E+00    0.3622084661E+00
    0.1900000000E+04    0.5043261873E+00    0.2234034599E+00    0.1205450292E-01    0.1184380467E+00    0.3674319199E+00
    0.2100000000E+04    0.5084391426E+00    0.2259150119E+00    0.1166275555E-01    0.1194208286E+00    0.3718133545E+00
    0.2300000000E+04    0.5118837601E+00    0.2280403222E+00    0.1130379194E-01    0.1202455974E+00    0.3755461543E+00
    0.2500000000E+04    0.5148102162E+00    0.2298625472E+00    0.1097377405E-01    0.1209477333E+00    0.3787681531E+00
    0.2700000000E+04    0.5173268979E+00    0.2314424648E+00    0.1066932046E-01    0.1215527884E+00    0.3815803374E+00
    0.2900000000E+04    0.5195139790E+00    0.2328255491E+00    0.1038749589E-01    0.1220796769E+00    0.3840584493E+00
    0.3100000000E+04    0.5214320301E+00    0.2340465162E+00    0.1012576704E-01    0.1225426979E+00    0.3862604511E+00
    0.3300000000E+04    0.5231276591E+00    0.2351323373E+00    0.9881949993E-02    0.1229528618E+00    0.3882314822E+00
    0.3500000000E+04    0.5246373113E+00    0.2361042907E+00    0.9654159535E-02    0.1233187844E+00    0.3900072386E+00
    0.3700000000E+04    0.5259898939E+00    0.2369793926E+00    0.9440763890E-02    0.1236473037E+00    0.3916163345E+00
    0.3900000000E+04    0.5272086266E+00    0.2377714169E+00    0.9240345848E-02    0.1239439166E+00    0.3930819859E+00
    0.4100000000E+04    0.5283123740E+00    0.2384916343E+00    0.9051669915E-02    0.1242130916E+00    0.3944232344E+00
    0.4300000000E+04    0.5293166199E+00    0.2391493580E+00    0.8873654799E-02    0.1244584992E+00    0.3956558508E+00
    0.4500000000E+04    0.5302341914E+00    0.2397523519E+00    0.8705350451E-02    0.1246831821E+00    0.3967930131E+00
    0.4700000000E+04    0.5310758048E+00    0.2403071412E+00    0.8545918913E-02    0.1248896839E+00    0.3978458222E+00
    0.4900000000E+04    0.5318504823E+00    0.2408192502E+00    0.8394618319E-02    0.1250801479E+00    0.3988236979E+00
    0.1000000000E+04    0.4683955728E+00    0.2024431042E+00    0.1432025544E-01    0.1099076246E+00    0.3316493209E+00
    0.3000000000E+04    0.5205034446E+00    0.2334544578E+00    0.1025426356E-01    0.1223184177E+00    0.3851908879E+00
    0.5000000000E+04    0.5322151569E+00    0.2410607988E+00    0.8321808225E-02    0.1251699449E+00    0.3992870973E+00
    0.7000000000E+04    0.5373568434E+00    0.2444970056E+00    0.7165685270E-02    0.1264481244E+00    0.4060729442E+00
    0.9000000000E+04    0.5402383237E+00    0.2464415551E+00    0.6377705965E-02    0.1271791408E+00    0.4101529255E+00
    0.1100000000E+05    0.5420779352E+00    0.2476829377E+00    0.5797274441E-02    0.1276552683E+00    0.4129156632E+00
    0.1300000000E+05    0.5433523378E+00    0.2485375167E+00    0.5347174252E-02    0.1279916814E+00    0.4149309995E+00
    0.1500000000E+05    0.5442861674E+00    0.2491569949E+00    0.4985151192E-02    0.1282430422E+00    0.4164781471E+00
    0.1700000000E+05    0.5449990867E+00    0.2496232001E+00    0.4685905138E-02    0.1284386722E+00    0.4177109004E+00
    0.1900000000E+05    0.5455606578E+00    0.2499841393E+00    0.4433248655E-02    0.1285957345E+00    0.4187213541E+00
    0.2100000000E+05    0.5460140620E+00    0.2502698152E+00    0.4216283334E-02    0.1287249560E+00    0.4195682331E+00
    0.2300000000E+05    0.5463875136E+00    0.2504999279E+00    0.4027369093E-02    0.1288333935E+00    0.4202908676E+00
    0.2500000000E+05    0.5467002222E+00    0.2506879361E+00    0.3860971137E-02    0.1289258843E+00    0.4209166576E+00
    0.2700000000E+05    0.5469657159E+00    0.2508433392E+00    0.3712969082E-02    0.1290058578E+00    0.4214653202E+00
    0.2900000000E+05    0.5471937954E+00    0.2509730275E+00    0.3580224227E-02    0.1290758152E+00    0.4219514332E+00
    0.3100000000E+05    0.5473917329E+00    0.2510821158E+00    0.3460298262E-02    0.1291376249E+00    0.4223860257E+00
    0.3300000000E+05    0.5475650378E+00    0.2511744772E+00    0.3351264555E-02    0.1291927115E+00    0.4227776084E+00
    0.3500000000E+05    0.5477179588E+00    0.2512530959E+00    0.3251578032E-02    0.1292421813E+00    0.4231328626E+00
    0.3700000000E+05    0.5478538249E+00    0.2513203062E+00    0.3159983325E-02    0.1292869066E+00    0.4234571130E+00
    0.3900000000E+05    0.5479752810E+00    0.2513779588E+00    0.3075448550E-02    0.1293275851E+00    0.4237546601E+00
    0.4100000000E+05    0.5480844546E+00    0.2514275385E+00    0.2997116691E-02    0.1293647815E+00    0.4240290187E+00
    0.4300000000E+05    0.5481830762E+00    0.2514702495E+00    0.2924269296E-02    0.1293989583E+00    0.4242830923E+00
    0.4500000000E+05    0.5482725676E+00    0.2515070777E+00    0.2856298977E-02    0.1294304980E+00    0.4245193020E+00
    0.4700000000E+05    0.5483541078E+00    0.2515388376E+00    0.2792688300E-02    0.1294597196E+00    0.4247396851E+00
    0.4900000000E+05    0.5484286823E+00    0.2515662073E+00    0.2732993366E-02    0.1294868917E+00    0.4249459688E+00
    0.1000000000E+05    0.5412497529E+00    0.2471246490E+00    0.6067524471E-02    0.1274397536E+00    0.4116532967E+00
    0.3000000000E+05    0.5472961531E+00    0.2510298803E+00    0.3518789539E-02    0.1291076408E+00    0.4221745879E+00
    0.5000000000E+05    0.5484636221E+00    0.2515784272E+00    0.2704492462E-02    0.1294997817E+00    0.4250442930E+00
    0.7000000000E+05    0.5489430659E+00    0.2516916417E+00    0.2269630854E-02    0.1296905752E+00    0.4265369749E+00
    0.9000000000E+05    0.5491975977E+00    0.2516820865E+00    0.1989647491E-02    0.1298089426E+00    0.4275006224E+00
    0.1100000000E+06    0.5493520001E+00    0.2516281039E+00    0.1790459152E-02    0.1298920784E+00    0.4281953999E+00
    0.1300000000E+06    0.5494536357E+00    0.2515567143E+00    0.1639604199E-02    0.1299550212E+00    0.4287310771E+00
    0.1500000000E+06    0.5495243054E+00    0.2514789515E+00    0.1520335767E-02    0.1300051217E+00    0.4291630704E+00
    0.1700000000E+06    0.5495753893E+00    0.2513997773E+00    0.1423031583E-02    0.1300464449E+00    0.4295228228E+00
    0.1900000000E+06    0.5496133817E+00    0.2513215356E+00    0.1341721114E-02    0.1300814436E+00    0.4298297109E+00
    0.2100000000E+06    0.5496422442E+00    0.2512453402E+00    0.1272479174E-02    0.1301116977E+00    0.4300964338E+00
    0.2300000000E+06    0.5496645225E+00    0.2511716925E+00    0.1212606050E-02    0.1301382772E+00    0.4303317221E+00
    0.2500000000E+06    0.5496819212E+00    0.2511007777E+00    0.1160176313E-02    0.1301619367E+00    0.4305418111E+00
    0.2700000000E+06    0.5496956218E+00    0.2510326146E+00    0.1113775205E-02    0.1301832262E+00    0.4307312952E+00
    0.2900000000E+06    0.5497064662E+00    0.2509671350E+00    0.1072336954E-02    0.1302025575E+00    0.4309036489E+00
    0.3100000000E+06    0.5497150695E+00    0.2509042270E+00    0.1035041502E-02    0.1302202465E+00    0.4310615579E+00
    0.3300000000E+06    0.5497218899E+00    0.2508437586E+00    0.1001246260E-02    0.1302365402E+00    0.4312071377E+00
    0.3500000000E+06    0.5497272751E+00    0.2507855915E+00    0.9704396669E-03    0.1302516348E+00    0.4313420820E+00
    0.3700000000E+06    0.5497314933E+00    0.2507295885E+00    0.9422087725E-03    0.1302656890E+00    0.4314677660E+00
    0.3900000000E+06    0.5497347539E+00    0.2506756172E+00    0.9162161080E-03    0.1302788325E+00    0.4315853207E+00
    0.4100000000E+06    0.5497372225E+00    0.2506235523E+00    0.8921828518E-03    0.1302911727E+00    0.4316956866E+00
    0.4300000000E+06    0.5497390317E+00    0.2505732765E+00    0.8698763637E-03    0.1303027994E+00    0.4317996536E+00
    0.4500000000E+06    0.5497402883E+00    0.2505246806E+00    0.8491008092E-03    0.1303137883E+00    0.4318978910E+00
    0.4700000000E+06    0.5497410795E+00    0.2504776634E+00    0.8296900079E-03    0.1303242042E+00    0.4319909707E+00
    0.4900000000E+06    0.5497414769E+00    0.2504321315E+00    0.8115019081E-03    0.1303341024E+00    0.4320793846E+00
    0.1000000000E+06    0.5492834533E+00    0.2516583837E+00    0.1882515473E-02    0.1298537078E+00    0.4278728955E+00
    0.3000000000E+06    0.5497110163E+00    0.2509353675E+00    0.1053215072E-02    0.1302115905E+00    0.4309842654E+00
    0.5000000000E+06    0.5497415469E+00    0.2504098951E+00    0.8028274955E-03    0.1303388725E+00    0.4321219775E+00
    0.7000000000E+06    0.5497323571E+00    0.2500254206E+00    0.6711878634E-03    0.1304159228E+00    0.4328078313E+00
    0.9000000000E+06    0.5497150362E+00    0.2497233058E+00    0.5870883097E-03    0.1304710578E+00    0.4332950786E+00
    0.1100000000E+07    0.5496962778E+00    0.2494745535E+00    0.5275398821E-03    0.1305139481E+00    0.4336714390E+00
    0.1300000000E+07    0.5496779476E+00    0.2492631081E+00    0.4825857489E-03    0.1305490307E+00    0.4339773209E+00
    0.1500000000E+07    0.5496605914E+00    0.2490792008E+00    0.4471273680E-03    0.1305787049E+00    0.4342345764E+00
    0.1700000000E+07    0.5496443278E+00    0.2489164553E+00    0.4182506173E-03    0.1306044127E+00    0.4344563208E+00
    0.1900000000E+07    0.5496291275E+00    0.2487704819E+00    0.3941544062E-03    0.1306270881E+00    0.4346510274E+00
    0.2100000000E+07    0.5496149120E+00    0.2486381302E+00    0.3736582743E-03    0.1306473703E+00    0.4348244796E+00
    0.2300000000E+07    0.5496015906E+00    0.2485170626E+00    0.3559523113E-03    0.1306657158E+00    0.4349807960E+00
    0.2500000000E+07    0.5495890751E+00    0.2484054969E+00    0.3404600623E-03    0.1306824620E+00    0.4351230117E+00
    0.2700000000E+07    0.5495772847E+00    0.2483020429E+00    0.3267586850E-03    0.1306978654E+00    0.4352534259E+00
    0.2900000000E+07    0.5495661471E+00    0.2482055954E+00    0.3145301045E-03    0.1307121252E+00    0.4353738213E+00
    0.3100000000E+07    0.5495555989E+00    0.2481152611E+00    0.3035298858E-03    0.1307253994E+00    0.4354856078E+00
    0.3300000000E+07    0.5495455841E+00    0.2480303076E+00    0.2935667024E-03    0.1307378155E+00    0.4355899186E+00
    0.3500000000E+07    0.5495360539E+00    0.2479501270E+00    0.2844883876E-03    0.1307494778E+00    0.4356876786E+00
    0.3700000000E+07    0.5495269654E+00    0.2478742091E+00    0.2761722132E-03    0.1307604724E+00    0.4357796521E+00
    0.3900000000E+07    0.5495182808E+00    0.2478021217E+00    0.2685179610E-03    0.1307708718E+00    0.4358664774E+00
    0.4100000000E+07    0.5495099667E+00    0.2477334950E+00    0.2614428870E-03    0.1307807370E+00    0.4359486937E+00
    0.4300000000E+07    0.5495019935E+00    0.2476680107E+00    0.2548779954E-03    0.1307901204E+00    0.4360267600E+00
    0.4500000000E+07    0.5494943351E+00    0.2476053923E+00    0.2487652396E-03    0.1307990667E+00    0.4361010704E+00
    0.4700000000E+07    0.5494869679E+00    0.2475453985E+00    0.2430553887E-03    0.1308076150E+00    0.4361719656E+00
    0.4900000000E+07    0.5494798710E+00    0.2474878173E+00    0.2377063800E-03    0.1308157991E+00    0.4362397424E+00
    0.1000000000E+07    0.5497056703E+00    0.2495934607E+00    0.5550327511E-03    0.1304936879E+00    0.4334939736E+00
    0.3000000000E+07    0.5495608030E+00    0.2481597132E+00    0.3088894639E-03    0.1307188769E+00    0.4354307143E+00
    0.5000000000E+07    0.5494764180E+00    0.2474598720E+00    0.2351556846E-03    0.1308197640E+00    0.4362725438E+00
    0.7000000000E+07    0.5494178514E+00    0.2469918034E+00    0.1964776395E-03    0.1308855768E+00    0.4368138465E+00
    0.9000000000E+07    0.5493730364E+00    0.2466393706E+00    0.1717960408E-03    0.1309345133E+00    0.4372126967E+00
    0.1100000000E+08    0.5493367448E+00    0.2463565185E+00    0.1543322214E-03    0.1309734891E+00    0.4375283083E+00
    0.1300000000E+08    0.5493062518E+00    0.2461202085E+00    0.1411550207E-03    0.1310058834E+00    0.4377893273E+00
    0.1500000000E+08    0.5492799590E+00    0.2459172439E+00    0.1307650870E-03    0.1310336025E+00    0.4380117910E+00
    0.1700000000E+08    0.5492568487E+00    0.2457393542E+00    0.1223061019E-03    0.1310578282E+00    0.4382055816E+00
    0.1900000000E+08    0.5492362334E+00    0.2455810115E+00    0.1152491171E-03    0.1310793439E+00    0.4383772176E+00
    0.2100000000E+08    0.5492176264E+00    0.2454383370E+00    0.1092476099E-03    0.1310986960E+00    0.4385312247E+00
    0.2300000000E+08    0.5492006710E+00    0.2453085037E+00    0.1040639200E-03    0.1311162804E+00    0.4386708721E+00
    0.2500000000E+08    0.5491850978E+00    0.2451893873E+00    0.9952894451E-04    0.1311323936E+00    0.4387985982E+00
    0.2700000000E+08    0.5491706982E+00    0.2450793510E+00    0.9551867494E-04    0.1311472630E+00    0.4389162700E+00
