  Pressure (Pa) 22mC5-400 (mol/kg) 3mC6-400 (mol/kg) 33mC5-400 (mol/kg) 23mC5-400 (mol/kg) C7-400 (mol/kg)
    0.1000000000E+01    0.3180222521E-02    0.2097520724E-02    0.1931413821E-03    0.1861374982E-03    0.8509372494E-02
    0.3000000000E+01    0.9443539589E-02    0.6100221507E-02    0.5612143696E-03    0.5527326638E-03    0.2475151091E-01
    0.5000000000E+01    0.1558068354E-01    0.9865486120E-02    0.9067143949E-03    0.9119494479E-03    0.4003484078E-01
    0.7000000000E+01    0.2159550819E-01    0.1341383499E-01    0.1231488106E-02    0.1264013152E-02    0.5444209278E-01
    0.9000000000E+01    0.2749171117E-01    0.1676348997E-01    0.1537180821E-02    0.1609139946E-02    0.6804673803E-01
    0.1100000000E+02    0.3327284174E-01    0.1993068739E-01    0.1825263794E-02    0.1947537330E-02    0.8091424861E-01
    0.1300000000E+02    0.3894230813E-01    0.2292994130E-01    0.2097057145E-02    0.2279404557E-02    0.9310315759E-01
    0.1500000000E+02    0.4450338449E-01    0.2577426593E-01    0.2353749208E-02    0.2604933044E-02    0.1046659548E+00
    0.1700000000E+02    0.4995921737E-01    0.2847536456E-01    0.2596412972E-02    0.2924306751E-02    0.1156498475E+00
    0.1900000000E+02    0.5531283195E-01    0.3104379048E-01    0.2826020078E-02    0.3237702540E-02    0.1260974086E+00
    0.2100000000E+02    0.6056713773E-01    0.3348908490E-01    0.3043452814E-02    0.3545290514E-02    0.1360471319E+00
    0.2300000000E+02    0.6572493409E-01    0.3581989541E-01    0.3249514423E-02    0.3847234336E-02    0.1455339099E+00
    0.2500000000E+02    0.7078891539E-01    0.3804407820E-01    0.3444937992E-02    0.4143691532E-02    0.1545894447E+00
    0.2700000000E+02    0.7576167588E-01    0.4016878660E-01    0.3630394156E-02    0.4434813775E-02    0.1632426052E+00
    0.2900000000E+02    0.8064571428E-01    0.4220054792E-01    0.3806497794E-02    0.4720747155E-02    0.1715197367E+00
    0.3100000000E+02    0.8544343816E-01    0.4414533051E-01    0.3973813866E-02    0.5001632432E-02    0.1794449307E+00
    0.3300000000E+02    0.9015716805E-01    0.4600860231E-01    0.4132862519E-02    0.5277605278E-02    0.1870402611E+00
    0.3500000000E+02    0.9478914134E-01    0.4779538225E-01    0.4284123569E-02    0.5548796506E-02    0.1943259913E+00
    0.3700000000E+02    0.9934151594E-01    0.4951028538E-01    0.4428040448E-02    0.5815332284E-02    0.2013207559E+00
    0.3900000000E+02    0.1038163739E+00    0.5115756272E-01    0.4565023683E-02    0.6077334339E-02    0.2080417213E+00
    0.4100000000E+02    0.1082157244E+00    0.5274113646E-01    0.4695453982E-02    0.6334920152E-02    0.2145047280E+00
    0.4300000000E+02    0.1125415074E+00    0.5426463116E-01    0.4819684961E-02    0.6588203142E-02    0.2207244155E+00
    0.4500000000E+02    0.1167955963E+00    0.5573140143E-01    0.4938045587E-02    0.6837292838E-02    0.2267143347E+00
    0.4700000000E+02    0.1209798006E+00    0.5714455665E-01    0.5050842338E-02    0.7082295050E-02    0.2324870470E+00
    0.4900000000E+02    0.1250958689E+00    0.5850698293E-01    0.5158361151E-02    0.7323312016E-02    0.2380542132E+00
    0.1000000000E+02    0.3039644427E-01    0.1836895117E-01    0.1683337718E-02    0.1779167173E-02    0.7456882543E-01
    0.3000000000E+02    0.8305521851E-01    0.4318345872E-01    0.3891220772E-02    0.4861812210E-02    0.1755249016E+00
    0.5000000000E+02    0.1271288826E+00    0.5917001848E-01    0.5210225498E-02    0.7442357046E-02    0.2407641339E+00
    0.7000000000E+02    0.1645948077E+00    0.7032771132E-01    0.6026814805E-02    0.9636413920E-02    0.2864356730E+00
    0.9000000000E+02    0.1968621125E+00    0.7855671475E-01    0.6534327238E-02    0.1152637549E-01    0.3202209848E+00
    0.1100000000E+03    0.2249624127E+00    0.8487566682E-01    0.6841340754E-02    0.1317256491E-01    0.3462422482E+00
    0.1300000000E+03    0.2496686307E+00    0.8987979764E-01    0.7013707765E-02    0.1462018096E-01    0.3669107370E+00
    0.1500000000E+03    0.2715716003E+00    0.9394024225E-01    0.7093570603E-02    0.1590377627E-01    0.3837314854E+00
    0.1700000000E+03    0.2911309605E+00    0.9730044535E-01    0.7108968441E-02    0.1705023257E-01    0.3976927410E+00
    0.1900000000E+03    0.3087098623E+00    0.1001267368E+00    0.7079106561E-02    0.1808078977E-01    0.4094704082E+00
    0.2100000000E+03    0.3245991904E+00    0.1025366308E+00    0.7017433562E-02    0.1901246203E-01    0.4195425145E+00
    0.2300000000E+03    0.3390348175E+00    0.1046155131E+00    0.6933528503E-02    0.1985904660E-01    0.4282567526E+00
    0.2500000000E+03    0.3522101233E+00    0.1064269208E+00    0.6834304134E-02    0.2063185579E-01    0.4358721112E+00
    0.2700000000E+03    0.3642852306E+00    0.1080191114E+00    0.6724798609E-02    0.2134025695E-01    0.4425854977E+00
    0.2900000000E+03    0.3753939210E+00    0.1094293960E+00    0.6608710093E-02    0.2199207694E-01    0.4485493100E+00
    0.3100000000E+03    0.3856488853E+00    0.1106870771E+00    0.6488765653E-02    0.2259390905E-01    0.4538833556E+00
    0.3300000000E+03    0.3951457591E+00    0.1118154878E+00    0.6366980472E-02    0.2315134904E-01    0.4586831327E+00
    0.3500000000E+03    0.4039662601E+00    0.1128334386E+00    0.6244842868E-02    0.2366917863E-01    0.4630257061E+00
    0.3700000000E+03    0.4121806540E+00    0.1137562622E+00    0.6123448129E-02    0.2415150962E-01    0.4669739568E+00
    0.3900000000E+03    0.4198497098E+00    0.1145965822E+00    0.6003596462E-02    0.2460189831E-01    0.4705797059E+00
    0.4100000000E+03    0.4270262658E+00    0.1153648854E+00    0.5885865397E-02    0.2502343707E-01    0.4738860479E+00
    0.4300000000E+03    0.4337564927E+00    0.1160699562E+00    0.5770663787E-02    0.2541882820E-01    0.4769291158E+00
    0.4500000000E+03    0.4400809221E+00    0.1167192081E+00    0.5658272395E-02    0.2579044409E-01    0.4797394348E+00
    0.4700000000E+03    0.4460352884E+00    0.1173189412E+00    0.5548874601E-02    0.2614037645E-01    0.4823429712E+00
    0.4900000000E+03    0.4516512232E+00    0.1178745433E+00    0.5442579773E-02    0.2647047698E-01    0.4847619546E+00
    0.1000000000E+03    0.2113798212E+00    0.8191087646E-01    0.6708067064E-02    0.1237682392E-01    0.3340236490E+00
    0.3000000000E+03    0.3806217825E+00    0.1100757331E+00    0.6549079694E-02    0.2229887073E-01    0.4512885936E+00
    0.5000000000E+03    0.4543411859E+00    0.1181372696E+00    0.5390614396E-02    0.2662861174E-01    0.4859083265E+00
    0.7000000000E+03    0.4957789012E+00    0.1219194361E+00    0.4510118227E-02    0.2906665823E-01    0.5026408714E+00
    0.9000000000E+03    0.5223300576E+00    0.1240955073E+00    0.3876301916E-02    0.3063156599E-01    0.5125565897E+00
    0.1100000000E+04    0.5407836079E+00    0.1254983099E+00    0.3409339102E-02    0.3172110284E-01    0.5191410669E+00
    0.1300000000E+04    0.5543456802E+00    0.1264709737E+00    0.3054220123E-02    0.3252323135E-01    0.5238450462E+00
    0.1500000000E+04    0.5647285568E+00    0.1271804743E+00    0.2776111320E-02    0.3313839584E-01    0.5273815502E+00
    0.1700000000E+04    0.5729298143E+00    0.1277176856E+00    0.2552733118E-02    0.3362514998E-01    0.5301424632E+00
    0.1900000000E+04    0.5795697911E+00    0.1281362281E+00    0.2369425923E-02    0.3401992653E-01    0.5323612878E+00
    0.2100000000E+04    0.5850543664E+00    0.1284697420E+00    0.2216242579E-02    0.3434657698E-01    0.5341859487E+00
    0.2300000000E+04    0.5896601795E+00    0.1287403738E+00    0.2086234847E-02    0.3462136756E-01    0.5357147821E+00
    0.2500000000E+04    0.5935822258E+00    0.1289632822E+00    0.1974420322E-02    0.3485577060E-01    0.5370157524E+00
    0.2700000000E+04    0.5969618744E+00    0.1291491809E+00    0.1877141765E-02    0.3505810823E-01    0.5381373650E+00
    0.2900000000E+04    0.5999040974E+00    0.1293058492E+00    0.1791658339E-02    0.3523456360E-01    0.5391151835E+00
    0.3100000000E+04    0.6024884627E+00    0.1294390664E+00    0.1715877715E-02    0.3538982618E-01    0.5399758882E+00
    0.3300000000E+04    0.6047763717E+00    0.1295532119E+00    0.1648176124E-02    0.3552751692E-01    0.5407398951E+00
    0.3500000000E+04    0.6068159594E+00    0.1296516618E+00    0.1587274719E-02    0.3565047603E-01    0.5414230983E+00
    0.3700000000E+04    0.6086454890E+00    0.1297370587E+00    0.1532152881E-02    0.3576096261E-01    0.5420380608E+00
    0.3900000000E+04    0.6102957577E+00    0.1298114984E+00    0.1481986282E-02    0.3586079598E-01    0.5425948467E+00
    0.4100000000E+04    0.6117918302E+00    0.1298766638E+00    0.1436101884E-02    0.3595145769E-01    0.5431016156E+00
    0.4300000000E+04    0.6131543125E+00    0.1299339201E+00    0.1393944732E-02    0.3603416647E-01    0.5435650545E+00
    0.4500000000E+04    0.6144003002E+00    0.1299843859E+00    0.1355053102E-02    0.3610993398E-01    0.5439906973E+00
    0.4700000000E+04    0.6155440946E+00    0.1300289859E+00    0.1319039663E-02    0.3617960706E-01    0.5443831640E+00
    0.4900000000E+04    0.6165977507E+00    0.1300684904E+00    0.1285577017E-02    0.3624389992E-01    0.5447463426E+00
    0.1000000000E+04    0.5323192515E+00    0.1248660477E+00    0.3625980104E-02    0.3122111452E-01    0.5161491922E+00
    0.3000000000E+04    0.6012368152E+00    0.1293750881E+00    0.1752665977E-02    0.3531459653E-01    0.5395587760E+00
    0.5000000000E+04    0.6170940362E+00    0.1300865380E+00    0.1269713507E-02    0.3627422198E-01    0.5449179990E+00
    0.7000000000E+04    0.6241130054E+00    0.1302930729E+00    0.1036384503E-02    0.3670653860E-01    0.5474010149E+00
    0.9000000000E+04    0.6280684169E+00    0.1303510672E+00    0.8942244063E-03    0.3695438373E-01    0.5488705605E+00
    0.1100000000E+05    0.6306053201E+00    0.1303512359E+00    0.7965266949E-03    0.3711604708E-01    0.5498592110E+00
    0.1300000000E+05    0.6323701277E+00    0.1303256620E+00    0.7242590391E-03    0.3723038803E-01    0.5505791480E+00
    0.1500000000E+05    0.6336684108E+00    0.1302879413E+00    0.6680871823E-03    0.3731588646E-01    0.5511323787E+00
    0.1700000000E+05    0.6346633417E+00    0.1302445220E+00    0.6228439238E-03    0.3738246890E-01    0.5515743571E+00
    0.1900000000E+05    0.6354499714E+00    0.1301986956E+00    0.5854131375E-03    0.3743595162E-01    0.5519379784E+00
    0.2100000000E+05    0.6360874117E+00    0.1301522227E+00    0.5537917335E-03    0.3747997276E-01    0.5522440741E+00
    0.2300000000E+05    0.6366143511E+00    0.1301060693E+00    0.5266267970E-03    0.3751692720E-01    0.5525065247E+00
    0.2500000000E+05    0.6370571717E+00    0.1300607671E+00    0.5029677558E-03    0.3754845738E-01    0.5527349635E+00
    0.2700000000E+05    0.6374344808E+00    0.1300166019E+00    0.4821248442E-03    0.3757572834E-01    0.5529363039E+00
    0.2900000000E+05    0.6377597779E+00    0.1299737163E+00    0.4635839351E-03    0.3759959004E-01    0.5531156472E+00
    0.3100000000E+05    0.6380430940E+00    0.1299321681E+00    0.4469530260E-03    0.3762067765E-01    0.5532768479E+00
    0.3300000000E+05    0.6382920385E+00    0.1298919645E+00    0.4319273676E-03    0.3763947568E-01    0.5534228780E+00
    0.3500000000E+05    0.6385124876E+00    0.1298530831E+00    0.4182660238E-03    0.3765636038E-01    0.5535560696E+00
    0.3700000000E+05    0.6387090517E+00    0.1298154840E+00    0.4057756865E-03    0.3767162856E-01    0.5536782814E+00
    0.3900000000E+05    0.6388853980E+00    0.1297791177E+00    0.3942992352E-03    0.3768551763E-01    0.5537910151E+00
    0.4100000000E+05    0.6390444803E+00    0.1297439303E+00    0.3837074814E-03    0.3769821986E-01    0.5538954984E+00
    0.4300000000E+05    0.6391887044E+00    0.1297098662E+00    0.3738931029E-03    0.3770989268E-01    0.5539927463E+00
    0.4500000000E+05    0.6393200493E+00    0.1296768702E+00    0.3647661108E-03    0.3772066631E-01    0.5540836062E+00
    0.4700000000E+05    0.6394401578E+00    0.1296448883E+00    0.3562504148E-03    0.3773064945E-01    0.5541687915E+00
    0.4900000000E+05    0.6395504052E+00    0.1296138690E+00    0.3482811837E-03    0.3773993355E-01    0.5542489079E+00
    0.1000000000E+05    0.6294618683E+00    0.1303557116E+00    0.8413430663E-03    0.3704284823E-01    0.5494078989E+00
    0.3000000000E+05    0.6379061606E+00    0.1299527737E+00    0.4550505044E-03    0.3761044737E-01    0.5531983123E+00
    0.5000000000E+05    0.6396022006E+00    0.1295987049E+00    0.3444837968E-03    0.3774433817E-01    0.5542872302E+00
    0.7000000000E+05    0.6403252959E+00    0.1293354413E+00    0.2871055260E-03    0.3780956473E-01    0.5548813679E+00
    0.9000000000E+05    0.6407242479E+00    0.1291279050E+00    0.2506708269E-03    0.3785006068E-01    0.5552798848E+00
    0.1100000000E+06    0.6409761920E+00    0.1289569976E+00    0.2249645975E-03    0.3787851649E-01    0.5555762734E+00
    0.1300000000E+06    0.6411492098E+00    0.1288118393E+00    0.2056047363E-03    0.3790006739E-01    0.5558107547E+00
    0.1500000000E+06    0.6412750279E+00    0.1286857290E+00    0.1903605309E-03    0.3791722492E-01    0.5560040151E+00
    0.1700000000E+06    0.6413704131E+00    0.1285742664E+00    0.1779621316E-03    0.3793137864E-01    0.5561679977E+00
    0.1900000000E+06    0.6414450529E+00    0.1284744126E+00    0.1676270122E-03    0.3794336739E-01    0.5563101819E+00
    0.2100000000E+06    0.6415049312E+00    0.1283839831E+00    0.1588434516E-03    0.3795373157E-01    0.5564355432E+00
    0.2300000000E+06    0.6415539420E+00    0.1283013556E+00    0.1512609880E-03    0.3796283732E-01    0.5565475498E+00
    0.2500000000E+06    0.6415947265E+00    0.1282252930E+00    0.1446305440E-03    0.3797094291E-01    0.5566487107E+00
    0.2700000000E+06    0.6416291390E+00    0.1281548304E+00    0.1387696376E-03    0.3797823662E-01    0.5567408969E+00
    0.2900000000E+06    0.6416585190E+00    0.1280892009E+00    0.1335411416E-03    0.3798485948E-01    0.5568255392E+00
    0.3100000000E+06    0.6416838577E+00    0.1280277849E+00    0.1288397696E-03    0.3799091965E-01    0.5569037553E+00
    0.3300000000E+06    0.6417059038E+00    0.1279700746E+00    0.1245831744E-03    0.3799650167E-01    0.5569764341E+00
    0.3500000000E+06    0.6417252338E+00    0.1279156487E+00    0.1207059077E-03    0.3800167284E-01    0.5570442938E+00
    0.3700000000E+06    0.6417422980E+00    0.1278641541E+00    0.1171552148E-03    0.3800648745E-01    0.5571079230E+00
    0.3900000000E+06    0.6417574534E+00    0.1278152915E+00    0.1138880402E-03    0.3801098996E-01    0.5571678094E+00
    0.4100000000E+06    0.6417709868E+00    0.1277688052E+00    0.1108688529E-03    0.3801521716E-01    0.5572243618E+00
    0.4300000000E+06    0.6417831307E+00    0.1277244750E+00    0.1080680388E-03    0.3801919983E-01    0.5572779262E+00
    0.4500000000E+06    0.6417940758E+00    0.1276821101E+00    0.1054606934E-03    0.3802296394E-01    0.5573287977E+00
    0.4700000000E+06    0.6418039801E+00    0.1276415437E+00    0.1030257021E-03    0.3802653163E-01    0.5573772301E+00
    0.4900000000E+06    0.6418129751E+00    0.1276026297E+00    0.1007450312E-03    0.3802992187E-01    0.5574234434E+00
    0.1000000000E+06    0.6408630626E+00    0.1290386829E+00    0.2368239141E-03    0.3786538162E-01    0.5554376649E+00
    0.3000000000E+06    0.6416716420E+00    0.1280580002E+00    0.1311301677E-03    0.3798795415E-01    0.5568653904E+00
    0.5000000000E+06    0.6418171670E+00    0.1275837513E+00    0.9965763390E-04    0.3803155567E-01    0.5574457787E+00
    0.7000000000E+06    0.6418727175E+00    0.1272682478E+00    0.8318059172E-04    0.3805794139E-01    0.5578118344E+00
    0.9000000000E+06    0.6418997786E+00    0.1270315269E+00    0.7267814856E-04    0.3807681626E-01    0.5580790092E+00
    0.1100000000E+07    0.6419145683E+00    0.1268420332E+00    0.6525296274E-04    0.3809149526E-01    0.5582892271E+00
    0.1300000000E+07    0.6419231163E+00    0.1266840388E+00    0.5965379460E-04    0.3810349933E-01    0.5584624232E+00
    0.1500000000E+07    0.6419281394E+00    0.1265485607E+00    0.5524117705E-04    0.3811365072E-01    0.5586096344E+00
    0.1700000000E+07    0.6419310248E+00    0.1264299822E+00    0.5165014101E-04    0.3812244368E-01    0.5587376082E+00
    0.1900000000E+07    0.6419325458E+00    0.1263245567E+00    0.4865536775E-04    0.3813019825E-01    0.5588507694E+00
    0.2100000000E+07    0.6419331626E+00    0.1262296596E+00    0.4610931431E-04    0.3813713341E-01    0.5589521761E+00
    0.2300000000E+07    0.6419331634E+00    0.1261433808E+00    0.4391082866E-04    0.3814340557E-01    0.5590440293E+00
    0.2500000000E+07    0.6419327357E+00    0.1260642870E+00    0.4198796234E-04    0.3814913031E-01    0.5591279660E+00
    0.2700000000E+07    0.6419320058E+00    0.1259912748E+00    0.4028796921E-04    0.3815439544E-01    0.5592052361E+00
    0.2900000000E+07    0.6419310608E+00    0.1259234771E+00    0.3877119164E-04    0.3815926920E-01    0.5592768158E+00
    0.3100000000E+07    0.6419299624E+00    0.1258601996E+00    0.3740716693E-04    0.3816380573E-01    0.5593434819E+00
    0.3300000000E+07    0.6419287548E+00    0.1258008783E+00    0.3617206046E-04    0.3816804865E-01    0.5594058625E+00
    0.3500000000E+07    0.6419274702E+00    0.1257450483E+00    0.3504692277E-04    0.3817203364E-01    0.5594644728E+00
    0.3700000000E+07    0.6419261325E+00    0.1256923223E+00    0.3401647546E-04    0.3817579025E-01    0.5595197405E+00
    0.3900000000E+07    0.6419247596E+00    0.1256423737E+00    0.3306824616E-04    0.3817934323E-01    0.5595720244E+00
    0.4100000000E+07    0.6419233648E+00    0.1255949252E+00    0.3219194005E-04    0.3818271352E-01    0.5596216289E+00
    0.4300000000E+07    0.6419219583E+00    0.1255497389E+00    0.3137897510E-04    0.3818591898E-01    0.5596688139E+00
    0.4500000000E+07    0.6419205478E+00    0.1255066092E+00    0.3062213293E-04    0.3818897499E-01    0.5597138033E+00
    0.4700000000E+07    0.6419191392E+00    0.1254653576E+00    0.2991529280E-04    0.3819189486E-01    0.5597567916E+00
    0.4900000000E+07    0.6419177371E+00    0.1254258274E+00    0.2925322631E-04    0.3819469019E-01    0.5597979483E+00
    0.1000000000E+07    0.6419082131E+00    0.1269320797E+00    0.6867992661E-04    0.3808456179E-01    0.5581896971E+00
    0.3000000000E+07    0.6419305277E+00    0.1258913112E+00    0.3807170662E-04    0.3816157668E-01    0.5593107208E+00
    0.5000000000E+07    0.6419170395E+00    0.1254066643E+00    0.2893755313E-04    0.3819604440E-01    0.5598178870E+00
    0.7000000000E+07    0.6419039113E+00    0.1250876110E+00    0.2415372399E-04    0.3821851773E-01    0.5601487333E+00
    0.9000000000E+07    0.6418925670E+00    0.1248494750E+00    0.2110412152E-04    0.3823522274E-01    0.5603944813E+00
    0.1100000000E+08    0.6418827739E+00    0.1246594562E+00    0.1894793991E-04    0.3824852429E-01    0.5605899716E+00
    0.1300000000E+08    0.6418742115E+00    0.1245013687E+00    0.1732196508E-04    0.3825957754E-01    0.5607522597E+00
    0.1500000000E+08    0.6418666244E+00    0.1243660262E+00    0.1604054140E-04    0.3826903402E-01    0.5608909734E+00
    0.1700000000E+08    0.6418598213E+00    0.1242477108E+00    0.1499769797E-04    0.3827729756E-01    0.5610120821E+00
    0.1900000000E+08    0.6418536593E+00    0.1241426210E+00    0.1412800823E-04    0.3828463582E-01    0.5611195428E+00
    0.2100000000E+08    0.6418480300E+00    0.1240481008E+00    0.1338862794E-04    0.3829123542E-01    0.5612161135E+00
    0.2300000000E+08    0.6418428499E+00    0.1239622213E+00    0.1275018321E-04    0.3829723162E-01    0.5613037931E+00
    0.2500000000E+08    0.6418380531E+00    0.1238835374E+00    0.1219178032E-04    0.3830272564E-01    0.5613840768E+00
    0.2700000000E+08    0.6418335872E+00    0.1238109386E+00    0.1169810161E-04    0.3830779518E-01    0.5614581121E+00
