  Pressure (Pa) 22mC5-400 (mol/kg) 3mC6-400 (mol/kg) 33mC5-400 (mol/kg) 23mC5-400 (mol/kg) C7-400 (mol/kg)
    0.1000000000E+01    0.3177855582E-02    0.1060882195E-02    0.2598058316E-03    0.6509967903E-03    0.1721448357E-02
    0.3000000000E+01    0.9422715259E-02    0.3154955497E-02    0.7679560172E-03    0.1930302077E-02    0.5119611660E-02
    0.5000000000E+01    0.1552412205E-01    0.5212911756E-02    0.1261295269E-02    0.3180246199E-02    0.8459428133E-02
    0.7000000000E+01    0.2148708113E-01    0.7235686998E-02    0.1740366056E-02    0.4401853301E-02    0.1174240786E-01
    0.9000000000E+01    0.2731636606E-01    0.9224185100E-02    0.2205686127E-02    0.5596100146E-02    0.1497000908E-01
    0.1100000000E+02    0.3301653207E-01    0.1117927915E-01    0.2657749863E-02    0.6763918822E-02    0.1814364042E-01
    0.1300000000E+02    0.3859192833E-01    0.1310181278E-01    0.3097029558E-02    0.7906199263E-02    0.2126466295E-01
    0.1500000000E+02    0.4404670944E-01    0.1499260134E-01    0.3523976604E-02    0.9023791599E-02    0.2433439220E-01
    0.1700000000E+02    0.4938484626E-01    0.1685243313E-01    0.3939022606E-02    0.1011750836E-01    0.2735410007E-01
    0.1900000000E+02    0.5461013585E-01    0.1868207049E-01    0.4342580432E-02    0.1118812653E-01    0.3032501658E-01
    0.2100000000E+02    0.5972621094E-01    0.2048225086E-01    0.4735045188E-02    0.1223638945E-01    0.3324833160E-01
    0.2300000000E+02    0.6473654867E-01    0.2225368778E-01    0.5116795140E-02    0.1326300865E-01    0.3612519651E-01
    0.2500000000E+02    0.6964447886E-01    0.2399707189E-01    0.5488192581E-02    0.1426866552E-01    0.3895672567E-01
    0.2700000000E+02    0.7445319172E-01    0.2571307179E-01    0.5849584638E-02    0.1525401285E-01    0.4174399800E-01
    0.2900000000E+02    0.7916574507E-01    0.2740233495E-01    0.6201304036E-02    0.1621967640E-01    0.4448805828E-01
    0.3100000000E+02    0.8378507117E-01    0.2906548851E-01    0.6543669822E-02    0.1716625620E-01    0.4718991855E-01
    0.3300000000E+02    0.8831398308E-01    0.3070314012E-01    0.6876988034E-02    0.1809432789E-01    0.4985055937E-01
    0.3500000000E+02    0.9275518067E-01    0.3231587862E-01    0.7201552343E-02    0.1900444397E-01    0.5247093103E-01
    0.3700000000E+02    0.9711125625E-01    0.3390427484E-01    0.7517644650E-02    0.1989713492E-01    0.5505195471E-01
    0.3900000000E+02    0.1013846999E+00    0.3546888222E-01    0.7825535657E-02    0.2077291032E-01    0.5759452361E-01
    0.4100000000E+02    0.1055779044E+00    0.3701023751E-01    0.8125485396E-02    0.2163225982E-01    0.6009950398E-01
    0.4300000000E+02    0.1096931700E+00    0.3852886138E-01    0.8417743736E-02    0.2247565417E-01    0.6256773612E-01
    0.4500000000E+02    0.1137327090E+00    0.4002525901E-01    0.8702550861E-02    0.2330354606E-01    0.6500003539E-01
    0.4700000000E+02    0.1176986495E+00    0.4149992068E-01    0.8980137716E-02    0.2411637103E-01    0.6739719310E-01
    0.4900000000E+02    0.1215930398E+00    0.4295332230E-01    0.9250726440E-02    0.2491454826E-01    0.6975997737E-01
    0.1000000000E+02    0.3018231242E-01    0.1020585423E-01    0.2433345015E-02    0.6183256425E-02    0.1656348483E-01
    0.3000000000E+02    0.8148688299E-01    0.2823713700E-01    0.6373636706E-02    0.1669531523E-01    0.4584420141E-01
    0.5000000000E+02    0.1235140228E+00    0.4367219551E-01    0.9383463609E-02    0.2530827068E-01    0.7092871338E-01
    0.7000000000E+02    0.1586201086E+00    0.5703919421E-01    0.1171871016E-01    0.3250433341E-01    0.9266942431E-01
    0.9000000000E+02    0.1884192444E+00    0.6873177120E-01    0.1355348019E-01    0.3861383673E-01    0.1117017735E+00
    0.1100000000E+03    0.2140547919E+00    0.7904933702E-01    0.1500965597E-01    0.4387078974E-01    0.1285092068E+00
    0.1300000000E+03    0.2363599034E+00    0.8822370314E-01    0.1617463991E-01    0.4844572277E-01    0.1434661114E+00
    0.1500000000E+03    0.2559565443E+00    0.9643716080E-01    0.1711241620E-01    0.5246594837E-01    0.1568669694E+00
    0.1700000000E+03    0.2733188207E+00    0.1038350503E+00    0.1787067324E-01    0.5602851952E-01    0.1689466290E+00
    0.1900000000E+03    0.2888147655E+00    0.1105346853E+00    0.1848551827E-01    0.5920878000E-01    0.1798946986E+00
    0.2100000000E+03    0.3027346694E+00    0.1166318082E+00    0.1898467397E-01    0.6206616213E-01    0.1898659612E+00
    0.2300000000E+03    0.3153107595E+00    0.1222053389E+00    0.1938969226E-01    0.6464821365E-01    0.1989880358E+00
    0.2500000000E+03    0.3267311601E+00    0.1273209212E+00    0.1971751637E-01    0.6699345497E-01    0.2073670995E+00
    0.2700000000E+03    0.3371499899E+00    0.1320336074E+00    0.1998160170E-01    0.6913344550E-01    0.2150922209E+00
    0.2900000000E+03    0.3466947891E+00    0.1363899164E+00    0.2019273229E-01    0.7109430387E-01    0.2222386814E+00
    0.3100000000E+03    0.3554720701E+00    0.1404294292E+00    0.2035962379E-01    0.7289784384E-01    0.2288705511E+00
    0.3300000000E+03    0.3635715222E+00    0.1441860394E+00    0.2048937427E-01    0.7456243509E-01    0.2350427078E+00
    0.3500000000E+03    0.3710692400E+00    0.1476889413E+00    0.2058780520E-01    0.7610366387E-01    0.2408024329E+00
    0.3700000000E+03    0.3780302296E+00    0.1509634202E+00    0.2065972196E-01    0.7753484612E-01    0.2461906869E+00
    0.3900000000E+03    0.3845103762E+00    0.1540314865E+00    0.2070911495E-01    0.7886743020E-01    0.2512431350E+00
    0.4100000000E+03    0.3905580039E+00    0.1569123917E+00    0.2073931607E-01    0.8011131621E-01    0.2559909792E+00
    0.4300000000E+03    0.3962151237E+00    0.1596230481E+00    0.2075312164E-01    0.8127511145E-01    0.2604616378E+00
    0.4500000000E+03    0.4015184401E+00    0.1621783756E+00    0.2075288961E-01    0.8236633655E-01    0.2646793045E+00
    0.4700000000E+03    0.4065001699E+00    0.1645915869E+00    0.2074061701E-01    0.8339159301E-01    0.2686654108E+00
    0.4900000000E+03    0.4111887127E+00    0.1668744264E+00    0.2071800208E-01    0.8435670058E-01    0.2724390111E+00
    0.1000000000E+03    0.2016995051E+00    0.7404660252E-01    0.1432277542E-01    0.4133701866E-01    0.1203580438E+00
    0.3000000000E+03    0.3511734114E+00    0.1384470334E+00    0.2028123083E-01    0.7201451840E-01    0.2256153153E+00
    0.5000000000E+03    0.4134310081E+00    0.1679702749E+00    0.2070327781E-01    0.8481833169E-01    0.2742515062E+00
    0.7000000000E+03    0.4476868816E+00    0.1850705102E+00    0.2012407919E-01    0.9187743326E-01    0.3026372922E+00
    0.9000000000E+03    0.4693487060E+00    0.1962893752E+00    0.1933949038E-01    0.9635013552E-01    0.3213982175E+00
    0.1100000000E+04    0.4842674411E+00    0.2042453586E+00    0.1854801991E-01    0.9943663317E-01    0.3347988763E+00
    0.1300000000E+04    0.4951580864E+00    0.2101964575E+00    0.1780475971E-01    0.1016942313E+00    0.3448934633E+00
    0.1500000000E+04    0.5034524726E+00    0.2148242414E+00    0.1712257966E-01    0.1034170393E+00    0.3527977831E+00
    0.1700000000E+04    0.5099768353E+00    0.2185310003E+00    0.1650075480E-01    0.1047748868E+00    0.3591720993E+00
    0.1900000000E+04    0.5152410958E+00    0.2215699548E+00    0.1593429588E-01    0.1058726559E+00    0.3644330554E+00
    0.2100000000E+04    0.5195768497E+00    0.2241086910E+00    0.1541723238E-01    0.1067785959E+00    0.3688570767E+00
    0.2300000000E+04    0.5232089603E+00    0.2262626739E+00    0.1494378386E-01    0.1075390190E+00    0.3726350846E+00
    0.2500000000E+04    0.5262952495E+00    0.2281141280E+00    0.1450874311E-01    0.1081864512E+00    0.3759033672E+00
    0.2700000000E+04    0.5289497178E+00    0.2297232448E+00    0.1410755679E-01    0.1087444030E+00    0.3787619328E+00
    0.2900000000E+04    0.5312567466E+00    0.2311351306E+00    0.1373629281E-01    0.1092302881E+00    0.3812859042E+00
    0.3100000000E+04    0.5332801187E+00    0.2323842736E+00    0.1339157038E-01    0.1096572777E+00    0.3835328562E+00
    0.3300000000E+04    0.5350689340E+00    0.2334975086E+00    0.1307048332E-01    0.1100355180E+00    0.3855476919E+00
    0.3500000000E+04    0.5366615997E+00    0.2344960378E+00    0.1277052854E-01    0.1103729508E+00    0.3873659714E+00
    0.3700000000E+04    0.5380885865E+00    0.2353968410E+00    0.1248954331E-01    0.1106758810E+00    0.3890162395E+00
    0.3900000000E+04    0.5393743761E+00    0.2362136821E+00    0.1222565200E-01    0.1109493776E+00    0.3905216874E+00
    0.4100000000E+04    0.5405388615E+00    0.2369578391E+00    0.1197722138E-01    0.1111975623E+00    0.3919013609E+00
    0.4300000000E+04    0.5415983730E+00    0.2376386437E+00    0.1174282345E-01    0.1114238207E+00    0.3931710548E+00
    0.4500000000E+04    0.5425664404E+00    0.2382638854E+00    0.1152120456E-01    0.1116309599E+00    0.3943439834E+00
    0.4700000000E+04    0.5434543682E+00    0.2388401194E+00    0.1131125972E-01    0.1118213267E+00    0.3954312914E+00
    0.4900000000E+04    0.5442716745E+00    0.2393729021E+00    0.1111201119E-01    0.1119968984E+00    0.3964424470E+00
    0.1000000000E+04    0.4774386005E+00    0.2005776352E+00    0.1893959307E-01    0.9802307745E-01    0.3286093379E+00
    0.3000000000E+04    0.5323005309E+00    0.2317782156E+00    0.1356080578E-01    0.1094504509E+00    0.3824409492E+00
    0.5000000000E+04    0.5446564155E+00    0.2396245089E+00    0.1101612285E-01    0.1120796705E+00    0.3969220449E+00
    0.7000000000E+04    0.5500809808E+00    0.2432291817E+00    0.9492994623E-02    0.1132575408E+00    0.4039798506E+00
    0.9000000000E+04    0.5531211175E+00    0.2452969218E+00    0.8454032677E-02    0.1139308436E+00    0.4082594027E+00
    0.1100000000E+05    0.5550622951E+00    0.2466327713E+00    0.7688151243E-02    0.1143692045E+00    0.4111755552E+00
    0.1300000000E+05    0.5564073582E+00    0.2475625511E+00    0.7093858154E-02    0.1146788348E+00    0.4133132506E+00
    0.1500000000E+05    0.5573932449E+00    0.2482436445E+00    0.6615593615E-02    0.1149101250E+00    0.4149608084E+00
    0.1700000000E+05    0.5581461548E+00    0.2487614881E+00    0.6220074510E-02    0.1150900966E+00    0.4162778245E+00
    0.1900000000E+05    0.5587394439E+00    0.2491664949E+00    0.5885995256E-02    0.1152345620E+00    0.4173602696E+00
    0.2100000000E+05    0.5592186457E+00    0.2494903380E+00    0.5599004834E-02    0.1153534019E+00    0.4182695640E+00
    0.2300000000E+05    0.5596135107E+00    0.2497539163E+00    0.5349038372E-02    0.1154531149E+00    0.4190469752E+00
    0.2500000000E+05    0.5599442945E+00    0.2499715733E+00    0.5128801506E-02    0.1155381547E+00    0.4197213350E+00
    0.2700000000E+05    0.5602252620E+00    0.2501534777E+00    0.4932861906E-02    0.1156116785E+00    0.4203134439E+00
    0.2900000000E+05    0.5604667478E+00    0.2503070359E+00    0.4757080077E-02    0.1156759884E+00    0.4208387166E+00
    0.3100000000E+05    0.5606764211E+00    0.2504377681E+00    0.4598239219E-02    0.1157328039E+00    0.4213088400E+00
    0.3300000000E+05    0.5608600918E+00    0.2505498707E+00    0.4453796824E-02    0.1157834362E+00    0.4217328498E+00
    0.3500000000E+05    0.5610222413E+00    0.2506465893E+00    0.4321713362E-02    0.1158289030E+00    0.4221178520E+00
    0.3700000000E+05    0.5611663808E+00    0.2507304722E+00    0.4200331297E-02    0.1158700070E+00    0.4224695190E+00
    0.3900000000E+05    0.5612953003E+00    0.2508035469E+00    0.4088287856E-02    0.1159073898E+00    0.4227924393E+00
    0.4100000000E+05    0.5614112443E+00    0.2508674460E+00    0.3984450951E-02    0.1159415712E+00    0.4230903682E+00
    0.4300000000E+05    0.5615160385E+00    0.2509234983E+00    0.3887871339E-02    0.1159729764E+00    0.4233664118E+00
    0.4500000000E+05    0.5616111833E+00    0.2509727953E+00    0.3797746365E-02    0.1160019571E+00    0.4236231639E+00
    0.4700000000E+05    0.5616979227E+00    0.2510162420E+00    0.3713392114E-02    0.1160288069E+00    0.4238628088E+00
    0.4900000000E+05    0.5617772971E+00    0.2510545943E+00    0.3634221773E-02    0.1160537727E+00    0.4240872009E+00
    0.1000000000E+05    0.5541883431E+00    0.2460301313E+00    0.8044813259E-02    0.1141708037E+00    0.4098411214E+00
    0.3000000000E+05    0.5605751615E+00    0.2503749670E+00    0.4675714432E-02    0.1157052430E+00    0.4210800549E+00
    0.5000000000E+05    0.5618145017E+00    0.2510720628E+00    0.3596419475E-02    0.1160656158E+00    0.4241941817E+00
    0.7000000000E+05    0.5623264385E+00    0.2512657467E+00    0.3019395286E-02    0.1162408932E+00    0.4258197956E+00
    0.9000000000E+05    0.5625999810E+00    0.2513083479E+00    0.2647635575E-02    0.1163496166E+00    0.4268698390E+00
    0.1100000000E+06    0.5627670976E+00    0.2512916134E+00    0.2383035626E-02    0.1164259716E+00    0.4276264469E+00
    0.1300000000E+06    0.5628779647E+00    0.2512485032E+00    0.2182574605E-02    0.1164837772E+00    0.4282091468E+00
    0.1500000000E+06    0.5629557203E+00    0.2511931364E+00    0.2024045785E-02    0.1165297870E+00    0.4286784333E+00
    0.1700000000E+06    0.5630124651E+00    0.2511322561E+00    0.1894684355E-02    0.1165677351E+00    0.4290686861E+00
    0.1900000000E+06    0.5630551182E+00    0.2510693151E+00    0.1786567161E-02    0.1165998748E+00    0.4294011122E+00
    0.2100000000E+06    0.5630879091E+00    0.2510061584E+00    0.1694483839E-02    0.1166276571E+00    0.4296896190E+00
    0.2300000000E+06    0.5631135609E+00    0.2509437912E+00    0.1614849894E-02    0.1166520647E+00    0.4299437703E+00
    0.2500000000E+06    0.5631339015E+00    0.2508827587E+00    0.1545108349E-02    0.1166737909E+00    0.4301703976E+00
    0.2700000000E+06    0.5631502001E+00    0.2508233445E+00    0.1483380068E-02    0.1166933406E+00    0.4303745341E+00
    0.2900000000E+06    0.5631633636E+00    0.2507656801E+00    0.1428249230E-02    0.1167110921E+00    0.4305599855E+00
    0.3100000000E+06    0.5631740559E+00    0.2507098075E+00    0.1378626279E-02    0.1167273356E+00    0.4307296928E+00
    0.3300000000E+06    0.5631827729E+00    0.2506557153E+00    0.1333657347E-02    0.1167422976E+00    0.4308859719E+00
    0.3500000000E+06    0.5631898919E+00    0.2506033614E+00    0.1292662594E-02    0.1167561587E+00    0.4310306761E+00
    0.3700000000E+06    0.5631957044E+00    0.2505526861E+00    0.1255093176E-02    0.1167690643E+00    0.4311653097E+00
    0.3900000000E+06    0.5632004390E+00    0.2505036205E+00    0.1220500526E-02    0.1167811337E+00    0.4312911093E+00
    0.4100000000E+06    0.5632042767E+00    0.2504560918E+00    0.1188514002E-02    0.1167924654E+00    0.4314091028E+00
    0.4300000000E+06    0.5632073629E+00    0.2504100266E+00    0.1158824323E-02    0.1168031419E+00    0.4315201529E+00
    0.4500000000E+06    0.5632098152E+00    0.2503653524E+00    0.1131171123E-02    0.1168132329E+00    0.4316249903E+00
    0.4700000000E+06    0.5632117298E+00    0.2503219994E+00    0.1105333445E-02    0.1168227976E+00    0.4317242391E+00
    0.4900000000E+06    0.5632131860E+00    0.2502799009E+00    0.1081122402E-02    0.1168318869E+00    0.4318184361E+00
    0.1000000000E+06    0.5626927532E+00    0.2513046651E+00    0.2505334798E-02    0.1163907312E+00    0.4272753302E+00
    0.3000000000E+06    0.5631689844E+00    0.2507375196E+00    0.1402807326E-02    0.1167193869E+00    0.4306466500E+00
    0.5000000000E+06    0.5632137632E+00    0.2502593021E+00    0.1069575174E-02    0.1168362673E+00    0.4318637878E+00
    0.7000000000E+06    0.5632125097E+00    0.2498996768E+00    0.8943143962E-03    0.1169070219E+00    0.4325915747E+00
    0.9000000000E+06    0.5632006007E+00    0.2496134326E+00    0.7823229638E-03    0.1169576527E+00    0.4331056772E+00
    0.1100000000E+07    0.5631859212E+00    0.2493759132E+00    0.7030137733E-03    0.1169970397E+00    0.4335010853E+00
    0.1300000000E+07    0.5631708531E+00    0.2491729443E+00    0.6431356598E-03    0.1170292572E+00    0.4338213653E+00
    0.1500000000E+07    0.5631562100E+00    0.2489957201E+00    0.5959019287E-03    0.1170565081E+00    0.4340899891E+00
    0.1700000000E+07    0.5631422663E+00    0.2488384151E+00    0.5574330435E-03    0.1170801168E+00    0.4343209995E+00
    0.1900000000E+07    0.5631290909E+00    0.2486969799E+00    0.5253309728E-03    0.1171009409E+00    0.4345234439E+00
    0.2100000000E+07    0.5631166711E+00    0.2485684870E+00    0.4980238732E-03    0.1171195672E+00    0.4347034819E+00
    0.2300000000E+07    0.5631049624E+00    0.2484507518E+00    0.4744332272E-03    0.1171364151E+00    0.4348654908E+00
    0.2500000000E+07    0.5630939101E+00    0.2483421010E+00    0.4537913499E-03    0.1171517943E+00    0.4350126897E+00
    0.2700000000E+07    0.5630834585E+00    0.2482412242E+00    0.4355350966E-03    0.1171659403E+00    0.4351475130E+00
    0.2900000000E+07    0.5630735548E+00    0.2481470761E+00    0.4192408320E-03    0.1171790362E+00    0.4352718453E+00
    0.3100000000E+07    0.5630641505E+00    0.2480588098E+00    0.4045829862E-03    0.1171912270E+00    0.4353871745E+00
    0.3300000000E+07    0.5630552021E+00    0.2479757288E+00    0.3913067158E-03    0.1172026298E+00    0.4354946952E+00
    0.3500000000E+07    0.5630466703E+00    0.2478972541E+00    0.3792093311E-03    0.1172133402E+00    0.4355953810E+00
    0.3700000000E+07    0.5630385205E+00    0.2478228985E+00    0.3681273494E-03    0.1172234376E+00    0.4356900354E+00
    0.3900000000E+07    0.5630307214E+00    0.2477522487E+00    0.3579272698E-03    0.1172329883E+00    0.4357793290E+00
    0.4100000000E+07    0.5630232455E+00    0.2476849506E+00    0.3484988652E-03    0.1172420485E+00    0.4358638274E+00
    0.4300000000E+07    0.5630160679E+00    0.2476206988E+00    0.3397502216E-03    0.1172506661E+00    0.4359440118E+00
    0.4500000000E+07    0.5630091665E+00    0.2475592278E+00    0.3316040092E-03    0.1172588824E+00    0.4360202948E+00
    0.4700000000E+07    0.5630025214E+00    0.2475003056E+00    0.3239946406E-03    0.1172667332E+00    0.4360930332E+00
    0.4900000000E+07    0.5629961148E+00    0.2474437281E+00    0.3168660779E-03    0.1172742495E+00    0.4361625369E+00
    0.1000000000E+07    0.5631934002E+00    0.2494896349E+00    0.7396311440E-03    0.1169784344E+00    0.4333148224E+00
    0.3000000000E+07    0.5630687931E+00    0.2481022544E+00    0.4117246910E-03    0.1171852368E+00    0.4353305547E+00
    0.5000000000E+07    0.5629929958E+00    0.2474162614E+00    0.3134667683E-03    0.1172778909E+00    0.4361961620E+00
    0.7000000000E+07    0.5629399409E+00    0.2469554443E+00    0.2619184357E-03    0.1173383340E+00    0.4367499654E+00
    0.9000000000E+07    0.5628991909E+00    0.2466076331E+00    0.2290218329E-03    0.1173832783E+00    0.4371568047E+00
    0.1100000000E+08    0.5628661208E+00    0.2463280481E+00    0.2057443828E-03    0.1174190749E+00    0.4374780756E+00
    0.1300000000E+08    0.5628382963E+00    0.2460942013E+00    0.1881800069E-03    0.1174488269E+00    0.4377433688E+00
    0.1500000000E+08    0.5628142811E+00    0.2458931776E+00    0.1743305534E-03    0.1174742852E+00    0.4379692053E+00
    0.1700000000E+08    0.5627931576E+00    0.2457168673E+00    0.1630547794E-03    0.1174965350E+00    0.4381657438E+00
    0.1900000000E+08    0.5627743042E+00    0.2455598416E+00    0.1536477160E-03    0.1175162960E+00    0.4383396738E+00
    0.2100000000E+08    0.5627572799E+00    0.2454182866E+00    0.1456475144E-03    0.1175340698E+00    0.4384956328E+00
    0.2300000000E+08    0.5627417612E+00    0.2452894200E+00    0.1387374117E-03    0.1175502202E+00    0.4386369671E+00
    0.2500000000E+08    0.5627275032E+00    0.2451711490E+00    0.1326920167E-03    0.1175650194E+00    0.4387661697E+00
    0.2700000000E+08    0.5627143164E+00    0.2450618601E+00    0.1273460402E-03    0.1175786762E+00    0.4388851478E+00
