  Pressure (Pa) 22mC5-400 (mol/kg) 3mC6-400 (mol/kg) 33mC5-400 (mol/kg) 23mC5-400 (mol/kg) C7-400 (mol/kg)
    0.1000000000E+01    0.3178027080E-02    0.1586458751E-02    0.6479016250E-04    0.7440365059E-03    0.3432423983E-02
    0.3000000000E+01    0.9424187625E-02    0.4689662961E-02    0.1905732127E-03    0.2206404439E-02    0.1014714110E-01
    0.5000000000E+01    0.1552802294E-01    0.7703269881E-02    0.3114871048E-03    0.3635480965E-02    0.1666889492E-01
    0.7000000000E+01    0.2149437229E-01    0.1063110364E-01    0.4277531033E-03    0.5032397703E-02    0.2300590832E-01
    0.9000000000E+01    0.2732785764E-01    0.1347677381E-01    0.5395802474E-03    0.6398235469E-02    0.2916594319E-01
    0.1100000000E+02    0.3303289573E-01    0.1624369023E-01    0.6471661617E-03    0.7734027091E-02    0.3515633228E-01
    0.1300000000E+02    0.3861370930E-01    0.1893507666E-01    0.7506978026E-03    0.9040760044E-02    0.4098400848E-01
    0.1500000000E+02    0.4407433766E-01    0.2155398325E-01    0.8503521491E-03    0.1031937891E-01    0.4665553172E-01
    0.1700000000E+02    0.4941864652E-01    0.2410329814E-01    0.9462968393E-03    0.1157078768E-01    0.5217711370E-01
    0.1900000000E+02    0.5465033721E-01    0.2658575803E-01    0.1038690760E-02    0.1279585192E-01    0.5755464071E-01
    0.2100000000E+02    0.5977295534E-01    0.2900395795E-01    0.1127684593E-02    0.1399540078E-01    0.6279369468E-01
    0.2300000000E+02    0.6478989887E-01    0.3136036040E-01    0.1213421319E-02    0.1517022889E-01    0.6789957258E-01
    0.2500000000E+02    0.6970442576E-01    0.3365730360E-01    0.1296036691E-02    0.1632109813E-01    0.7287730441E-01
    0.2700000000E+02    0.7451966108E-01    0.3589700931E-01    0.1375659665E-02    0.1744873934E-01    0.7773166980E-01
    0.2900000000E+02    0.7923860371E-01    0.3808158994E-01    0.1452412807E-02    0.1855385382E-01    0.8246721338E-01
    0.3100000000E+02    0.8386413266E-01    0.4021305524E-01    0.1526412672E-02    0.1963711486E-01    0.8708825909E-01
    0.3300000000E+02    0.8839901300E-01    0.4229331842E-01    0.1597770150E-02    0.2069916912E-01    0.9159892341E-01
    0.3500000000E+02    0.9284590144E-01    0.4432420190E-01    0.1666590797E-02    0.2174063790E-01    0.9600312762E-01
    0.3700000000E+02    0.9720735158E-01    0.4630744261E-01    0.1732975138E-02    0.2276211839E-01    0.1003046093E+00
    0.3900000000E+02    0.1014858189E+00    0.4824469700E-01    0.1797018950E-02    0.2376418486E-01    0.1045069329E+00
    0.4100000000E+02    0.1056836653E+00    0.5013754558E-01    0.1858813529E-02    0.2474738969E-01    0.1086134997E+00
    0.4300000000E+02    0.1098031638E+00    0.5198749725E-01    0.1918445939E-02    0.2571226445E-01    0.1126275571E+00
    0.4500000000E+02    0.1138465023E+00    0.5379599332E-01    0.1975999244E-02    0.2665932086E-01    0.1165522070E+00
    0.4700000000E+02    0.1178157879E+00    0.5556441126E-01    0.2031552722E-02    0.2758905168E-01    0.1203904141E+00
    0.4900000000E+02    0.1217130503E+00    0.5729406814E-01    0.2085182073E-02    0.2850193164E-01    0.1241450134E+00
    0.1000000000E+02    0.3019616425E-01    0.1486987054E-01    0.5938914318E-03    0.7069824298E-02    0.3218190110E-01
    0.3000000000E+02    0.8156286948E-01    0.3915384024E-01    0.1489749840E-02    0.1909817500E-01    0.8479178648E-01
    0.5000000000E+02    0.1236352869E+00    0.5814475709E-01    0.2111297926E-02    0.2895219616E-01    0.1259918123E+00
    0.7000000000E+02    0.1587388802E+00    0.7340265321E-01    0.2548552222E-02    0.3717574178E-01    0.1591391512E+00
    0.9000000000E+02    0.1884813277E+00    0.8592933480E-01    0.2858449715E-02    0.4414482426E-01    0.1863907124E+00
    0.1100000000E+03    0.2140097893E+00    0.9639756387E-01    0.3078331804E-02    0.5012776615E-01    0.2091956550E+00
    0.1300000000E+03    0.2361649431E+00    0.1052759009E+00    0.3233418533E-02    0.5532121703E-01    0.2285637565E+00
    0.1500000000E+03    0.2555770669E+00    0.1129007179E+00    0.3341163161E-02    0.5987262028E-01    0.2452202605E+00
    0.1700000000E+03    0.2727280947E+00    0.1195197438E+00    0.3413894414E-02    0.6389472441E-01    0.2596995405E+00
    0.1900000000E+03    0.2879929190E+00    0.1253194614E+00    0.3460474953E-02    0.6747524165E-01    0.2724040438E+00
    0.2100000000E+03    0.3016676104E+00    0.1304429335E+00    0.3487372661E-02    0.7068344735E-01    0.2836426576E+00
    0.2300000000E+03    0.3139891465E+00    0.1350017461E+00    0.3499369928E-02    0.7357479398E-01    0.2936564190E+00
    0.2500000000E+03    0.3251494903E+00    0.1390842142E+00    0.3500043458E-02    0.7619420371E-01    0.3026361867E+00
    0.2700000000E+03    0.3353058203E+00    0.1427611487E+00    0.3492095027E-02    0.7857846122E-01    0.3107350610E+00
    0.2900000000E+03    0.3445880879E+00    0.1460899880E+00    0.3477583341E-02    0.8075798129E-01    0.3180772877E+00
    0.3100000000E+03    0.3531046829E+00    0.1491178131E+00    0.3458089024E-02    0.8275813404E-01    0.3247647548E+00
    0.3300000000E+03    0.3609467382E+00    0.1518835816E+00    0.3434833607E-02    0.8460025188E-01    0.3308818096E+00
    0.3500000000E+03    0.3681914414E+00    0.1544198071E+00    0.3408766399E-02    0.8630240407E-01    0.3364988801E+00
    0.3700000000E+03    0.3749046095E+00    0.1567538392E+00    0.3380628605E-02    0.8787999925E-01    0.3416752357E+00
    0.3900000000E+03    0.3811427136E+00    0.1589088495E+00    0.3351001142E-02    0.8934625889E-01    0.3464611144E+00
    0.4100000000E+03    0.3869544841E+00    0.1609046000E+00    0.3320340619E-02    0.9071259297E-01    0.3508993820E+00
    0.4300000000E+03    0.3923821958E+00    0.1627580481E+00    0.3289006645E-02    0.9198890063E-01    0.3550268376E+00
    0.4500000000E+03    0.3974627047E+00    0.1644838272E+00    0.3257282714E-02    0.9318381274E-01    0.3588752513E+00
    0.4700000000E+03    0.4022282911E+00    0.1660946314E+00    0.3225392302E-02    0.9430488913E-01    0.3624721961E+00
    0.4900000000E+03    0.4067073491E+00    0.1676015268E+00    0.3193511340E-02    0.9535877999E-01    0.3658417194E+00
    0.1000000000E+03    0.2017139165E+00    0.9138770945E-01    0.2977844171E-02    0.4724590459E-01    0.1982778048E+00
    0.3000000000E+03    0.3489360371E+00    0.1476389241E+00    0.3468375398E-02    0.8177906072E-01    0.3214972307E+00
    0.5000000000E+03    0.4088473826E+00    0.1683190848E+00    0.3177618823E-02    0.9586239355E-01    0.3674478853E+00
    0.7000000000E+03    0.4413770590E+00    0.1790326913E+00    0.2880868056E-02    0.1035252470E+00    0.3915868023E+00
    0.9000000000E+03    0.4617985182E+00    0.1855680234E+00    0.2636575909E-02    0.1083458923E+00    0.4065162236E+00
    0.1100000000E+04    0.4758062092E+00    0.1899597517E+00    0.2438683117E-02    0.1116594106E+00    0.4166876767E+00
    0.1300000000E+04    0.4860085039E+00    0.1931069423E+00    0.2276306397E-02    0.1140777830E+00    0.4240775264E+00
    0.1500000000E+04    0.4937687979E+00    0.1954681605E+00    0.2140752710E-02    0.1159211197E+00    0.4296985372E+00
    0.1700000000E+04    0.4998689924E+00    0.1973017204E+00    0.2025716970E-02    0.1173731317E+00    0.4341238607E+00
    0.1900000000E+04    0.5047895596E+00    0.1987641784E+00    0.1926667593E-02    0.1185467874E+00    0.4377024727E+00
    0.2100000000E+04    0.5088419840E+00    0.1999559112E+00    0.1840306805E-02    0.1195153742E+00    0.4406591509E+00
    0.2300000000E+04    0.5122370266E+00    0.2009442175E+00    0.1764190832E-02    0.1203285155E+00    0.4431452921E+00
    0.2500000000E+04    0.5151223776E+00    0.2017758904E+00    0.1696474296E-02    0.1210210089E+00    0.4452666454E+00
    0.2700000000E+04    0.5176045984E+00    0.2024844634E+00    0.1635738529E-02    0.1216179791E+00    0.4470993413E+00
    0.2900000000E+04    0.5197625008E+00    0.2030945888E+00    0.1580874809E-02    0.1221380210E+00    0.4486996029E+00
    0.3100000000E+04    0.5216556244E+00    0.2036247893E+00    0.1531003633E-02    0.1225951922E+00    0.4501098672E+00
    0.3300000000E+04    0.5233297854E+00    0.2040892478E+00    0.1485417869E-02    0.1230003176E+00    0.4513627762E+00
    0.3500000000E+04    0.5248208137E+00    0.2044990047E+00    0.1443542034E-02    0.1233618687E+00    0.4524838556E+00
    0.3700000000E+04    0.5261571322E+00    0.2048627802E+00    0.1404902617E-02    0.1236865700E+00    0.4534933588E+00
    0.3900000000E+04    0.5273615755E+00    0.2051875516E+00    0.1369106127E-02    0.1239798280E+00    0.4544075652E+00
    0.4100000000E+04    0.5284526990E+00    0.2054789668E+00    0.1335822604E-02    0.1242460389E+00    0.4552397119E+00
    0.4300000000E+04    0.5294457354E+00    0.2057416449E+00    0.1304773079E-02    0.1244888142E+00    0.4560006750E+00
    0.4500000000E+04    0.5303533067E+00    0.2059793998E+00    0.1275719917E-02    0.1247111486E+00    0.4566994751E+00
    0.4700000000E+04    0.5311859601E+00    0.2061954073E+00    0.1248459295E-02    0.1249155460E+00    0.4573436581E+00
    0.4900000000E+04    0.5319525775E+00    0.2063923329E+00    0.1222815275E-02    0.1251041167E+00    0.4579395860E+00
    0.1000000000E+04    0.4693994808E+00    0.1879607685E+00    0.2532542673E-02    0.1101430473E+00    0.4120406692E+00
    0.3000000000E+04    0.5207390255E+00    0.2033687078E+00    0.1555362848E-02    0.1223737251E+00    0.4494262514E+00
    0.5000000000E+04    0.5323135221E+00    0.2064843579E+00    0.1210550959E-02    0.1251930375E+00    0.4582211749E+00
    0.7000000000E+04    0.5374074933E+00    0.2077221118E+00    0.1021822034E-02    0.1264600037E+00    0.4622844760E+00
    0.9000000000E+04    0.5402668687E+00    0.2083427156E+00    0.8988046279E-03    0.1271858206E+00    0.4646735657E+00
    0.1100000000E+05    0.5420944786E+00    0.2086916083E+00    0.8106195023E-03    0.1276591225E+00    0.4662693696E+00
    0.1300000000E+05    0.5433616750E+00    0.2089000291E+00    0.7434842065E-03    0.1279938374E+00    0.4674233228E+00
    0.1500000000E+05    0.5442908677E+00    0.2090280195E+00    0.6902034409E-03    0.1282441043E+00    0.4683042152E+00
    0.1700000000E+05    0.5450006495E+00    0.2091066003E+00    0.6466079042E-03    0.1284389933E+00    0.4690036228E+00
    0.1900000000E+05    0.5455600159E+00    0.2091532411E+00    0.6100940202E-03    0.1285955340E+00    0.4695757326E+00
    0.2100000000E+05    0.5460118250E+00    0.2091784340E+00    0.5789415157E-03    0.1287243776E+00    0.4700547652E+00
    0.2300000000E+05    0.5463840959E+00    0.2091888024E+00    0.5519623834E-03    0.1288325350E+00    0.4704634571E+00
    0.2500000000E+05    0.5466959146E+00    0.2091886963E+00    0.5283064812E-03    0.1289248141E+00    0.4708175427E+00
    0.2700000000E+05    0.5469607281E+00    0.2091810661E+00    0.5073473711E-03    0.1290046254E+00    0.4711282807E+00
    0.2900000000E+05    0.5471882817E+00    0.2091679669E+00    0.4886119939E-03    0.1290744570E+00    0.4714039555E+00
    0.3100000000E+05    0.5473858094E+00    0.2091508618E+00    0.4717355890E-03    0.1291361683E+00    0.4716508089E+00
    0.3300000000E+05    0.5475587929E+00    0.2091308122E+00    0.4564318072E-03    0.1291911775E+00    0.4718736403E+00
    0.3500000000E+05    0.5477114610E+00    0.2091086003E+00    0.4424723172E-03    0.1292405861E+00    0.4720762062E+00
    0.3700000000E+05    0.5478471279E+00    0.2090848102E+00    0.4296725360E-03    0.1292852629E+00    0.4722614923E+00
    0.3900000000E+05    0.5479684272E+00    0.2090598830E+00    0.4178814243E-03    0.1293259029E+00    0.4724319047E+00
    0.4100000000E+05    0.5480774780E+00    0.2090341548E+00    0.4069740458E-03    0.1293630689E+00    0.4725894060E+00
    0.4300000000E+05    0.5481760041E+00    0.2090078841E+00    0.3968460476E-03    0.1293972218E+00    0.4727356147E+00
    0.4500000000E+05    0.5482654223E+00    0.2089812705E+00    0.3874095022E-03    0.1294287429E+00    0.4728718786E+00
    0.4700000000E+05    0.5483469074E+00    0.2089544690E+00    0.3785897307E-03    0.1294579501E+00    0.4729993302E+00
    0.4900000000E+05    0.5484214416E+00    0.2089276008E+00    0.3703228460E-03    0.1294851114E+00    0.4731189288E+00
    0.1000000000E+05    0.5412714777E+00    0.2085404138E+00    0.8514414987E-03    0.1274448281E+00    0.4655423048E+00
    0.3000000000E+05    0.5472904219E+00    0.2091598410E+00    0.4799608792E-03    0.1291062304E+00    0.4715306566E+00
    0.5000000000E+05    0.5484563660E+00    0.2089141720E+00    0.3663792405E-03    0.1294979972E+00    0.4731760439E+00
    0.7000000000E+05    0.5489358600E+00    0.2086563248E+00    0.3064656927E-03    0.1296887915E+00    0.4740537595E+00
    0.9000000000E+05    0.5491906771E+00    0.2084289455E+00    0.2681299063E-03    0.1298072173E+00    0.4746343166E+00
    0.1100000000E+06    0.5493453869E+00    0.2082308241E+00    0.2409615528E-03    0.1298904180E+00    0.4750620067E+00
    0.1300000000E+06    0.5494473075E+00    0.2080566989E+00    0.2204402714E-03    0.1299534214E+00    0.4753980474E+00
    0.1500000000E+06    0.5495182323E+00    0.2079019025E+00    0.2042476487E-03    0.1300035761E+00    0.4756735837E+00
    0.1700000000E+06    0.5495695426E+00    0.2077627997E+00    0.1910571210E-03    0.1300449473E+00    0.4759064393E+00
    0.1900000000E+06    0.5496077362E+00    0.2076366139E+00    0.1800481449E-03    0.1300799885E+00    0.4761076953E+00
    0.2100000000E+06    0.5496367787E+00    0.2075212109E+00    0.1706825999E-03    0.1301102805E+00    0.4762846781E+00
    0.2300000000E+06    0.5496592185E+00    0.2074149279E+00    0.1625911097E-03    0.1301368937E+00    0.4764424676E+00
    0.2500000000E+06    0.5496767633E+00    0.2073164507E+00    0.1555106710E-03    0.1301605836E+00    0.4765847225E+00
    0.2700000000E+06    0.5496905966E+00    0.2072247248E+00    0.1492483064E-03    0.1301819005E+00    0.4767141601E+00
    0.2900000000E+06    0.5497015624E+00    0.2071388928E+00    0.1436588154E-03    0.1302012568E+00    0.4768328511E+00
    0.3100000000E+06    0.5497102770E+00    0.2070582493E+00    0.1386305906E-03    0.1302189686E+00    0.4769424080E+00
    0.3300000000E+06    0.5497172001E+00    0.2069822070E+00    0.1340762579E-03    0.1302352831E+00    0.4770441099E+00
    0.3500000000E+06    0.5497226805E+00    0.2069102724E+00    0.1299263158E-03    0.1302503970E+00    0.4771389876E+00
    0.3700000000E+06    0.5497269870E+00    0.2068420265E+00    0.1261247016E-03    0.1302644689E+00    0.4772278839E+00
    0.3900000000E+06    0.5497303300E+00    0.2067771113E+00    0.1226256299E-03    0.1302776289E+00    0.4773114960E+00
    0.4100000000E+06    0.5497328757E+00    0.2067152181E+00    0.1193912947E-03    0.1302899844E+00    0.4773904070E+00
    0.4300000000E+06    0.5497347571E+00    0.2066560790E+00    0.1163901692E-03    0.1303016253E+00    0.4774651094E+00
    0.4500000000E+06    0.5497360817E+00    0.2065994601E+00    0.1135957274E-03    0.1303126276E+00    0.4775360231E+00
    0.4700000000E+06    0.5497369370E+00    0.2065451559E+00    0.1109854704E-03    0.1303230560E+00    0.4776035084E+00
    0.4900000000E+06    0.5497373950E+00    0.2064929852E+00    0.1085401743E-03    0.1303329659E+00    0.4776678772E+00
    0.1000000000E+06    0.5492766879E+00    0.2083265546E+00    0.2535071611E-03    0.1298520151E+00    0.4748624140E+00
    0.3000000000E+06    0.5497061693E+00    0.2070979617E+00    0.1410804876E-03    0.1302103015E+00    0.4768886847E+00
    0.5000000000E+06    0.5497374940E+00    0.2064676489E+00    0.1073741272E-03    0.1303377417E+00    0.4776989791E+00
    0.7000000000E+06    0.5497287592E+00    0.2060419354E+00    0.8969300458E-04    0.1304148773E+00    0.4782080818E+00
    0.9000000000E+06    0.5497117430E+00    0.2057201746E+00    0.7841118020E-04    0.1304700660E+00    0.4785791200E+00
    0.1100000000E+07    0.5496932075E+00    0.2054614641E+00    0.7042939707E-04    0.1305129933E+00    0.4788708732E+00
    0.1300000000E+07    0.5496750496E+00    0.2052451097E+00    0.6440741455E-04    0.1305481029E+00    0.4791111791E+00
    0.1500000000E+07    0.5496578318E+00    0.2050591811E+00    0.5965966868E-04    0.1305777973E+00    0.4793154122E+00
    0.1700000000E+07    0.5496416828E+00    0.2048961709E+00    0.5579462563E-04    0.1306035207E+00    0.4794929567E+00
    0.1900000000E+07    0.5496265794E+00    0.2047510474E+00    0.5257044391E-04    0.1306262085E+00    0.4796499602E+00
    0.2100000000E+07    0.5496124472E+00    0.2046202727E+00    0.4982869602E-04    0.1306465005E+00    0.4797906678E+00
    0.2300000000E+07    0.5495991985E+00    0.2045012649E+00    0.4746073047E-04    0.1306648539E+00    0.4799181331E+00
    0.2500000000E+07    0.5495867472E+00    0.2043920816E+00    0.4538924181E-04    0.1306816067E+00    0.4800346264E+00
    0.2700000000E+07    0.5495750139E+00    0.2042912249E+00    0.4355754216E-04    0.1306970153E+00    0.4801418806E+00
    0.2900000000E+07    0.5495639278E+00    0.2041975151E+00    0.4192300069E-04    0.1307112793E+00    0.4802412489E+00
    0.3100000000E+07    0.5495534260E+00    0.2041100069E+00    0.4045286419E-04    0.1307245571E+00    0.4803338076E+00
    0.3300000000E+07    0.5495434536E+00    0.2040279308E+00    0.3912150129E-04    0.1307369760E+00    0.4804204271E+00
    0.3500000000E+07    0.5495339623E+00    0.2039506523E+00    0.3790853068E-04    0.1307486405E+00    0.4805018213E+00
    0.3700000000E+07    0.5495249095E+00    0.2038776418E+00    0.3679751696E-04    0.1307596370E+00    0.4805785827E+00
    0.3900000000E+07    0.5495162579E+00    0.2038084528E+00    0.3577504141E-04    0.1307700378E+00    0.4806512086E+00
    0.4100000000E+07    0.5495079745E+00    0.2037427055E+00    0.3483002665E-04    0.1307799041E+00    0.4807201204E+00
    0.4300000000E+07    0.5495000299E+00    0.2036800740E+00    0.3395323716E-04    0.1307892882E+00    0.4807856782E+00
    0.4500000000E+07    0.5494923981E+00    0.2036202766E+00    0.3313690402E-04    0.1307982350E+00    0.4808481924E+00
    0.4700000000E+07    0.5494850559E+00    0.2035630680E+00    0.3237443897E-04    0.1308067836E+00    0.4809079321E+00
    0.4900000000E+07    0.5494779826E+00    0.2035082337E+00    0.3166021369E-04    0.1308149678E+00    0.4809651324E+00
    0.1000000000E+07    0.5497024963E+00    0.2055845161E+00    0.7411382600E-04    0.1304927163E+00    0.4787327540E+00
    0.3000000000E+07    0.5495586075E+00    0.2041530375E+00    0.4116912539E-04    0.1307180329E+00    0.4802883208E+00
    0.5000000000E+07    0.5494745408E+00    0.2034816469E+00    0.3131965141E-04    0.1308189327E+00    0.4809928457E+00
    0.7000000000E+07    0.5494161465E+00    0.2030385857E+00    0.2615699089E-04    0.1308847387E+00    0.4814529017E+00
    0.9000000000E+07    0.5493714432E+00    0.2027074365E+00    0.2286412625E-04    0.1309336626E+00    0.4817948858E+00
    0.1100000000E+08    0.5493352314E+00    0.2024429508E+00    0.2053501401E-04    0.1309726237E+00    0.4820670950E+00
    0.1300000000E+08    0.5493047989E+00    0.2022227554E+00    0.1877806717E-04    0.1310050026E+00    0.4822931838E+00
    0.1500000000E+08    0.5492785540E+00    0.2020341361E+00    0.1739305319E-04    0.1310327062E+00    0.4824865110E+00
    0.1700000000E+08    0.5492554827E+00    0.2018691711E+00    0.1626564647E-04    0.1310569165E+00    0.4826553627E+00
    0.1900000000E+08    0.5492348998E+00    0.2017225893E+00    0.1532524447E-04    0.1310784173E+00    0.4828052334E+00
    0.2100000000E+08    0.5492163204E+00    0.2015907060E+00    0.1452560337E-04    0.1310977548E+00    0.4829399541E+00
    0.2300000000E+08    0.5491993888E+00    0.2014708434E+00    0.1383501252E-04    0.1311153251E+00    0.4830623023E+00
    0.2500000000E+08    0.5491838363E+00    0.2013609949E+00    0.1323091211E-04    0.1311314245E+00    0.4831743560E+00
    0.2700000000E+08    0.5491694549E+00    0.2012596175E+00    0.1269676053E-04    0.1311462806E+00    0.4832777103E+00
