  Pressure (Pa) 22mC5-400 (mol/kg) 3mC6-400 (mol/kg) 33mC5-400 (mol/kg) 23mC5-400 (mol/kg) C7-400 (mol/kg)
    0.1000000000E+01    0.3178461338E-02    0.2113634811E-02    0.6475525998E-04    0.6511208215E-03    0.3429770108E-02
    0.3000000000E+01    0.9428007149E-02    0.6238544119E-02    0.1902697383E-03    0.1931385624E-02    0.1012398480E-01
    0.5000000000E+01    0.1553839439E-01    0.1023239221E-01    0.3106722683E-03    0.3183168579E-02    0.1660650436E-01
    0.7000000000E+01    0.2151424881E-01    0.1410132628E-01    0.4262085653E-03    0.4407416164E-02    0.2288724211E-01
    0.9000000000E+01    0.2735999304E-01    0.1785111504E-01    0.5371098072E-03    0.5605033305E-02    0.2897550147E-01
    0.1100000000E+02    0.3307985760E-01    0.2148717739E-01    0.6435936790E-03    0.6776885627E-02    0.3488002219E-01
    0.1300000000E+02    0.3867789123E-01    0.2501460853E-01    0.7458653284E-03    0.7923801566E-02    0.4060902241E-01
    0.1500000000E+02    0.4415797057E-01    0.2843820379E-01    0.8441182401E-03    0.9046574341E-02    0.4617023696E-01
    0.1700000000E+02    0.4952380913E-01    0.3176248034E-01    0.9385350392E-03    0.1014596381E-01    0.5157095245E-01
    0.1900000000E+02    0.5477896586E-01    0.3499169710E-01    0.1029288228E-02    0.1122269820E-01    0.5681803925E-01
    0.2100000000E+02    0.5992685307E-01    0.3812987293E-01    0.1116540863E-02    0.1227747574E-01    0.6191798079E-01
    0.2300000000E+02    0.6497074389E-01    0.4118080328E-01    0.1200447181E-02    0.1331096619E-01    0.6687690045E-01
    0.2500000000E+02    0.6991377932E-01    0.4414807552E-01    0.1281153172E-02    0.1432381227E-01    0.7170058621E-01
    0.2700000000E+02    0.7475897481E-01    0.4703508303E-01    0.1358797111E-02    0.1531663102E-01    0.7639451332E-01
    0.2900000000E+02    0.7950922649E-01    0.4984503810E-01    0.1433510050E-02    0.1629001506E-01    0.8096386512E-01
    0.3100000000E+02    0.8416731700E-01    0.5258098384E-01    0.1505416267E-02    0.1724453380E-01    0.8541355227E-01
    0.3300000000E+02    0.8873592100E-01    0.5524580524E-01    0.1574633694E-02    0.1818073455E-01    0.8974823045E-01
    0.3500000000E+02    0.9321761034E-01    0.5784223923E-01    0.1641274296E-02    0.1909914359E-01    0.9397231668E-01
    0.3700000000E+02    0.9761485901E-01    0.6037288409E-01    0.1705444441E-02    0.2000026717E-01    0.9809000447E-01
    0.3900000000E+02    0.1019300477E+00    0.6284020815E-01    0.1767245230E-02    0.2088459247E-01    0.1021052777E+00
    0.4100000000E+02    0.1061654681E+00    0.6524655776E-01    0.1826772811E-02    0.2175258846E-01    0.1060219237E+00
    0.4300000000E+02    0.1103233272E+00    0.6759416476E-01    0.1884118669E-02    0.2260470675E-01    0.1098435452E+00
    0.4500000000E+02    0.1144057510E+00    0.6988515337E-01    0.1939369892E-02    0.2344138240E-01    0.1135735711E+00
    0.4700000000E+02    0.1184147883E+00    0.7212154663E-01    0.1992609430E-02    0.2426303468E-01    0.1172152674E+00
    0.4900000000E+02    0.1223524141E+00    0.7430527232E-01    0.2043916323E-02    0.2507006776E-01    0.1207717464E+00
    0.1000000000E+02    0.3023540309E-01    0.1968303627E-01    0.5908908094E-03    0.6194127444E-02    0.3195020377E-01
    0.3000000000E+02    0.8184962226E-01    0.5122207824E-01    0.1469806484E-02    0.1676959788E-01    0.8320337001E-01
    0.5000000000E+02    0.1242950455E+00    0.7537796257E-01    0.2068868712E-02    0.2546822443E-01    0.1225189623E+00
    0.7000000000E+02    0.1598276934E+00    0.9447095931E-01    0.2483008997E-02    0.3275166758E-01    0.1536421095E+00
    0.9000000000E+02    0.1900178734E+00    0.1099412680E+00    0.2771063937E-02    0.3894128883E-01    0.1788986697E+00
    0.1100000000E+03    0.2159924608E+00    0.1227301347E+00    0.2971032882E-02    0.4426771751E-01    0.1998095201E+00
    0.1300000000E+03    0.2385812550E+00    0.1334787070E+00    0.3108269854E-02    0.4890079400E-01    0.2174111809E+00
    0.1500000000E+03    0.2584089554E+00    0.1426388077E+00    0.3200144385E-02    0.5296838822E-01    0.2324344814E+00
    0.1700000000E+03    0.2759549482E+00    0.1505380155E+00    0.3258818860E-02    0.5656863252E-01    0.2454095605E+00
    0.1900000000E+03    0.2915933199E+00    0.1574196262E+00    0.3292967231E-02    0.5977810907E-01    0.2567303624E+00
    0.2100000000E+03    0.3056203272E+00    0.1634681224E+00    0.3308872675E-02    0.6265747104E-01    0.2666957557E+00
    0.2300000000E+03    0.3182736855E+00    0.1688259334E+00    0.3311147575E-02    0.6525538958E-01    0.2755366007E+00
    0.2500000000E+03    0.3297463837E+00    0.1736047729E+00    0.3303216756E-02    0.6761138099E-01    0.2834340642E+00
    0.2700000000E+03    0.3401967577E+00    0.1778934955E+00    0.3287648357E-02    0.6975786826E-01    0.2905323171E+00
    0.2900000000E+03    0.3497559548E+00    0.1817636598E+00    0.3266384394E-02    0.7172170862E-01    0.2969475258E+00
    0.3100000000E+03    0.3585335438E+00    0.1852735419E+00    0.3240903940E-02    0.7352534189E-01    0.3027743427E+00
    0.3300000000E+03    0.3666217893E+00    0.1884710805E+00    0.3212340232E-02    0.7518766526E-01    0.3080906702E+00
    0.3500000000E+03    0.3740989470E+00    0.1913960720E+00    0.3181565761E-02    0.7672470769E-01    0.3129612122E+00
    0.3700000000E+03    0.3810318310E+00    0.1940818290E+00    0.3149254808E-02    0.7815015560E-01    0.3174401581E+00
    0.3900000000E+03    0.3874778365E+00    0.1965564488E+00    0.3115929865E-02    0.7947576679E-01    0.3215732373E+00
    0.4100000000E+03    0.3934865469E+00    0.1988437962E+00    0.3081996415E-02    0.8071169939E-01    0.3253993099E+00
    0.4300000000E+03    0.3991010214E+00    0.2009642709E+00    0.3047769224E-02    0.8186677560E-01    0.3289516112E+00
    0.4500000000E+03    0.4043588368E+00    0.2029354150E+00    0.3013492350E-02    0.8294869481E-01    0.3322587346E+00
    0.4700000000E+03    0.4092929340E+00    0.2047723960E+00    0.2979354503E-02    0.8396420705E-01    0.3353454162E+00
    0.4900000000E+03    0.4139323136E+00    0.2064883956E+00    0.2945500884E-02    0.8491925527E-01    0.3382331641E+00
    0.1000000000E+03    0.2034745663E+00    0.1166253683E+00    0.2880244773E-02    0.4170062341E-01    0.1898237413E+00
    0.3000000000E+03    0.3542363209E+00    0.1835604265E+00    0.3254093422E-02    0.7264229577E-01    0.2999292683E+00
    0.5000000000E+03    0.4161496125E+00    0.2073046823E+00    0.2928716450E-02    0.8537577116E-01    0.3396084043E+00
    0.7000000000E+03    0.4499072039E+00    0.2194276795E+00    0.2623372259E-02    0.9233284868E-01    0.3601804970E+00
    0.9000000000E+03    0.4711513704E+00    0.2267629963E+00    0.2380129504E-02    0.9671998156E-01    0.3728187345E+00
    0.1100000000E+04    0.4857468781E+00    0.2316665893E+00    0.2187145919E-02    0.9974023116E-01    0.3813960477E+00
    0.1300000000E+04    0.4963894973E+00    0.2351676631E+00    0.2031191664E-02    0.1019469795E+00    0.3876132245E+00
    0.1500000000E+04    0.5044916949E+00    0.2377871587E+00    0.1902538170E-02    0.1036303761E+00    0.3923355889E+00
    0.1700000000E+04    0.5108649421E+00    0.2398169094E+00    0.1794403214E-02    0.1049572284E+00    0.3960503841E+00
    0.1900000000E+04    0.5160085546E+00    0.2414330452E+00    0.1702034634E-02    0.1060302471E+00    0.3990531740E+00
    0.2100000000E+04    0.5202465782E+00    0.2427481187E+00    0.1622038165E-02    0.1069161348E+00    0.4015337918E+00
    0.2300000000E+04    0.5237984628E+00    0.2438373896E+00    0.1551935429E-02    0.1076600946E+00    0.4036198136E+00
    0.2500000000E+04    0.5268180978E+00    0.2447530695E+00    0.1489877633E-02    0.1082938467E+00    0.4054001926E+00
    0.2700000000E+04    0.5294165841E+00    0.2455325050E+00    0.1434458148E-02    0.1088403073E+00    0.4069388765E+00
    0.2900000000E+04    0.5316761334E+00    0.2462031068E+00    0.1384587502E-02    0.1093164451E+00    0.4082830364E+00
    0.3100000000E+04    0.5336588812E+00    0.2467854419E+00    0.1339408252E-02    0.1097350939E+00    0.4094682436E+00
    0.3300000000E+04    0.5354126600E+00    0.2472952386E+00    0.1298235827E-02    0.1101061399E+00    0.4105218377E+00
    0.3500000000E+04    0.5369748896E+00    0.2477447274E+00    0.1260516587E-02    0.1104373223E+00    0.4114651844E+00
    0.3700000000E+04    0.5383752625E+00    0.2481435590E+00    0.1225797572E-02    0.1107347865E+00    0.4123152276E+00
    0.3900000000E+04    0.5396376405E+00    0.2484994484E+00    0.1193704294E-02    0.1110034744E+00    0.4130855806E+00
    0.4100000000E+04    0.5407814180E+00    0.2488186357E+00    0.1163924198E-02    0.1112474051E+00    0.4137873091E+00
    0.4300000000E+04    0.5418225203E+00    0.2491062209E+00    0.1136194163E-02    0.1114698816E+00    0.4144295023E+00
    0.4500000000E+04    0.5427741458E+00    0.2493664119E+00    0.1110290937E-02    0.1116736426E+00    0.4150196976E+00
    0.4700000000E+04    0.5436473256E+00    0.2496027106E+00    0.1086023726E-02    0.1118609790E+00    0.4155641987E+00
    0.4900000000E+04    0.5444513503E+00    0.2498180545E+00    0.1063228395E-02    0.1120338215E+00    0.4160683200E+00
    0.1000000000E+04    0.4790689076E+00    0.2294372066E+00    0.2278260068E-02    0.9835760016E-01    0.3774804308E+00
    0.3000000000E+04    0.5326988355E+00    0.2465042295E+00    0.1361457730E-02    0.1095322795E+00    0.4088936382E+00
    0.5000000000E+04    0.5448299399E+00    0.2499186593E+00    0.1052337535E-02    0.1121153295E+00    0.4163066753E+00
    0.7000000000E+04    0.5501754330E+00    0.2512698286E+00    0.8855951601E-03    0.1132769440E+00    0.4197597841E+00
    0.9000000000E+04    0.5531785379E+00    0.2519453773E+00    0.7776918085E-03    0.1139426280E+00    0.4218073923E+00
    0.1100000000E+05    0.5550993786E+00    0.2523241188E+00    0.7006724875E-03    0.1143768019E+00    0.4231862992E+00
    0.1300000000E+05    0.5564320792E+00    0.2525496641E+00    0.6422032453E-03    0.1146838852E+00    0.4241911176E+00
    0.1500000000E+05    0.5574099027E+00    0.2526876151E+00    0.5958925295E-03    0.1149135128E+00    0.4249637318E+00
    0.1700000000E+05    0.5581572755E+00    0.2527718248E+00    0.5580558647E-03    0.1150923417E+00    0.4255813440E+00
    0.1900000000E+05    0.5587466096E+00    0.2528213382E+00    0.5264011824E-03    0.1152359902E+00    0.4260897711E+00
    0.2100000000E+05    0.5592228981E+00    0.2528475830E+00    0.4994184546E-03    0.1153542278E+00    0.4265180343E+00
    0.2300000000E+05    0.5596155634E+00    0.2528577670E+00    0.4760672752E-03    0.1154534855E+00    0.4268854724E+00
    0.2500000000E+05    0.5599446524E+00    0.2528566202E+00    0.4556045173E-03    0.1155381741E+00    0.4272055077E+00
    0.2700000000E+05    0.5602242920E+00    0.2528473481E+00    0.4374834434E-03    0.1156114223E+00    0.4274877721E+00
    0.2900000000E+05    0.5604647230E+00    0.2528321814E+00    0.4212917143E-03    0.1156755130E+00    0.4277393729E+00
    0.3100000000E+05    0.5606735483E+00    0.2528127072E+00    0.4067117381E-03    0.1157321520E+00    0.4279656799E+00
    0.3300000000E+05    0.5608565307E+00    0.2527900758E+00    0.3934944300E-03    0.1157826407E+00    0.4281708334E+00
    0.3500000000E+05    0.5610181167E+00    0.2527651339E+00    0.3814413355E-03    0.1158279898E+00    0.4283580822E+00
    0.3700000000E+05    0.5611617917E+00    0.2527385132E+00    0.3703921389E-03    0.1158689964E+00    0.4285300157E+00
    0.3900000000E+05    0.5612903259E+00    0.2527106903E+00    0.3602157413E-03    0.1159062984E+00    0.4286887254E+00
    0.4100000000E+05    0.5614059488E+00    0.2526820280E+00    0.3508037616E-03    0.1159404121E+00    0.4288359220E+00
    0.4300000000E+05    0.5615104745E+00    0.2526528048E+00    0.3420657198E-03    0.1159717605E+00    0.4289730193E+00
    0.4500000000E+05    0.5616053940E+00    0.2526232354E+00    0.3339254119E-03    0.1160006935E+00    0.4291011977E+00
    0.4700000000E+05    0.5616919441E+00    0.2525934866E+00    0.3263181425E-03    0.1160275029E+00    0.4292214513E+00
    0.4900000000E+05    0.5617711590E+00    0.2525636881E+00    0.3191885857E-03    0.1160524346E+00    0.4293346240E+00
    0.1000000000E+05    0.5542342361E+00    0.2521601220E+00    0.7362935445E-03    0.1141802152E+00    0.4225567058E+00
    0.3000000000E+05    0.5605726902E+00    0.2528229025E+00    0.4138171891E-03    0.1157046747E+00    0.4278554052E+00
    0.5000000000E+05    0.5618082936E+00    0.2525488028E+00    0.3157878029E-03    0.1160642626E+00    0.4293887848E+00
    0.7000000000E+05    0.5623196138E+00    0.2522636463E+00    0.2641406366E-03    0.1162394020E+00    0.4302309950E+00
    0.9000000000E+05    0.5625931568E+00    0.2520127646E+00    0.2311098302E-03    0.1163481167E+00    0.4307990535E+00
    0.1100000000E+06    0.5627604355E+00    0.2517943953E+00    0.2077063814E-03    0.1164244977E+00    0.4312234989E+00
    0.1300000000E+06    0.5628715051E+00    0.2516025881E+00    0.1900309147E-03    0.1164823386E+00    0.4315606071E+00
    0.1500000000E+06    0.5629494654E+00    0.2514321358E+00    0.1760846399E-03    0.1165283847E+00    0.4318393862E+00
    0.1700000000E+06    0.5630064044E+00    0.2512790023E+00    0.1647242894E-03    0.1165663675E+00    0.4320766210E+00
    0.1900000000E+06    0.5630492375E+00    0.2511401129E+00    0.1552428699E-03    0.1165985394E+00    0.4322828455E+00
    0.2100000000E+06    0.5630821939E+00    0.2510131077E+00    0.1471768077E-03    0.1166263513E+00    0.4324650818E+00
    0.2300000000E+06    0.5631079975E+00    0.2508961503E+00    0.1402079366E-03    0.1166507860E+00    0.4326282343E+00
    0.2500000000E+06    0.5631284774E+00    0.2507877901E+00    0.1341097366E-03    0.1166725369E+00    0.4327758575E+00
    0.2700000000E+06    0.5631449041E+00    0.2506868639E+00    0.1287160109E-03    0.1166921092E+00    0.4329106067E+00
    0.2900000000E+06    0.5631581858E+00    0.2505924266E+00    0.1239017161E-03    0.1167098816E+00    0.4330345159E+00
    0.3100000000E+06    0.5631689875E+00    0.2505037004E+00    0.1195707417E-03    0.1167261441E+00    0.4331491763E+00
    0.3300000000E+06    0.5631778060E+00    0.2504200385E+00    0.1156478478E-03    0.1167411238E+00    0.4332558554E+00
    0.3500000000E+06    0.5631850196E+00    0.2503408969E+00    0.1120731867E-03    0.1167550012E+00    0.4333555790E+00
    0.3700000000E+06    0.5631909204E+00    0.2502658145E+00    0.1087984829E-03    0.1167679220E+00    0.4334491883E+00
    0.3900000000E+06    0.5631957375E+00    0.2501943969E+00    0.1057843116E-03    0.1167800055E+00    0.4335373816E+00
    0.4100000000E+06    0.5631996528E+00    0.2501263042E+00    0.1029981188E-03    0.1167913504E+00    0.4336207451E+00
    0.4300000000E+06    0.5632028119E+00    0.2500612415E+00    0.1004127575E-03    0.1168020393E+00    0.4336997750E+00
    0.4500000000E+06    0.5632053330E+00    0.2499989514E+00    0.9800538687E-04    0.1168121418E+00    0.4337748953E+00
    0.4700000000E+06    0.5632073127E+00    0.2499392077E+00    0.9575663361E-04    0.1168217173E+00    0.4338464712E+00
    0.4900000000E+06    0.5632088304E+00    0.2498818109E+00    0.9364994433E-04    0.1168308168E+00    0.4339148190E+00
    0.1000000000E+06    0.5626860006E+00    0.2518998890E+00    0.2185130114E-03    0.1163892422E+00    0.4310247809E+00
    0.3000000000E+06    0.5631638624E+00    0.2505473927E+00    0.1216809314E-03    0.1167181861E+00    0.4330929165E+00
    0.5000000000E+06    0.5632094372E+00    0.2498539365E+00    0.9264534504E-04    0.1168352020E+00    0.4339478701E+00
    0.7000000000E+06    0.5632086498E+00    0.2493855562E+00    0.7741067046E-04    0.1169060312E+00    0.4344911729E+00
    0.9000000000E+06    0.5631970556E+00    0.2490315090E+00    0.6768792692E-04    0.1169567091E+00    0.4348895647E+00
    0.1100000000E+07    0.5631826070E+00    0.2487468058E+00    0.6080804574E-04    0.1169961285E+00    0.4352040531E+00
    0.1300000000E+07    0.5631677178E+00    0.2485086879E+00    0.5561668373E-04    0.1170283693E+00    0.4354637982E+00
    0.1500000000E+07    0.5631532186E+00    0.2483040351E+00    0.5152330354E-04    0.1170556377E+00    0.4356850072E+00
    0.1700000000E+07    0.5631393941E+00    0.2481245916E+00    0.4819060862E-04    0.1170792598E+00    0.4358776191E+00
    0.1900000000E+07    0.5631263195E+00    0.2479648236E+00    0.4541023964E-04    0.1171000943E+00    0.4360481682E+00
    0.2100000000E+07    0.5631139863E+00    0.2478208405E+00    0.4304569152E-04    0.1171187289E+00    0.4362011798E+00
    0.2300000000E+07    0.5631023532E+00    0.2476898026E+00    0.4100334022E-04    0.1171355833E+00    0.4363399173E+00
    0.2500000000E+07    0.5630913676E+00    0.2475695736E+00    0.3921656762E-04    0.1171509677E+00    0.4364668114E+00
    0.2700000000E+07    0.5630809754E+00    0.2474585059E+00    0.3763651959E-04    0.1171651179E+00    0.4365837208E+00
    0.2900000000E+07    0.5630711251E+00    0.2473553022E+00    0.3622645424E-04    0.1171782171E+00    0.4366920989E+00
    0.3100000000E+07    0.5630617691E+00    0.2472589224E+00    0.3495814120E-04    0.1171904105E+00    0.4367931036E+00
    0.3300000000E+07    0.5630528646E+00    0.2471685202E+00    0.3380948728E-04    0.1172018153E+00    0.4368876722E+00
    0.3500000000E+07    0.5630443732E+00    0.2470833976E+00    0.3276292374E-04    0.1172125273E+00    0.4369765739E+00
    0.3700000000E+07    0.5630362603E+00    0.2470029720E+00    0.3180428255E-04    0.1172226258E+00    0.4370604482E+00
    0.3900000000E+07    0.5630284955E+00    0.2469267522E+00    0.3092199563E-04    0.1172321773E+00    0.4371398320E+00
    0.4100000000E+07    0.5630210513E+00    0.2468543204E+00    0.3010651293E-04    0.1172412380E+00    0.4372151806E+00
    0.4300000000E+07    0.5630139033E+00    0.2467853180E+00    0.2934987196E-04    0.1172498558E+00    0.4372868836E+00
    0.4500000000E+07    0.5630070296E+00    0.2467194351E+00    0.2864537443E-04    0.1172580722E+00    0.4373552767E+00
    0.4700000000E+07    0.5630004104E+00    0.2466564018E+00    0.2798733976E-04    0.1172659227E+00    0.4374206514E+00
    0.4900000000E+07    0.5629940280E+00    0.2465959820E+00    0.2737091491E-04    0.1172734386E+00    0.4374832623E+00
    0.1000000000E+07    0.5631899785E+00    0.2488822249E+00    0.6398395968E-04    0.1169775084E+00    0.4350550460E+00
    0.3000000000E+07    0.5630663881E+00    0.2473063161E+00    0.3557608153E-04    0.1171844191E+00    0.4367434599E+00
    0.5000000000E+07    0.5629909206E+00    0.2465666862E+00    0.2707697862E-04    0.1172770798E+00    0.4375136022E+00
    0.7000000000E+07    0.5629380433E+00    0.2460783943E+00    0.2262045619E-04    0.1173375130E+00    0.4380177241E+00
    0.9000000000E+07    0.5628974079E+00    0.2457133314E+00    0.1977724193E-04    0.1173824427E+00    0.4383929725E+00
    0.1100000000E+08    0.5628644192E+00    0.2454216912E+00    0.1776577259E-04    0.1174182230E+00    0.4386919292E+00
    0.1300000000E+08    0.5628366561E+00    0.2451788419E+00    0.1624818843E-04    0.1174479586E+00    0.4389403983E+00
    0.1500000000E+08    0.5628126893E+00    0.2449707831E+00    0.1505170017E-04    0.1174734006E+00    0.4391529724E+00
    0.1700000000E+08    0.5627916051E+00    0.2447887902E+00    0.1407763737E-04    0.1174956345E+00    0.4393387120E+00
    0.1900000000E+08    0.5627727841E+00    0.2446270577E+00    0.1326505798E-04    0.1175153799E+00    0.4395036296E+00
    0.2100000000E+08    0.5627557873E+00    0.2444815261E+00    0.1257404145E-04    0.1175331387E+00    0.4396519204E+00
    0.2300000000E+08    0.5627402922E+00    0.2443492456E+00    0.1197721054E-04    0.1175492746E+00    0.4397866273E+00
    0.2500000000E+08    0.5627260546E+00    0.2442280050E+00    0.1145508666E-04    0.1175640596E+00    0.4399100279E+00
    0.2700000000E+08    0.5627128858E+00    0.2441161043E+00    0.1099338637E-04    0.1175777029E+00    0.4400238713E+00
