  Pressure (Pa) 22mC5-400 (mol/kg) 3mC6-400 (mol/kg) 33mC5-400 (mol/kg) 23mC5-400 (mol/kg) C7-400 (mol/kg)
    0.1000000000E+01    0.3180854377E-02    0.1562789390E-02    0.1280915455E-03    0.9308722588E-04    0.1352584890E-01
    0.3000000000E+01    0.9449102198E-02    0.4488679029E-02    0.3685945588E-03    0.2765289952E-03    0.3885747904E-01
    0.5000000000E+01    0.1559580128E-01    0.7175469698E-02    0.5902417891E-03    0.4564168038E-03    0.6212920730E-01
    0.7000000000E+01    0.2162450470E-01    0.9651276908E-02    0.7951564780E-03    0.6328545101E-03    0.8358286105E-01
    0.9000000000E+01    0.2753862785E-01    0.1193997577E-01    0.9851419081E-03    0.8059419487E-03    0.1034238245E+00
    0.1100000000E+02    0.3334145505E-01    0.1406197125E-01    0.1161740164E-02    0.9757751232E-03    0.1218276553E+00
    0.1300000000E+02    0.3903614576E-01    0.1603480640E-01    0.1326278402E-02    0.1142446388E-02    0.1389453097E+00
    0.1500000000E+02    0.4462574048E-01    0.1787364705E-01    0.1479905615E-02    0.1306044621E-02    0.1549073070E+00
    0.1700000000E+02    0.5011316625E-01    0.1959167119E-01    0.1623622091E-02    0.1466655384E-02    0.1698270751E+00
    0.1900000000E+02    0.5550124191E-01    0.2120038428E-01    0.1758303197E-02    0.1624361075E-02    0.1838036602E+00
    0.2100000000E+02    0.6079268306E-01    0.2270987640E-01    0.1884718727E-02    0.1779241077E-02    0.1969239363E+00
    0.2300000000E+02    0.6599010674E-01    0.2412903333E-01    0.2003548748E-02    0.1931371890E-02    0.2092644198E+00
    0.2500000000E+02    0.7109603582E-01    0.2546571104E-01    0.2115396657E-02    0.2080827264E-02    0.2208927687E+00
    0.2700000000E+02    0.7611290325E-01    0.2672688058E-01    0.2220800012E-02    0.2227678319E-02    0.2318690292E+00
    0.2900000000E+02    0.8104305601E-01    0.2791874932E-01    0.2320239555E-02    0.2371993662E-02    0.2422466762E+00
    0.3100000000E+02    0.8588875884E-01    0.2904686266E-01    0.2414146788E-02    0.2513839498E-02    0.2520734895E+00
    0.3300000000E+02    0.9065219788E-01    0.3011619000E-01    0.2502910346E-02    0.2653279734E-02    0.2613922920E+00
    0.3500000000E+02    0.9533548399E-01    0.3113119758E-01    0.2586881400E-02    0.2790376076E-02    0.2702415763E+00
    0.3700000000E+02    0.9994065598E-01    0.3209591065E-01    0.2666378248E-02    0.2925188126E-02    0.2786560393E+00
    0.3900000000E+02    0.1044696837E+00    0.3301396650E-01    0.2741690239E-02    0.3057773466E-02    0.2866670383E+00
    0.4100000000E+02    0.1089244708E+00    0.3388866013E-01    0.2813081138E-02    0.3188187751E-02    0.2943029840E+00
    0.4300000000E+02    0.1133068577E+00    0.3472298359E-01    0.2880792023E-02    0.3316484779E-02    0.3015896783E+00
    0.4500000000E+02    0.1176186240E+00    0.3551965996E-01    0.2945043791E-02    0.3442716577E-02    0.3085506076E+00
    0.4700000000E+02    0.1218614911E+00    0.3628117298E-01    0.3006039332E-02    0.3566933467E-02    0.3152071967E+00
    0.4900000000E+02    0.1260371244E+00    0.3700979270E-01    0.3063965417E-02    0.3689184138E-02    0.3215790301E+00
    0.1000000000E+02    0.3045375312E-01    0.1302065412E-01    0.1075026919E-02    0.8912594633E-03    0.1127954234E+00
    0.3000000000E+02    0.8347632523E-01    0.2849045224E-01    0.2367859483E-02    0.2443221221E-02    0.2472261523E+00
    0.5000000000E+02    0.1281002342E+00    0.3736242414E-01    0.3091831785E-02    0.3749586926E-02    0.3246638286E+00
    0.7000000000E+02    0.1661987203E+00    0.4311016998E-01    0.3523563579E-02    0.4865117835E-02    0.3750526416E+00
    0.9000000000E+02    0.1991236921E+00    0.4713353224E-01    0.3783004391E-02    0.5829337153E-02    0.4104784425E+00
    0.1100000000E+03    0.2278754783E+00    0.5010504521E-01    0.3932805458E-02    0.6671491267E-02    0.4367565257E+00
    0.1300000000E+03    0.2532103497E+00    0.5238793176E-01    0.4009630386E-02    0.7413692342E-02    0.4570323717E+00
    0.1500000000E+03    0.2757108641E+00    0.5419555925E-01    0.4036561982E-02    0.8072974421E-02    0.4731565129E+00
    0.1700000000E+03    0.2958332010E+00    0.5566147932E-01    0.4028863752E-02    0.8662676975E-02    0.4862889858E+00
    0.1900000000E+03    0.3139398053E+00    0.5687354698E-01    0.3996979608E-02    0.9193399119E-02    0.4971940504E+00
    0.2100000000E+03    0.3303223969E+00    0.5789191821E-01    0.3948232833E-02    0.9673672208E-02    0.5063957948E+00
    0.2300000000E+03    0.3452185068E+00    0.5875916389E-01    0.3887850938E-02    0.1011044323E-01    0.5142656579E+00
    0.2500000000E+03    0.3588235699E+00    0.5950625455E-01    0.3819614226E-02    0.1050942833E-01    0.5210742665E+00
    0.2700000000E+03    0.3712999086E+00    0.6015625728E-01    0.3746281780E-02    0.1087537545E-01    0.5270234857E+00
    0.2900000000E+03    0.3827835034E+00    0.6072670385E-01    0.3669879585E-02    0.1121226222E-01    0.5322669673E+00
    0.3100000000E+03    0.3933891604E+00    0.6123115582E-01    0.3591900060E-02    0.1152344711E-01    0.5369237437E+00
    0.3300000000E+03    0.4032145042E+00    0.6168026715E-01    0.3513442926E-02    0.1181178613E-01    0.5410874644E+00
    0.3500000000E+03    0.4123430965E+00    0.6208252302E-01    0.3435316265E-02    0.1207972402E-01    0.5448328251E+00
    0.3700000000E+03    0.4208468958E+00    0.6244476436E-01    0.3358110007E-02    0.1232936615E-01    0.5482201355E+00
    0.3900000000E+03    0.4287882160E+00    0.6277256722E-01    0.3282249968E-02    0.1256253583E-01    0.5512986263E+00
    0.4100000000E+03    0.4362213001E+00    0.6307052187E-01    0.3208037990E-02    0.1278082031E-01    0.5541088837E+00
    0.4300000000E+03    0.4431935929E+00    0.6334244105E-01    0.3135682000E-02    0.1298560798E-01    0.5566846683E+00
    0.4500000000E+03    0.4497467805E+00    0.6359151768E-01    0.3065318683E-02    0.1317811878E-01    0.5590542939E+00
    0.4700000000E+03    0.4559176421E+00    0.6382044569E-01    0.2997030685E-02    0.1335942912E-01    0.5612416837E+00
    0.4900000000E+03    0.4617387563E+00    0.6403151366E-01    0.2930859746E-02    0.1353049252E-01    0.5632671911E+00
    0.1000000000E+03    0.2139692095E+00    0.4872333642E-01    0.3868902525E-02    0.6264151294E-02    0.4245234832E+00
    0.3000000000E+03    0.3881896101E+00    0.6098645506E-01    0.3631010396E-02    0.1137087830E-01    0.5346623319E+00
    0.5000000000E+03    0.4645273362E+00    0.6413097285E-01    0.2898572556E-02    0.1361245027E-01    0.5642247839E+00
    0.7000000000E+03    0.5075129396E+00    0.6553539116E-01    0.2357453755E-02    0.1487686227E-01    0.5780291567E+00
    0.9000000000E+03    0.5350887777E+00    0.6631537147E-01    0.1975365397E-02    0.1568939312E-01    0.5860498474E+00
    0.1100000000E+04    0.5542748738E+00    0.6680320966E-01    0.1698797266E-02    0.1625568518E-01    0.5913042977E+00
    0.1300000000E+04    0.5683893042E+00    0.6713205435E-01    0.1491989923E-02    0.1667299493E-01    0.5950197689E+00
    0.1500000000E+04    0.5792050604E+00    0.6736539142E-01    0.1332620261E-02    0.1699332117E-01    0.5977900827E+00
    0.1700000000E+04    0.5877555898E+00    0.6753721095E-01    0.1206563662E-02    0.1724699077E-01    0.5999378458E+00
    0.1900000000E+04    0.5946838624E+00    0.6766729120E-01    0.1104615983E-02    0.1745288281E-01    0.6016535395E+00
    0.2100000000E+04    0.6004107890E+00    0.6776788789E-01    0.1020589223E-02    0.1762336333E-01    0.6030569392E+00
    0.2300000000E+04    0.6052234100E+00    0.6784697889E-01    0.9501995917E-03    0.1776687021E-01    0.6042271707E+00
    0.2500000000E+04    0.6093241626E+00    0.6790996749E-01    0.8904021670E-03    0.1788935773E-01    0.6052186265E+00
    0.2700000000E+04    0.6128598905E+00    0.6796063474E-01    0.8389810499E-03    0.1799514748E-01    0.6060699429E+00
    0.2900000000E+04    0.6159396884E+00    0.6800169973E-01    0.7942895429E-03    0.1808745192E-01    0.6068093278E+00
    0.3100000000E+04    0.6186462910E+00    0.6803516386E-01    0.7550809231E-03    0.1816870873E-01    0.6074578631E+00
    0.3300000000E+04    0.6210435758E+00    0.6806252997E-01    0.7203954529E-03    0.1824080103E-01    0.6080316251E+00
    0.3500000000E+04    0.6231816418E+00    0.6808494628E-01    0.6894832141E-03    0.1830520660E-01    0.6085430895E+00
    0.3700000000E+04    0.6251003324E+00    0.6810330353E-01    0.6617503152E-03    0.1836310139E-01    0.6090020886E+00
    0.3900000000E+04    0.6268317301E+00    0.6811830210E-01    0.6367206842E-03    0.1841543281E-01    0.6094164772E+00
    0.4100000000E+04    0.6284019572E+00    0.6813049929E-01    0.6140084672E-03    0.1846297273E-01    0.6097926076E+00
    0.4300000000E+04    0.6298324974E+00    0.6814034333E-01    0.5932977773E-03    0.1850635630E-01    0.6101356729E+00
    0.4500000000E+04    0.6311411814E+00    0.6814819825E-01    0.5743276229E-03    0.1854611098E-01    0.6104499610E+00
    0.4700000000E+04    0.6323429310E+00    0.6815436224E-01    0.5568805448E-03    0.1858267843E-01    0.6107390439E+00
    0.4900000000E+04    0.6334503287E+00    0.6815908155E-01    0.5407739460E-03    0.1861643129E-01    0.6110059217E+00
    0.1000000000E+04    0.5454720808E+00    0.6658506576E-01    0.1826515962E-02    0.1599574442E-01    0.5889242214E+00
    0.3000000000E+04    0.6173352736E+00    0.6801927826E-01    0.7740655394E-03    0.1812933261E-01    0.6071438487E+00
    0.5000000000E+04    0.6339720487E+00    0.6816096483E-01    0.5331741192E-03    0.1863235308E-01    0.6111318424E+00
    0.7000000000E+04    0.6413601132E+00    0.6815801352E-01    0.4241664031E-03    0.1885959465E-01    0.6129354230E+00
    0.9000000000E+04    0.6455328586E+00    0.6812091327E-01    0.3604158172E-03    0.1899009653E-01    0.6139837126E+00
    0.1100000000E+05    0.6482138385E+00    0.6807471482E-01    0.3178065503E-03    0.1907532379E-01    0.6146785967E+00
    0.1300000000E+05    0.6500816133E+00    0.6802708339E-01    0.2869136974E-03    0.1913565920E-01    0.6151782684E+00
    0.1500000000E+05    0.6514574175E+00    0.6798067447E-01    0.2632606079E-03    0.1918080846E-01    0.6155580321E+00
    0.1700000000E+05    0.6525129884E+00    0.6793640520E-01    0.2444311834E-03    0.1921599024E-01    0.6158584785E+00
    0.1900000000E+05    0.6533484645E+00    0.6789452326E-01    0.2289980277E-03    0.1924426482E-01    0.6161035039E+00
    0.2100000000E+05    0.6540261748E+00    0.6785500650E-01    0.2160590458E-03    0.1926754776E-01    0.6163081379E+00
    0.2300000000E+05    0.6545869438E+00    0.6781772587E-01    0.2050135743E-03    0.1928710071E-01    0.6164823317E+00
    0.2500000000E+05    0.6550586293E+00    0.6778251571E-01    0.1954446650E-03    0.1930378940E-01    0.6166329518E+00
    0.2700000000E+05    0.6554608916E+00    0.6774920452E-01    0.1870529038E-03    0.1931822816E-01    0.6167648988E+00
    0.2900000000E+05    0.6558080022E+00    0.6771762839E-01    0.1796171281E-03    0.1933086538E-01    0.6168817705E+00
    0.3100000000E+05    0.6561105715E+00    0.6768763618E-01    0.1729700413E-03    0.1934203626E-01    0.6169862721E+00
    0.3300000000E+05    0.6563766524E+00    0.6765909102E-01    0.1669824906E-03    0.1935199655E-01    0.6170804800E+00
    0.3500000000E+05    0.6566124669E+00    0.6763187008E-01    0.1615529997E-03    0.1936094493E-01    0.6171660165E+00
    0.3700000000E+05    0.6568228982E+00    0.6760586355E-01    0.1566006031E-03    0.1936903817E-01    0.6172441691E+00
    0.3900000000E+05    0.6570118330E+00    0.6758097340E-01    0.1520598201E-03    0.1937640171E-01    0.6173159740E+00
    0.4100000000E+05    0.6571824028E+00    0.6755711206E-01    0.1478770532E-03    0.1938313713E-01    0.6173822751E+00
    0.4300000000E+05    0.6573371591E+00    0.6753420120E-01    0.1440079583E-03    0.1938932767E-01    0.6174437676E+00
    0.4500000000E+05    0.6574782017E+00    0.6751217064E-01    0.1404154921E-03    0.1939504216E-01    0.6175010298E+00
    0.4700000000E+05    0.6576072744E+00    0.6749095730E-01    0.1370684389E-03    0.1940033807E-01    0.6175545470E+00
    0.4900000000E+05    0.6577258373E+00    0.6747050440E-01    0.1339402854E-03    0.1940526377E-01    0.6176047300E+00
    0.1000000000E+05    0.6470049268E+00    0.6809828684E-01    0.3372309255E-03    0.1903672315E-01    0.6143625468E+00
    0.3000000000E+05    0.6559643012E+00    0.6770244319E-01    0.1762038222E-03    0.1933661657E-01    0.6169354255E+00
    0.5000000000E+05    0.6577815703E+00    0.6746054689E-01    0.1324510779E-03    0.1940760086E-01    0.6176286826E+00
    0.7000000000E+05    0.6585622508E+00    0.6729117054E-01    0.1100511379E-03    0.1944222618E-01    0.6179957583E+00
    0.9000000000E+05    0.6589960173E+00    0.6716111556E-01    0.9591782499E-04    0.1946373837E-01    0.6182375345E+00
    0.1100000000E+06    0.6592718198E+00    0.6705562036E-01    0.8598336261E-04    0.1947886107E-01    0.6184151590E+00
    0.1300000000E+06    0.6594624957E+00    0.6696690404E-01    0.7851994625E-04    0.1949031732E-01    0.6185544508E+00
    0.1500000000E+06    0.6596020804E+00    0.6689037280E-01    0.7265345821E-04    0.1949943973E-01    0.6186684995E+00
    0.1700000000E+06    0.6597086070E+00    0.6682309045E-01    0.6788841289E-04    0.1950696593E-01    0.6187647762E+00
    0.1900000000E+06    0.6597925206E+00    0.6676306711E-01    0.6392042440E-04    0.1951334139E-01    0.6188479155E+00
    0.2100000000E+06    0.6598602890E+00    0.6670889225E-01    0.6055091821E-04    0.1951885318E-01    0.6189209761E+00
    0.2300000000E+06    0.6599161306E+00    0.6665952977E-01    0.5764415316E-04    0.1952369583E-01    0.6189860760E+00
    0.2500000000E+06    0.6599629139E+00    0.6661419633E-01    0.5510380390E-04    0.1952800662E-01    0.6190447383E+00
    0.2700000000E+06    0.6600026572E+00    0.6657228532E-01    0.5285938899E-04    0.1953188561E-01    0.6190980933E+00
    0.2900000000E+06    0.6600368217E+00    0.6653331746E-01    0.5085800134E-04    0.1953540779E-01    0.6191470013E+00
    0.3100000000E+06    0.6600664911E+00    0.6649690748E-01    0.4905905600E-04    0.1953863066E-01    0.6191921318E+00
    0.3300000000E+06    0.6600924863E+00    0.6646274107E-01    0.4743083551E-04    0.1954159918E-01    0.6192340153E+00
    0.3500000000E+06    0.6601154402E+00    0.6643055846E-01    0.4594814879E-04    0.1954434914E-01    0.6192730794E+00
    0.3700000000E+06    0.6601358486E+00    0.6640014249E-01    0.4459070296E-04    0.1954690942E-01    0.6193096732E+00
    0.3900000000E+06    0.6601541056E+00    0.6637130978E-01    0.4334194508E-04    0.1954930366E-01    0.6193440853E+00
    0.4100000000E+06    0.6601705280E+00    0.6634390409E-01    0.4218822172E-04    0.1955155143E-01    0.6193765572E+00
    0.4300000000E+06    0.6601853736E+00    0.6631779119E-01    0.4111815809E-04    0.1955366910E-01    0.6194072927E+00
    0.4500000000E+06    0.6601988544E+00    0.6629285492E-01    0.4012219218E-04    0.1955567050E-01    0.6194364654E+00
    0.4700000000E+06    0.6602111461E+00    0.6626899410E-01    0.3919222010E-04    0.1955756740E-01    0.6194642242E+00
    0.4900000000E+06    0.6602223955E+00    0.6624612005E-01    0.3832132266E-04    0.1955936989E-01    0.6194906981E+00
    0.1000000000E+06    0.6591477485E+00    0.6710588637E-01    0.9056292647E-04    0.1947187999E-01    0.6183323155E+00
    0.3000000000E+06    0.6600521618E+00    0.6651481382E-01    0.4993538188E-04    0.1953705358E-01    0.6191700028E+00
    0.5000000000E+06    0.6602276688E+00    0.6623502828E-01    0.3790613513E-04    0.1956023851E-01    0.6195034888E+00
    0.7000000000E+06    0.6603002508E+00    0.6605010663E-01    0.3161849735E-04    0.1957426445E-01    0.6197127737E+00
    0.9000000000E+06    0.6603390198E+00    0.6591184140E-01    0.2761421596E-04    0.1958429486E-01    0.6198652174E+00
    0.1100000000E+07    0.6603626638E+00    0.6580140806E-01    0.2478481226E-04    0.1959209361E-01    0.6199850450E+00
    0.1300000000E+07    0.6603783022E+00    0.6570947871E-01    0.2265211031E-04    0.1959846989E-01    0.6200837181E+00
    0.1500000000E+07    0.6603892235E+00    0.6563074610E-01    0.2097190878E-04    0.1960386114E-01    0.6201675630E+00
    0.1700000000E+07    0.6603971500E+00    0.6556190111E-01    0.1960490663E-04    0.1960853024E-01    0.6202404396E+00
    0.1900000000E+07    0.6604030677E+00    0.6550074097E-01    0.1846513998E-04    0.1961264742E-01    0.6203048759E+00
    0.2100000000E+07    0.6604075799E+00    0.6544572526E-01    0.1749633685E-04    0.1961632912E-01    0.6203626170E+00
    0.2300000000E+07    0.6604110750E+00    0.6539573448E-01    0.1665992927E-04    0.1961965851E-01    0.6204149182E+00
    0.2500000000E+07    0.6604138143E+00    0.6534992949E-01    0.1592849073E-04    0.1962269704E-01    0.6204627125E+00
    0.2700000000E+07    0.6604159789E+00    0.6530766506E-01    0.1528191872E-04    0.1962549139E-01    0.6205067120E+00
    0.2900000000E+07    0.6604176985E+00    0.6526843442E-01    0.1470510180E-04    0.1962807783E-01    0.6205474727E+00
    0.3100000000E+07    0.6604190679E+00    0.6523183229E-01    0.1418643408E-04    0.1963048515E-01    0.6205854370E+00
    0.3300000000E+07    0.6604201579E+00    0.6519752945E-01    0.1371683625E-04    0.1963273651E-01    0.6206209624E+00
    0.3500000000E+07    0.6604210224E+00    0.6516525488E-01    0.1328909084E-04    0.1963485089E-01    0.6206543421E+00
    0.3700000000E+07    0.6604217031E+00    0.6513478275E-01    0.1289737935E-04    0.1963684399E-01    0.6206858196E+00
    0.3900000000E+07    0.6604222325E+00    0.6510592296E-01    0.1253695242E-04    0.1963872895E-01    0.6207155991E+00
    0.4100000000E+07    0.6604226365E+00    0.6507851392E-01    0.1220389031E-04    0.1964051691E-01    0.6207438538E+00
    0.4300000000E+07    0.6604229358E+00    0.6505241720E-01    0.1189492572E-04    0.1964221735E-01    0.6207707315E+00
    0.4500000000E+07    0.6604231471E+00    0.6502751323E-01    0.1160731078E-04    0.1964383843E-01    0.6207963598E+00
    0.4700000000E+07    0.6604232840E+00    0.6500369806E-01    0.1133871565E-04    0.1964538724E-01    0.6208208491E+00
    0.4900000000E+07    0.6604233579E+00    0.6498088077E-01    0.1108715033E-04    0.1964686994E-01    0.6208442960E+00
    0.1000000000E+07    0.6603521525E+00    0.6585386019E-01    0.2609050779E-04    0.1958841017E-01    0.6199283215E+00
    0.3000000000E+07    0.6604184221E+00    0.6524982691E-01    0.1443911697E-04    0.1962930232E-01    0.6205667803E+00
    0.5000000000E+07    0.6604233742E+00    0.6496982095E-01    0.1096720958E-04    0.1964758821E-01    0.6208556555E+00
    0.7000000000E+07    0.6604219833E+00    0.6478580897E-01    0.9150045419E-05    0.1965950639E-01    0.6210441782E+00
    0.9000000000E+07    0.6604192441E+00    0.6464860993E-01    0.7992129556E-05    0.1966836344E-01    0.6211842517E+00
    0.1100000000E+08    0.6604162395E+00    0.6453921402E-01    0.7173700596E-05    0.1967541482E-01    0.6212957026E+00
    0.1300000000E+08    0.6604132800E+00    0.6444825262E-01    0.6556680896E-05    0.1968127362E-01    0.6213882392E+00
    0.1500000000E+08    0.6604104611E+00    0.6437041369E-01    0.6070513408E-05    0.1968628556E-01    0.6214673432E+00
    0.1700000000E+08    0.6604078071E+00    0.6430239318E-01    0.5674934285E-05    0.1969066488E-01    0.6215364140E+00
    0.1900000000E+08    0.6604053167E+00    0.6424199561E-01    0.5345089573E-05    0.1969455359E-01    0.6215977056E+00
    0.2100000000E+08    0.6604029796E+00    0.6418768782E-01    0.5064706588E-05    0.1969805065E-01    0.6216527891E+00
    0.2300000000E+08    0.6604007829E+00    0.6413835686E-01    0.4822630548E-05    0.1970122782E-01    0.6217028036E+00
    0.2500000000E+08    0.6603987136E+00    0.6409316922E-01    0.4610928082E-05    0.1970413877E-01    0.6217486010E+00
    0.2700000000E+08    0.6603967595E+00    0.6405148452E-01    0.4423783792E-05    0.1970682471E-01    0.6217908353E+00
