  Pressure (Pa) 22mC5-400 (mol/kg) 3mC6-400 (mol/kg) 33mC5-400 (mol/kg) 23mC5-400 (mol/kg) C7-400 (mol/kg)
    0.1000000000E+01    0.3179998650E-02    0.4224415005E-02    0.1294833823E-03    0.2791866184E-03    0.1713732617E-02
    0.3000000000E+01    0.9441555667E-02    0.1245226593E-01    0.3803080990E-03    0.8289250453E-03    0.5051970868E-02
    0.5000000000E+01    0.1557525634E-01    0.2039812840E-01    0.6207352152E-03    0.1367448311E-02    0.8276339691E-02
    0.7000000000E+01    0.2158503077E-01    0.2807628527E-01    0.8512840899E-03    0.1895101052E-02    0.1139259739E-01
    0.9000000000E+01    0.2747464905E-01    0.3550007028E-01    0.1072441390E-02    0.2412213876E-02    0.1440611995E-01
    0.1100000000E+02    0.3324772931E-01    0.4268194565E-01    0.1284663629E-02    0.2919104064E-02    0.1732193226E-01
    0.1300000000E+02    0.3890774528E-01    0.4963357216E-01    0.1488379476E-02    0.3416076241E-02    0.2014473630E-01
    0.1500000000E+02    0.4445803343E-01    0.5636587250E-01    0.1683991845E-02    0.3903422992E-02    0.2287893673E-01
    0.1700000000E+02    0.4990179965E-01    0.6288908883E-01    0.1871879799E-02    0.4381425458E-02    0.2552866400E-01
    0.1900000000E+02    0.5524212563E-01    0.6921283496E-01    0.2052400292E-02    0.4850353884E-02    0.2809779535E-01
    0.2100000000E+02    0.6048197475E-01    0.7534614379E-01    0.2225889750E-02    0.5310468145E-02    0.3058997401E-01
    0.2300000000E+02    0.6562419773E-01    0.8129751056E-01    0.2392665523E-02    0.5762018239E-02    0.3300862651E-01
    0.2500000000E+02    0.7067153793E-01    0.8707493229E-01    0.2553027207E-02    0.6205244747E-02    0.3535697862E-01
    0.2700000000E+02    0.7562663636E-01    0.9268594373E-01    0.2707257867E-02    0.6640379278E-02    0.3763806984E-01
    0.2900000000E+02    0.8049203639E-01    0.9813765037E-01    0.2855625149E-02    0.7067644879E-02    0.3985476663E-01
    0.3100000000E+02    0.8527018824E-01    0.1034367585E+00    0.2998382312E-02    0.7487256429E-02    0.4200977460E-01
    0.3300000000E+02    0.8996345320E-01    0.1085896030E+00    0.3135769166E-02    0.7899421009E-02    0.4410564963E-01
    0.3500000000E+02    0.9457410761E-01    0.1136021724E+00    0.3268012949E-02    0.8304338254E-02    0.4614480806E-01
    0.3700000000E+02    0.9910434668E-01    0.1184801327E+00    0.3395329127E-02    0.8702200681E-02    0.4812953614E-01
    0.3900000000E+02    0.1035562881E+00    0.1232288484E+00    0.3517922141E-02    0.9093194007E-02    0.5006199866E-01
    0.4100000000E+02    0.1079319752E+00    0.1278534025E+00    0.3635986086E-02    0.9477497448E-02    0.5194424687E-01
    0.4300000000E+02    0.1122333807E+00    0.1323586147E+00    0.3749705355E-02    0.9855283996E-02    0.5377822591E-01
    0.4500000000E+02    0.1164624091E+00    0.1367490580E+00    0.3859255223E-02    0.1022672069E-01    0.5556578151E-01
    0.4700000000E+02    0.1206209001E+00    0.1410290749E+00    0.3964802394E-02    0.1059196888E-01    0.5730866633E-01
    0.4900000000E+02    0.1247106311E+00    0.1452027909E+00    0.4066505509E-02    0.1095118443E-01    0.5900854571E-01
    0.1000000000E+02    0.3037553603E-01    0.3912049986E-01    0.1179641973E-02    0.2666917471E-02    0.1587593876E-01
    0.3000000000E+02    0.8289186872E-01    0.1008058749E+00    0.2927689703E-02    0.7278394289E-02    0.4093981859E-01
    0.5000000000E+02    0.1267302507E+00    0.1472510195E+00    0.4115963033E-02    0.1112857725E-01    0.5984285625E-01
    0.7000000000E+02    0.1639016652E+00    0.1834923347E+00    0.4936411353E-02    0.1439383096E-01    0.7461748898E-01
    0.9000000000E+02    0.1958373205E+00    0.2125660432E+00    0.5506472631E-02    0.1719968098E-01    0.8648969473E-01
    0.1100000000E+03    0.2235837647E+00    0.2364116457E+00    0.5901499561E-02    0.1963792136E-01    0.9624306377E-01
    0.1300000000E+03    0.2479242164E+00    0.2563262216E+00    0.6171642366E-02    0.2177725335E-01    0.1044019374E+00
    0.1500000000E+03    0.2694567014E+00    0.2732101605E+00    0.6351258610E-02    0.2367013682E-01    0.1113305031E+00
    0.1700000000E+03    0.2886459144E+00    0.2877081006E+00    0.6464445124E-02    0.2535733805E-01    0.1172896500E+00
    0.1900000000E+03    0.3058585619E+00    0.3002937554E+00    0.6528432417E-02    0.2687102901E-01    0.1224712010E+00
    0.2100000000E+03    0.3213880119E+00    0.3113230710E+00    0.6555741922E-02    0.2823694908E-01    0.1270193717E+00
    0.2300000000E+03    0.3354718454E+00    0.3210687026E+00    0.6555597778E-02    0.2947594427E-01    0.1310446933E+00
    0.2500000000E+03    0.3483045848E+00    0.3297430452E+00    0.6534874001E-02    0.3060508352E-01    0.1346333161E+00
    0.2700000000E+03    0.3600470799E+00    0.3375140210E+00    0.6498743663E-02    0.3163848193E-01    0.1378533895E+00
    0.2900000000E+03    0.3708335332E+00    0.3445161489E+00    0.6451132148E-02    0.3258791691E-01    0.1407595369E+00
    0.3100000000E+03    0.3807768305E+00    0.3508584628E+00    0.6395038799E-02    0.3346329577E-01    0.1433960573E+00
    0.3300000000E+03    0.3899726368E+00    0.3566302786E+00    0.6332768493E-02    0.3427301492E-01    0.1457992588E+00
    0.3500000000E+03    0.3985025778E+00    0.3619054628E+00    0.6266100487E-02    0.3502423903E-01    0.1479991856E+00
    0.3700000000E+03    0.4064367396E+00    0.3667456369E+00    0.6196412966E-02    0.3572312023E-01    0.1500209152E+00
    0.3900000000E+03    0.4138356492E+00    0.3712026164E+00    0.6124775856E-02    0.3637497190E-01    0.1518855458E+00
    0.4100000000E+03    0.4207518597E+00    0.3753202883E+00    0.6052020639E-02    0.3698440769E-01    0.1536109573E+00
    0.4300000000E+03    0.4272312285E+00    0.3791360731E+00    0.5978793312E-02    0.3755545369E-01    0.1552124032E+00
    0.4500000000E+03    0.4333139559E+00    0.3826820747E+00    0.5905594870E-02    0.3809163952E-01    0.1567029772E+00
    0.4700000000E+03    0.4390354359E+00    0.3859859931E+00    0.5832812470E-02    0.3859607302E-01    0.1580939829E+00
    0.4900000000E+03    0.4444269566E+00    0.3890718553E+00    0.5760743566E-02    0.3907150164E-01    0.1593952302E+00
    0.1000000000E+03    0.2101801462E+00    0.2250497943E+00    0.5722275504E-02    0.1846001159E-01    0.9159382215E-01
    0.3000000000E+03    0.3759042348E+00    0.3477637943E+00    0.6423987604E-02    0.3303430678E-01    0.1421090666E+00
    0.5000000000E+03    0.4470077823E+00    0.3905396670E+00    0.5725049821E-02    0.3929911192E-01    0.1600149117E+00
    0.7000000000E+03    0.4866286028E+00    0.4123467536E+00    0.5079776994E-02    0.4279643473E-01    0.1692906076E+00
    0.9000000000E+03    0.5118826940E+00    0.4255784896E+00    0.4571679282E-02    0.4502966524E-01    0.1750073880E+00
    0.1100000000E+04    0.5293763644E+00    0.4344635516E+00    0.4173068875E-02    0.4657944409E-01    0.1789055551E+00
    0.1300000000E+04    0.5422045522E+00    0.4408410381E+00    0.3854320964E-02    0.4771796212E-01    0.1817461948E+00
    0.1500000000E+04    0.5520105791E+00    0.4456401471E+00    0.3593889010E-02    0.4858983434E-01    0.1839159357E+00
    0.1700000000E+04    0.5597477606E+00    0.4493812125E+00    0.3376877667E-02    0.4927900574E-01    0.1856324440E+00
    0.1900000000E+04    0.5660070143E+00    0.4523784058E+00    0.3192934050E-02    0.4983754188E-01    0.1870278407E+00
    0.2100000000E+04    0.5711740251E+00    0.4548326845E+00    0.3034722196E-02    0.5029944607E-01    0.1881870799E+00
    0.2300000000E+04    0.5755111697E+00    0.4568785953E+00    0.2896927132E-02    0.5068786445E-01    0.1891673373E+00
    0.2500000000E+04    0.5792031142E+00    0.4586096243E+00    0.2775613715E-02    0.5101909759E-01    0.1900085456E+00
    0.2700000000E+04    0.5823835798E+00    0.4600927552E+00    0.2667809360E-02    0.5130495634E-01    0.1907394640E+00
    0.2900000000E+04    0.5851517645E+00    0.4613772412E+00    0.2571227366E-02    0.5155420761E-01    0.1913813474E+00
    0.3100000000E+04    0.5875828004E+00    0.4625001086E+00    0.2484079615E-02    0.5177349542E-01    0.1919502555E+00
    0.3300000000E+04    0.5897346292E+00    0.4634897298E+00    0.2404947143E-02    0.5196794676E-01    0.1924585567E+00
    0.3500000000E+04    0.5916526491E+00    0.4643682117E+00    0.2332688933E-02    0.5214158110E-01    0.1929159366E+00
    0.3700000000E+04    0.5933729321E+00    0.4651530347E+00    0.2266376464E-02    0.5229759416E-01    0.1933300923E+00
    0.3900000000E+04    0.5949245007E+00    0.4658582028E+00    0.2205245956E-02    0.5243855865E-01    0.1937072207E+00
    0.4100000000E+04    0.5963309681E+00    0.4664950665E+00    0.2148662959E-02    0.5256656905E-01    0.1940523696E+00
    0.4300000000E+04    0.5976117418E+00    0.4670729225E+00    0.2096095754E-02    0.5268334783E-01    0.1943696940E+00
    0.4500000000E+04    0.5987829192E+00    0.4675994584E+00    0.2047095078E-02    0.5279032455E-01    0.1946626463E+00
    0.4700000000E+04    0.5998579641E+00    0.4680810855E+00    0.2001278504E-02    0.5288869562E-01    0.1949341203E+00
    0.4900000000E+04    0.6008482238E+00    0.4685231937E+00    0.1958318266E-02    0.5297946996E-01    0.1951865602E+00
    0.1000000000E+04    0.5213580173E+00    0.4304185274E+00    0.4360723713E-02    0.4586874493E-01    0.1771235393E+00
    0.3000000000E+04    0.5864054647E+00    0.4619569336E+00    0.2526570328E-02    0.5166724650E-01    0.1916740776E+00
    0.5000000000E+04    0.6013146267E+00    0.4687308822E+00    0.1937819391E-02    0.5302228125E-01    0.1953063047E+00
    0.7000000000E+04    0.6079092093E+00    0.4716208373E+00    0.1625968973E-02    0.5363267420E-01    0.1970747768E+00
    0.9000000000E+04    0.6116234299E+00    0.4731924561E+00    0.1425965358E-02    0.5398263182E-01    0.1981628064E+00
    0.1100000000E+05    0.6140042839E+00    0.4741635154E+00    0.1283940765E-02    0.5421090987E-01    0.1989190269E+00
    0.1300000000E+05    0.6156595333E+00    0.4748127323E+00    0.1176472156E-02    0.5437236698E-01    0.1994854859E+00
    0.1500000000E+05    0.6168764469E+00    0.4752705220E+00    0.1091535932E-02    0.5449309410E-01    0.1999317730E+00
    0.1700000000E+05    0.6178084079E+00    0.4756058469E+00    0.1022246508E-02    0.5458710751E-01    0.2002963554E+00
    0.1900000000E+05    0.6185447549E+00    0.4758584879E+00    0.9643410141E-03    0.5466262052E-01    0.2006023998E+00
    0.2100000000E+05    0.6191410399E+00    0.4760529391E+00    0.9150212480E-03    0.5472477098E-01    0.2008647837E+00
    0.2300000000E+05    0.6196336159E+00    0.4762050686E+00    0.8723646997E-03    0.5477694117E-01    0.2010935502E+00
    0.2500000000E+05    0.6200472683E+00    0.4763255840E+00    0.8350012652E-03    0.5482145079E-01    0.2012957557E+00
    0.2700000000E+05    0.6203994755E+00    0.4764219561E+00    0.8019247495E-03    0.5485994530E-01    0.2014765228E+00
    0.2900000000E+05    0.6207029151E+00    0.4764995446E+00    0.7723774265E-03    0.5489362522E-01    0.2016396733E+00
    0.3100000000E+05    0.6209670061E+00    0.4765622871E+00    0.7457763991E-03    0.5492338765E-01    0.2017881252E+00
    0.3300000000E+05    0.6211988918E+00    0.4766131355E+00    0.7216649782E-03    0.5494991692E-01    0.2019241509E+00
    0.3500000000E+05    0.6214040875E+00    0.4766543421E+00    0.6996796206E-03    0.5497374444E-01    0.2020495507E+00
    0.3700000000E+05    0.6215869191E+00    0.4766876521E+00    0.6795268676E-03    0.5499528941E-01    0.2021657725E+00
    0.3900000000E+05    0.6217508275E+00    0.4767144363E+00    0.6609668944E-03    0.5501488716E-01    0.2022739963E+00
    0.4100000000E+05    0.6218985829E+00    0.4767357846E+00    0.6438015437E-03    0.5503280921E-01    0.2023751952E+00
    0.4300000000E+05    0.6220324413E+00    0.4767525728E+00    0.6278654663E-03    0.5504927794E-01    0.2024701801E+00
    0.4500000000E+05    0.6221542582E+00    0.4767655116E+00    0.6130194595E-03    0.5506447723E-01    0.2025596331E+00
    0.4700000000E+05    0.6222655733E+00    0.4767751829E+00    0.5991453861E-03    0.5507856057E-01    0.2026441332E+00
    0.4900000000E+05    0.6223676753E+00    0.4767820670E+00    0.5861422500E-03    0.5509165713E-01    0.2027241753E+00
    0.1000000000E+05    0.6129313404E+00    0.4737304371E+00    0.1349556956E-02    0.5410754824E-01    0.1985710061E+00
    0.3000000000E+05    0.6208393883E+00    0.4765325679E+00    0.7587396801E-03    0.5490894918E-01    0.2017155818E+00
    0.5000000000E+05    0.6224156177E+00    0.4767845911E+00    0.5799396403E-03    0.5509787026E-01    0.2027626602E+00
    0.7000000000E+05    0.6230826535E+00    0.4767573187E+00    0.4857198166E-03    0.5518986063E-01    0.2033764609E+00
    0.9000000000E+05    0.6234479702E+00    0.4766658070E+00    0.4254245887E-03    0.5524695549E-01    0.2038071214E+00
    0.1100000000E+06    0.6236769730E+00    0.4765584130E+00    0.3826755421E-03    0.5528706768E-01    0.2041376519E+00
    0.1300000000E+06    0.6238330675E+00    0.4764497301E+00    0.3503694862E-03    0.5531744332E-01    0.2044053499E+00
    0.1500000000E+06    0.6239457252E+00    0.4763446773E+00    0.3248650343E-03    0.5534162531E-01    0.2046300583E+00
    0.1700000000E+06    0.6240304808E+00    0.4762448474E+00    0.3040789239E-03    0.5536157339E-01    0.2048235518E+00
    0.1900000000E+06    0.6240962876E+00    0.4761505716E+00    0.2867225179E-03    0.5537847032E-01    0.2049933744E+00
    0.2100000000E+06    0.6241486618E+00    0.4760616864E+00    0.2719506135E-03    0.5539307796E-01    0.2051446431E+00
    0.2300000000E+06    0.6241911838E+00    0.4759778432E+00    0.2591829467E-03    0.5540591241E-01    0.2052809850E+00
    0.2500000000E+06    0.6242262765E+00    0.4758986392E+00    0.2480062756E-03    0.5541733768E-01    0.2054050628E+00
    0.2700000000E+06    0.6242556363E+00    0.4758236742E+00    0.2381173201E-03    0.5542761909E-01    0.2055188876E+00
    0.2900000000E+06    0.6242804855E+00    0.4757525729E+00    0.2292878345E-03    0.5543695538E-01    0.2056240153E+00
    0.3100000000E+06    0.6243017264E+00    0.4756849935E+00    0.2213423396E-03    0.5544549893E-01    0.2057216739E+00
    0.3300000000E+06    0.6243200392E+00    0.4756206290E+00    0.2141434269E-03    0.5545336888E-01    0.2058128492E+00
    0.3500000000E+06    0.6243359456E+00    0.4755592049E+00    0.2075817710E-03    0.5546066000E-01    0.2058983446E+00
    0.3700000000E+06    0.6243498527E+00    0.4755004770E+00    0.2015691657E-03    0.5546744882E-01    0.2059788233E+00
    0.3900000000E+06    0.6243620823E+00    0.4754442275E+00    0.1960335597E-03    0.5547379795E-01    0.2060548390E+00
    0.4100000000E+06    0.6243728919E+00    0.4753902624E+00    0.1909154458E-03    0.5547975922E-01    0.2061268589E+00
    0.4300000000E+06    0.6243824900E+00    0.4753384084E+00    0.1861651902E-03    0.5548537597E-01    0.2061952805E+00
    0.4500000000E+06    0.6243910474E+00    0.4752885101E+00    0.1817410239E-03    0.5549068481E-01    0.2062604452E+00
    0.4700000000E+06    0.6243987047E+00    0.4752404281E+00    0.1776075119E-03    0.5549571690E-01    0.2063226478E+00
    0.4900000000E+06    0.6244055792E+00    0.4751940371E+00    0.1737343716E-03    0.5550049899E-01    0.2063821451E+00
    0.1000000000E+06    0.6235743540E+00    0.4766128244E+00    0.4024184425E-03    0.5526855304E-01    0.2039819837E+00
    0.3000000000E+06    0.6242915102E+00    0.4757183629E+00    0.2252139335E-03    0.5544131815E-01    0.2056737117E+00
    0.5000000000E+06    0.6244087542E+00    0.4751714398E+00    0.1718871549E-03    0.5550280363E-01    0.2064109507E+00
    0.7000000000E+06    0.6244483247E+00    0.4747858408E+00    0.1438516307E-03    0.5554003294E-01    0.2068874237E+00
    0.9000000000E+06    0.6244644412E+00    0.4744881473E+00    0.1259345231E-03    0.5556667676E-01    0.2072399453E+00
    0.1100000000E+07    0.6244709773E+00    0.4742456256E+00    0.1132426314E-03    0.5558740520E-01    0.2075198141E+00
    0.1300000000E+07    0.6244729310E+00    0.4740409531E+00    0.1036573003E-03    0.5560436137E-01    0.2077518985E+00
    0.1500000000E+07    0.6244724790E+00    0.4738638650E+00    0.9609368877E-04    0.5561870416E-01    0.2079501519E+00
    0.1700000000E+07    0.6244706926E+00    0.4737077784E+00    0.8993170039E-04    0.5563113029E-01    0.2081231903E+00
    0.1900000000E+07    0.6244681446E+00    0.4735682192E+00    0.8478803121E-04    0.5564209099E-01    0.2082767082E+00
    0.2100000000E+07    0.6244651611E+00    0.4734420074E+00    0.8041141873E-04    0.5565189510E-01    0.2084146660E+00
    0.2300000000E+07    0.6244619354E+00    0.4733268017E+00    0.7662944292E-04    0.5566076323E-01    0.2085399294E+00
    0.2500000000E+07    0.6244585866E+00    0.4732208285E+00    0.7331936177E-04    0.5566885841E-01    0.2086546390E+00
    0.2700000000E+07    0.6244551893E+00    0.4731227113E+00    0.7039112519E-04    0.5567630453E-01    0.2087604360E+00
    0.2900000000E+07    0.6244517909E+00    0.4730313609E+00    0.6777698268E-04    0.5568319792E-01    0.2088586062E+00
    0.3100000000E+07    0.6244484218E+00    0.4729459001E+00    0.6542486010E-04    0.5568961495E-01    0.2089501759E+00
    0.3300000000E+07    0.6244451016E+00    0.4728656123E+00    0.6329399045E-04    0.5569561720E-01    0.2090359772E+00
    0.3500000000E+07    0.6244418422E+00    0.4727899044E+00    0.6135194531E-04    0.5570125503E-01    0.2091166943E+00
    0.3700000000E+07    0.6244386510E+00    0.4727182799E+00    0.5957256566E-04    0.5570657018E-01    0.2091928963E+00
    0.3900000000E+07    0.6244355320E+00    0.4726503191E+00    0.5793448705E-04    0.5571159758E-01    0.2092650619E+00
    0.4100000000E+07    0.6244324871E+00    0.4725856639E+00    0.5642006737E-04    0.5571636680E-01    0.2093335975E+00
    0.4300000000E+07    0.6244295166E+00    0.4725240062E+00    0.5501459369E-04    0.5572090306E-01    0.2093988510E+00
    0.4500000000E+07    0.6244266199E+00    0.4724650795E+00    0.5370568610E-04    0.5572522808E-01    0.2094611226E+00
    0.4700000000E+07    0.6244237955E+00    0.4724086510E+00    0.5248284334E-04    0.5572936065E-01    0.2095206731E+00
    0.4900000000E+07    0.6244210417E+00    0.4723545167E+00    0.5133709197E-04    0.5573331719E-01    0.2095777305E+00
    0.1000000000E+07    0.6244684937E+00    0.4743612984E+00    0.1191030077E-03    0.5557761350E-01    0.2073870477E+00
    0.3000000000E+07    0.6244501013E+00    0.4729879424E+00    0.6657094172E-04    0.5568646183E-01    0.2089051601E+00
    0.5000000000E+07    0.6244196907E+00    0.4723282528E+00    0.5079067046E-04    0.5573523401E-01    0.2096053879E+00
    0.7000000000E+07    0.6243958353E+00    0.4718890706E+00    0.4249922241E-04    0.5576705087E-01    0.2100657171E+00
    0.9000000000E+07    0.6243766467E+00    0.4715591141E+00    0.3720187935E-04    0.5579070902E-01    0.2104092691E+00
    0.1100000000E+08    0.6243606762E+00    0.4712946307E+00    0.3345014109E-04    0.5580955152E-01    0.2106834883E+00
    0.1300000000E+08    0.6243470225E+00    0.4710738368E+00    0.3061709256E-04    0.5582521201E-01    0.2109117299E+00
    0.1500000000E+08    0.6243351072E+00    0.4708842935E+00    0.2838181449E-04    0.5583861212E-01    0.2111072309E+00
    0.1700000000E+08    0.6243245413E+00    0.4707182219E+00    0.2656090548E-04    0.5585032320E-01    0.2112782237E+00
    0.1900000000E+08    0.6243150521E+00    0.4705704314E+00    0.2504101587E-04    0.5586072407E-01    0.2114301794E+00
    0.2100000000E+08    0.6243064415E+00    0.4704372842E+00    0.2374785204E-04    0.5587007881E-01    0.2115669190E+00
    0.2300000000E+08    0.6242985610E+00    0.4703161318E+00    0.2263043772E-04    0.5587857894E-01    0.2116912173E+00
    0.2500000000E+08    0.6242912968E+00    0.4702049856E+00    0.2165248710E-04    0.5588636772E-01    0.2118051528E+00
    0.2700000000E+08    0.6242845597E+00    0.4701023142E+00    0.2078738087E-04    0.5589355519E-01    0.2119103230E+00
