  Pressure (Pa) 22mC5-400 (mol/kg) 3mC6-400 (mol/kg) 33mC5-400 (mol/kg) 23mC5-400 (mol/kg) C7-400 (mol/kg)
    0.1000000000E+01    0.3179212319E-02    0.5280291650E-03    0.5178647943E-03    0.1860784002E-03    0.5140975786E-02
    0.3000000000E+01    0.9434692442E-02    0.1556341239E-02    0.1520643398E-02    0.5522150908E-03    0.1515403450E-01
    0.5000000000E+01    0.1555676375E-01    0.2549264994E-02    0.2481382711E-02    0.9105500873E-03    0.2482411601E-01
    0.7000000000E+01    0.2154986539E-01    0.3508612965E-02    0.3402227256E-02    0.1261342924E-02    0.3416875965E-01
    0.9000000000E+01    0.2741823948E-01    0.4436075703E-02    0.4285183812E-02    0.1604841614E-02    0.4320432522E-01
    0.1100000000E+02    0.3316594179E-01    0.5333231865E-02    0.5132132284E-02    0.1941283280E-02    0.5194609065E-01
    0.1300000000E+02    0.3879685192E-01    0.6201557331E-02    0.5944835549E-02    0.2270894747E-02    0.6040834000E-01
    0.1500000000E+02    0.4431468271E-01    0.7042433438E-02    0.6724948387E-02    0.2593893090E-02    0.6860444306E-01
    0.1700000000E+02    0.4972298909E-01    0.7857154431E-02    0.7474025610E-02    0.2910486151E-02    0.7654692745E-01
    0.1900000000E+02    0.5502517637E-01    0.8646934234E-02    0.8193529455E-02    0.3220873028E-02    0.8424754390E-01
    0.2100000000E+02    0.6022450800E-01    0.9412912579E-02    0.8884836326E-02    0.3525244527E-02    0.9171732568E-01
    0.2300000000E+02    0.6532411291E-01    0.1015616060E-01    0.9549242956E-02    0.3823783587E-02    0.9896664257E-01
    0.2500000000E+02    0.7032699234E-01    0.1087768593E-01    0.1018797204E-01    0.4116665685E-02    0.1060052500E+00
    0.2700000000E+02    0.7523602629E-01    0.1157843731E-01    0.1080217740E-01    0.4404059209E-02    0.1128423340E+00
    0.2900000000E+02    0.8005397957E-01    0.1225930887E-01    0.1139294870E-01    0.4686125812E-02    0.1194865523E+00
    0.3100000000E+02    0.8478350750E-01    0.1292114399E-01    0.1196131581E-01    0.4963020750E-02    0.1259460714E+00
    0.3300000000E+02    0.8942716132E-01    0.1356473886E-01    0.1250825279E-01    0.5234893190E-02    0.1322286015E+00
    0.3500000000E+02    0.9398739316E-01    0.1419084571E-01    0.1303468158E-01    0.5501886508E-02    0.1383414276E+00
    0.3700000000E+02    0.9846656091E-01    0.1480017585E-01    0.1354147537E-01    0.5764138567E-02    0.1442914387E+00
    0.3900000000E+02    0.1028669326E+00    0.1539340238E-01    0.1402946177E-01    0.6021781983E-02    0.1500851542E+00
    0.4100000000E+02    0.1071906908E+00    0.1597116277E-01    0.1449942563E-01    0.6274944366E-02    0.1557287484E+00
    0.4300000000E+02    0.1114399363E+00    0.1653406112E-01    0.1495211179E-01    0.6523748562E-02    0.1612280731E+00
    0.4500000000E+02    0.1156166925E+00    0.1708267038E-01    0.1538822751E-01    0.6768312869E-02    0.1665886786E+00
    0.4700000000E+02    0.1197229083E+00    0.1761753432E-01    0.1580844476E-01    0.7008751245E-02    0.1718158327E+00
    0.4900000000E+02    0.1237604617E+00    0.1813916933E-01    0.1621340238E-01    0.7245173510E-02    0.1769145384E+00
    0.1000000000E+02    0.3030692811E-01    0.4888347555E-02    0.4713046245E-02    0.1773930164E-02    0.4761101788E-01
    0.3000000000E+02    0.8242963487E-01    0.1259255516E-01    0.1167987063E-01    0.4825210278E-02    0.1227389070E+00
    0.5000000000E+02    0.1257540585E+00    0.1839518032E-01    0.1641034989E-01    0.7361911834E-02    0.1794172183E+00
    0.7000000000E+02    0.1624288884E+00    0.2292807382E-01    0.1968108958E-01    0.9509669824E-02    0.2237659655E+00
    0.9000000000E+02    0.1939448456E+00    0.2657042897E-01    0.2196248749E-01    0.1135565239E-01    0.2594600563E+00
    0.1100000000E+03    0.2213693978E+00    0.2956369107E-01    0.2355392836E-01    0.1296228187E-01    0.2888407497E+00
    0.1300000000E+03    0.2454878248E+00    0.3206896463E-01    0.2465341515E-01    0.1437548154E-01    0.3134711257E+00
    0.1500000000E+03    0.2668914068E+00    0.3419790794E-01    0.2539597595E-01    0.1562983136E-01    0.3344351238E+00
    0.1700000000E+03    0.2860344544E+00    0.3603038132E-01    0.2587602336E-01    0.1675190231E-01    0.3525084276E+00
    0.1900000000E+03    0.3032722912E+00    0.3762503497E-01    0.2616095303E-01    0.1776247703E-01    0.3682610189E+00
    0.2100000000E+03    0.3188872117E+00    0.3902592679E-01    0.2629971815E-01    0.1867806760E-01    0.3821213005E+00
    0.2300000000E+03    0.3331066348E+00    0.4026680541E-01    0.2632840293E-01    0.1951197703E-01    0.3944176099E+00
    0.2500000000E+03    0.3461160605E+00    0.4137396663E-01    0.2627394064E-01    0.2027505680E-01    0.4054059154E+00
    0.2700000000E+03    0.3580684907E+00    0.4236820878E-01    0.2615665006E-01    0.2097625780E-01    0.4152887809E+00
    0.2900000000E+03    0.3690913936E+00    0.4326620221E-01    0.2599199991E-01    0.2162303755E-01    0.4242286540E+00
    0.3100000000E+03    0.3792919300E+00    0.4408146828E-01    0.2579185768E-01    0.2222166582E-01    0.4323573666E+00
    0.3300000000E+03    0.3887609317E+00    0.4482509181E-01    0.2556538698E-01    0.2277745729E-01    0.4397830526E+00
    0.3500000000E+03    0.3975759661E+00    0.4550624816E-01    0.2531970116E-01    0.2329495080E-01    0.4465952668E+00
    0.3700000000E+03    0.4058037265E+00    0.4613259890E-01    0.2506034531E-01    0.2377804909E-01    0.4528688285E+00
    0.3900000000E+03    0.4135019154E+00    0.4671059283E-01    0.2479165548E-01    0.2423012896E-01    0.4586667470E+00
    0.4100000000E+03    0.4207207433E+00    0.4724569769E-01    0.2451702922E-01    0.2465412896E-01    0.4640424746E+00
    0.4300000000E+03    0.4275041325E+00    0.4774258068E-01    0.2423913103E-01    0.2505261975E-01    0.4690416617E+00
    0.4500000000E+03    0.4338906922E+00    0.4820525040E-01    0.2396004975E-01    0.2542786117E-01    0.4737035371E+00
    0.4700000000E+03    0.4399145148E+00    0.4863716951E-01    0.2368142000E-01    0.2578184879E-01    0.4780620052E+00
    0.4900000000E+03    0.4456058303E+00    0.4904134505E-01    0.2340451647E-01    0.2611635220E-01    0.4821465246E+00
    0.1000000000E+03    0.2081140785E+00    0.2813669294E-01    0.2283025480E-01    0.1218570098E-01    0.2748279854E+00
    0.3000000000E+03    0.3742884376E+00    0.4368343319E-01    0.2589573785E-01    0.2192801839E-01    0.4283871589E+00
    0.5000000000E+03    0.4483353241E+00    0.4923386232E-01    0.2326703047E-01    0.2627679646E-01    0.4840942211E+00
    0.7000000000E+03    0.4906656748E+00    0.5211733306E-01    0.2075020858E-01    0.2876703869E-01    0.5134701766E+00
    0.9000000000E+03    0.5180603247E+00    0.5389260901E-01    0.1873599576E-01    0.3038130757E-01    0.5318178647E+00
    0.1100000000E+04    0.5372083374E+00    0.5509840373E-01    0.1714026764E-01    0.3151150169E-01    0.5444551924E+00
    0.1300000000E+04    0.5513248478E+00    0.5597178743E-01    0.1585586871E-01    0.3234609968E-01    0.5537347162E+00
    0.1500000000E+04    0.5621495248E+00    0.5663381147E-01    0.1480155544E-01    0.3298714361E-01    0.5608638114E+00
    0.1700000000E+04    0.5707054944E+00    0.5715290546E-01    0.1391996662E-01    0.3349468009E-01    0.5665283995E+00
    0.1900000000E+04    0.5776332967E+00    0.5757073726E-01    0.1317070177E-01    0.3390632320E-01    0.5711481892E+00
    0.2100000000E+04    0.5833540648E+00    0.5791416280E-01    0.1252486854E-01    0.3424681676E-01    0.5749949937E+00
    0.2300000000E+04    0.5881558315E+00    0.5820128679E-01    0.1196139156E-01    0.3453309374E-01    0.5782529223E+00
    0.2500000000E+04    0.5922421242E+00    0.5844476736E-01    0.1146458543E-01    0.3477712586E-01    0.5810513005E+00
    0.2700000000E+04    0.5957607531E+00    0.5865372577E-01    0.1102255256E-01    0.3498761235E-01    0.5834837499E+00
    0.2900000000E+04    0.5988216028E+00    0.5883490373E-01    0.1062611001E-01    0.3517102399E-01    0.5856197858E+00
    0.3100000000E+04    0.6015080291E+00    0.5899339352E-01    0.1026805721E-01    0.3533227208E-01    0.5875121544E+00
    0.3300000000E+04    0.6038843864E+00    0.5913311425E-01    0.9942666873E-02    0.3547515053E-01    0.5892016335E+00
    0.3500000000E+04    0.6060011358E+00    0.5925713191E-01    0.9645324453E-02    0.3560263582E-01    0.5907202670E+00
    0.3700000000E+04    0.6078983920E+00    0.5936787990E-01    0.9372268369E-02    0.3571709549E-01    0.5920936004E+00
    0.3900000000E+04    0.6096084389E+00    0.5946731435E-01    0.9120399776E-02    0.3582043599E-01    0.5933422595E+00
    0.4100000000E+04    0.6111575466E+00    0.5955702581E-01    0.8887141174E-02    0.3591420949E-01    0.5944830894E+00
    0.4300000000E+04    0.6125673057E+00    0.5963832092E-01    0.8670329847E-02    0.3599969241E-01    0.5955299885E+00
    0.4500000000E+04    0.6138556227E+00    0.5971228310E-01    0.8468136536E-02    0.3607794396E-01    0.5964945309E+00
    0.4700000000E+04    0.6150374714E+00    0.5977981826E-01    0.8279002624E-02    0.3614985037E-01    0.5973864362E+00
    0.4900000000E+04    0.6161254686E+00    0.5984168974E-01    0.8101591101E-02    0.3621615880E-01    0.5982139300E+00
    0.1000000000E+04    0.5284157211E+00    0.5454795017E-01    0.1789303629E-01    0.3099229364E-01    0.5386646063E+00
    0.3000000000E+04    0.6002072205E+00    0.5891671655E-01    0.1044267256E-01    0.3525415923E-01    0.5865936433E+00
    0.5000000000E+04    0.6166376827E+00    0.5987070794E-01    0.8016914327E-02    0.3624741579E-01    0.5986057542E+00
    0.7000000000E+04    0.6238627873E+00    0.6026923708E-01    0.6726941110E-02    0.3669183528E-01    0.6043204539E+00
    0.9000000000E+04    0.6279157129E+00    0.6047770151E-01    0.5897981319E-02    0.3694540915E-01    0.6077343835E+00
    0.1100000000E+05    0.6305064764E+00    0.6059980175E-01    0.5308641249E-02    0.3711023826E-01    0.6100347751E+00
    0.1300000000E+05    0.6323041456E+00    0.6067602529E-01    0.4862365151E-02    0.3722651162E-01    0.6117055114E+00
    0.1500000000E+05    0.6336239157E+00    0.6072532534E-01    0.4509488540E-02    0.3731327414E-01    0.6129827782E+00
    0.1700000000E+05    0.6346336289E+00    0.6075769495E-01    0.4221527956E-02    0.3738072660E-01    0.6139963493E+00
    0.1900000000E+05    0.6354308305E+00    0.6077886705E-01    0.3980829370E-02    0.3743483181E-01    0.6148237981E+00
    0.2100000000E+05    0.6360760657E+00    0.6079234499E-01    0.3775794184E-02    0.3747931213E-01    0.6155145214E+00
    0.2300000000E+05    0.6366088948E+00    0.6080037726E-01    0.3598447878E-02    0.3751661368E-01    0.6161015633E+00
    0.2500000000E+05    0.6370562552E+00    0.6080446456E-01    0.3443104000E-02    0.3754841156E-01    0.6166079202E+00
    0.2700000000E+05    0.6374371221E+00    0.6080564097E-01    0.3305584457E-02    0.3757589240E-01    0.6170501242E+00
    0.2900000000E+05    0.6377652460E+00    0.6080463817E-01    0.3182741641E-02    0.3759992097E-01    0.6174403868E+00
    0.3100000000E+05    0.6380508345E+00    0.6080198550E-01    0.3072153378E-02    0.3762114279E-01    0.6177879379E+00
    0.3300000000E+05    0.6383016234E+00    0.6079807320E-01    0.2971921406E-02    0.3764004983E-01    0.6180998934E+00
    0.3500000000E+05    0.6385235820E+00    0.6079319368E-01    0.2880534273E-02    0.3765702381E-01    0.6183818342E+00
    0.3700000000E+05    0.6387213900E+00    0.6078756910E-01    0.2796771663E-02    0.3767236562E-01    0.6186382039E+00
    0.3900000000E+05    0.6388987673E+00    0.6078137030E-01    0.2719636121E-02    0.3768631577E-01    0.6188725878E+00
    0.4100000000E+05    0.6390587082E+00    0.6077473003E-01    0.2648303369E-02    0.3769906890E-01    0.6190879134E+00
    0.4300000000E+05    0.6392036499E+00    0.6076775239E-01    0.2582085523E-02    0.3771078432E-01    0.6192865964E+00
    0.4500000000E+05    0.6393355963E+00    0.6076051964E-01    0.2520403409E-02    0.3772159371E-01    0.6194706494E+00
    0.4700000000E+05    0.6394562099E+00    0.6075309724E-01    0.2462765459E-02    0.3773160690E-01    0.6196417639E+00
    0.4900000000E+05    0.6395668818E+00    0.6074553757E-01    0.2408751399E-02    0.3774091631E-01    0.6198013727E+00
    0.1000000000E+05    0.6293396647E+00    0.6054626326E-01    0.5580985436E-02    0.3703566620E-01    0.6089849575E+00
    0.3000000000E+05    0.6379128254E+00    0.6080349099E-01    0.3126044758E-02    0.3761084897E-01    0.6176190148E+00
    0.5000000000E+05    0.6396188634E+00    0.6074171975E-01    0.2382988289E-02    0.3774533204E-01    0.6198772516E+00
    0.7000000000E+05    0.6403435785E+00    0.6066491361E-01    0.1991841088E-02    0.3781065648E-01    0.6210110793E+00
    0.9000000000E+05    0.6407424953E+00    0.6059367758E-01    0.1741794477E-02    0.3785115224E-01    0.6217210275E+00
    0.1100000000E+06    0.6409939743E+00    0.6052990443E-01    0.1564684104E-02    0.3787958216E-01    0.6222193764E+00
    0.1300000000E+06    0.6411664219E+00    0.6047285414E-01    0.1430956287E-02    0.3790110074E-01    0.6225946035E+00
    0.1500000000E+06    0.6412916670E+00    0.6042148313E-01    0.1325466649E-02    0.3791822562E-01    0.6228908475E+00
    0.1700000000E+06    0.6413865099E+00    0.6037486358E-01    0.1239554728E-02    0.3793234838E-01    0.6231328667E+00
    0.1900000000E+06    0.6414606474E+00    0.6033223832E-01    0.1167865784E-02    0.3794430843E-01    0.6233357508E+00
    0.2100000000E+06    0.6415200645E+00    0.6029300099E-01    0.1106889202E-02    0.3795464624E-01    0.6235092854E+00
    0.2300000000E+06    0.6415686521E+00    0.6025666560E-01    0.1054215812E-02    0.3796372781E-01    0.6236601301E+00
    0.2500000000E+06    0.6416090482E+00    0.6022283965E-01    0.1008130580E-02    0.3797181122E-01    0.6237929953E+00
    0.2700000000E+06    0.6416431035E+00    0.6019120302E-01    0.9673753165E-03    0.3797908452E-01    0.6239113194E+00
    0.2900000000E+06    0.6416721537E+00    0.6016149188E-01    0.9310034696E-03    0.3798568858E-01    0.6240176796E+00
    0.3100000000E+06    0.6416971871E+00    0.6013348665E-01    0.8982875715E-03    0.3799173134E-01    0.6241140510E+00
    0.3300000000E+06    0.6417189499E+00    0.6010700281E-01    0.8686581738E-03    0.3799729723E-01    0.6242019766E+00
    0.3500000000E+06    0.6417380159E+00    0.6008188396E-01    0.8416623580E-03    0.3800245337E-01    0.6242826817E+00
    0.3700000000E+06    0.6417548336E+00    0.6005799648E-01    0.8169348147E-03    0.3800725397E-01    0.6243571539E+00
    0.3900000000E+06    0.6417697582E+00    0.6003522530E-01    0.7941772297E-03    0.3801174336E-01    0.6244261993E+00
    0.4100000000E+06    0.6417830748E+00    0.6001347071E-01    0.7731432984E-03    0.3801595826E-01    0.6244904835E+00
    0.4300000000E+06    0.6417950146E+00    0.5999264573E-01    0.7536276395E-03    0.3801992936E-01    0.6245505616E+00
    0.4500000000E+06    0.6418057672E+00    0.5997267405E-01    0.7354574633E-03    0.3802368256E-01    0.6246069009E+00
    0.4700000000E+06    0.6418154895E+00    0.5995348837E-01    0.7184862218E-03    0.3802723995E-01    0.6246598981E+00
    0.4900000000E+06    0.6418243122E+00    0.5993502903E-01    0.7025887066E-03    0.3803062044E-01    0.6247098924E+00
    0.1000000000E+06    0.6408811023E+00    0.6056088689E-01    0.1646459312E-02    0.3786646173E-01    0.6219895968E+00
    0.3000000000E+06    0.6416851211E+00    0.6014728829E-01    0.9142272602E-03    0.3798877438E-01    0.6240670089E+00
    0.5000000000E+06    0.6418284212E+00    0.5992605491E-01    0.6950083440E-03    0.3803224956E-01    0.6247338563E+00
    0.7000000000E+06    0.6418826631E+00    0.5977441075E-01    0.5801013021E-03    0.3805856168E-01    0.6251089946E+00
    0.9000000000E+06    0.6419088370E+00    0.5965884477E-01    0.5068235934E-03    0.3807738712E-01    0.6253634026E+00
    0.1100000000E+07    0.6419229731E+00    0.5956541729E-01    0.4550038955E-03    0.3809203005E-01    0.6255532689E+00
    0.1300000000E+07    0.6419310129E+00    0.5948697926E-01    0.4159227403E-03    0.3810400632E-01    0.6257034782E+00
    0.1500000000E+07    0.6419356256E+00    0.5941937081E-01    0.3851213607E-03    0.3811413547E-01    0.6258270700E+00
    0.1700000000E+07    0.6419381704E+00    0.5935995623E-01    0.3600540139E-03    0.3812291013E-01    0.6259316675E+00
    0.1900000000E+07    0.6419394024E+00    0.5930695942E-01    0.3391486433E-03    0.3813064929E-01    0.6260220865E+00
    0.2100000000E+07    0.6419397699E+00    0.5925912622E-01    0.3213756443E-03    0.3813757128E-01    0.6261015503E+00
    0.2300000000E+07    0.6419395526E+00    0.5921553799E-01    0.3060290465E-03    0.3814383202E-01    0.6261723152E+00
    0.2500000000E+07    0.6419389319E+00    0.5917550152E-01    0.2926066475E-03    0.3814954674E-01    0.6262360185E+00
    0.2700000000E+07    0.6419380296E+00    0.5913848082E-01    0.2807402483E-03    0.3815480297E-01    0.6262938833E+00
    0.2900000000E+07    0.6419369293E+00    0.5910405288E-01    0.2701529986E-03    0.3815966880E-01    0.6263468464E+00
    0.3100000000E+07    0.6419356900E+00    0.5907187794E-01    0.2606322278E-03    0.3816419819E-01    0.6263956398E+00
    0.3300000000E+07    0.6419343538E+00    0.5904167900E-01    0.2520115320E-03    0.3816843464E-01    0.6264408460E+00
    0.3500000000E+07    0.6419329512E+00    0.5901322721E-01    0.2441586103E-03    0.3817241373E-01    0.6264829355E+00
    0.3700000000E+07    0.6419315046E+00    0.5898633137E-01    0.2369667898E-03    0.3817616495E-01    0.6265222937E+00
    0.3900000000E+07    0.6419300309E+00    0.5896083004E-01    0.2303489878E-03    0.3817971298E-01    0.6265592399E+00
    0.4100000000E+07    0.6419285423E+00    0.5893658571E-01    0.2242333246E-03    0.3818307870E-01    0.6265940416E+00
    0.4300000000E+07    0.6419270484E+00    0.5891348024E-01    0.2185598792E-03    0.3818627994E-01    0.6266269246E+00
    0.4500000000E+07    0.6419255560E+00    0.5889141143E-01    0.2132782512E-03    0.3818933202E-01    0.6266580819E+00
    0.4700000000E+07    0.6419240706E+00    0.5887029026E-01    0.2083457045E-03    0.3819224822E-01    0.6266876788E+00
    0.4900000000E+07    0.6419225961E+00    0.5885003868E-01    0.2037257332E-03    0.3819504014E-01    0.6267158586E+00
    0.1000000000E+07    0.6419169224E+00    0.5960990717E-01    0.4789214597E-03    0.3808511334E-01    0.6254644476E+00
    0.3000000000E+07    0.6419363241E+00    0.5908770238E-01    0.2652706235E-03    0.3816197262E-01    0.6263717249E+00
    0.5000000000E+07    0.6419218639E+00    0.5884021719E-01    0.2015229785E-03    0.3819639272E-01    0.6267294567E+00
    0.7000000000E+07    0.6419082008E+00    0.5867633773E-01    0.1681459094E-03    0.3821884185E-01    0.6269502978E+00
    0.9000000000E+07    0.6418965045E+00    0.5855363602E-01    0.1468738284E-03    0.3823553215E-01    0.6271090689E+00
    0.1100000000E+08    0.6418864567E+00    0.5845553039E-01    0.1318367986E-03    0.3824882387E-01    0.6272325819E+00
    0.1300000000E+08    0.6418776988E+00    0.5837379552E-01    0.1204994201E-03    0.3825987019E-01    0.6273334353E+00
    0.1500000000E+08    0.6418699554E+00    0.5830374678E-01    0.1115658912E-03    0.3826932160E-01    0.6274185333E+00
    0.1700000000E+08    0.6418630236E+00    0.5824246070E-01    0.1042966634E-03    0.3827758133E-01    0.6274920597E+00
    0.1900000000E+08    0.6418567533E+00    0.5818798973E-01    0.9823518809E-04    0.3828491671E-01    0.6275567369E+00
    0.2100000000E+08    0.6418510311E+00    0.5813897096E-01    0.9308252670E-04    0.3829151408E-01    0.6276144340E+00
    0.2300000000E+08    0.6418457701E+00    0.5809441333E-01    0.8863374738E-04    0.3829750857E-01    0.6276664878E+00
    0.2500000000E+08    0.6418409021E+00    0.5805357354E-01    0.8474309404E-04    0.3830300127E-01    0.6277138875E+00
    0.2700000000E+08    0.6418363730E+00    0.5801587980E-01    0.8130371873E-04    0.3830806981E-01    0.6277573845E+00
