  Pressure (Pa) 22mC5-400 (mol/kg) 3mC6-400 (mol/kg) 33mC5-400 (mol/kg) 23mC5-400 (mol/kg) C7-400 (mol/kg)
    0.1000000000E+01    0.3180862351E-02    0.3671592502E-02    0.1288034965E-03    0.9308745915E-04    0.6809217108E-02
    0.3000000000E+01    0.9449172454E-02    0.1068326246E-01    0.3745065288E-03    0.2765310506E-03    0.1981574762E-01
    0.5000000000E+01    0.1559599239E-01    0.1728519189E-01    0.6054362941E-03    0.4564223950E-03    0.3206589300E-01
    0.7000000000E+01    0.2162487159E-01    0.2351226856E-01    0.8227832529E-03    0.6328652437E-03    0.4362395188E-01
    0.9000000000E+01    0.2753922200E-01    0.2939552892E-01    0.1027609738E-02    0.8059593309E-03    0.5454713061E-01
    0.1100000000E+02    0.3334232473E-01    0.3496267527E-01    0.1220867091E-02    0.9758005660E-03    0.6488649512E-01
    0.1300000000E+02    0.3903733620E-01    0.4023851171E-01    0.1403410100E-02    0.1142481215E-02    0.7468777343E-01
    0.1500000000E+02    0.4462729403E-01    0.4524531350E-01    0.1576009220E-02    0.1306090070E-02    0.8399203558E-01
    0.1700000000E+02    0.5011512259E-01    0.5000314128E-01    0.1739360975E-02    0.1466712616E-02    0.9283627210E-01
    0.1900000000E+02    0.5550363819E-01    0.5453010961E-01    0.1894096827E-02    0.1624431177E-02    0.1012538885E+00
    0.2100000000E+02    0.6079555403E-01    0.5884261736E-01    0.2040790800E-02    0.1779325065E-02    0.1092751292E+00
    0.2300000000E+02    0.6599348488E-01    0.6295554614E-01    0.2179966036E-02    0.1931470716E-02    0.1169274433E+00
    0.2500000000E+02    0.7109995153E-01    0.6688243178E-01    0.2312100461E-02    0.2080941815E-02    0.1242358000E+00
    0.2700000000E+02    0.7611738491E-01    0.7063561310E-01    0.2437631706E-02    0.2227809425E-02    0.1312229627E+00
    0.2900000000E+02    0.8104813010E-01    0.7422636137E-01    0.2556961383E-02    0.2372142099E-02    0.1379097274E+00
    0.3100000000E+02    0.8589445008E-01    0.7766499330E-01    0.2670458822E-02    0.2514005990E-02    0.1443151310E+00
    0.3300000000E+02    0.9065852931E-01    0.8096097002E-01    0.2778464349E-02    0.2653464954E-02    0.1504566330E+00
    0.3500000000E+02    0.9534247704E-01    0.8412298393E-01    0.2881292161E-02    0.2790580651E-02    0.1563502764E+00
    0.3700000000E+02    0.9994833062E-01    0.8715903528E-01    0.2979232857E-02    0.2925412640E-02    0.1620108277E+00
    0.3900000000E+02    0.1044780584E+00    0.9007649966E-01    0.3072555684E-02    0.3058018463E-02    0.1674519023E+00
    0.4100000000E+02    0.1089335629E+00    0.9288218782E-01    0.3161510516E-02    0.3188453732E-02    0.1726860738E+00
    0.4300000000E+02    0.1133166831E+00    0.9558239875E-01    0.3246329622E-02    0.3316772213E-02    0.1777249724E+00
    0.4500000000E+02    0.1176291974E+00    0.9818296683E-01    0.3327229231E-02    0.3443025894E-02    0.1825793715E+00
    0.4700000000E+02    0.1218728262E+00    0.1006893039E+00    0.3404410936E-02    0.3567265067E-02    0.1872592653E+00
    0.4900000000E+02    0.1260492338E+00    0.1031064368E+00    0.3478062947E-02    0.3689538389E-02    0.1917739379E+00
    0.1000000000E+02    0.3045447920E-01    0.3221700278E-01    0.1125629022E-02    0.8912807050E-03    0.5978681504E-01
    0.3000000000E+02    0.8348170491E-01    0.7596408158E-01    0.2614417217E-02    0.2443378599E-02    0.1411464732E+00
    0.5000000000E+02    0.1281127352E+00    0.1042830257E+00    0.3513620751E-02    0.3749952632E-02    0.1939720388E+00
    0.7000000000E+02    0.1662194963E+00    0.1241093826E+00    0.4076666354E-02    0.4865725640E-02    0.2310664173E+00
    0.9000000000E+02    0.1991531532E+00    0.1387632448E+00    0.4431268928E-02    0.5830199069E-02    0.2585648440E+00
    0.1100000000E+03    0.2279136117E+00    0.1500335516E+00    0.4649617414E-02    0.6672606942E-02    0.2797765482E+00
    0.1300000000E+03    0.2532569054E+00    0.1589695399E+00    0.4775767655E-02    0.7415054487E-02    0.2966444412E+00
    0.1500000000E+03    0.2757654644E+00    0.1662272653E+00    0.4838087035E-02    0.8074572006E-02    0.3103846155E+00
    0.1700000000E+03    0.2958954056E+00    0.1722380078E+00    0.4855564985E-02    0.8664497135E-02    0.3217973297E+00
    0.1900000000E+03    0.3140091500E+00    0.1772969475E+00    0.4841287069E-02    0.9195428291E-02    0.3314308627E+00
    0.2100000000E+03    0.3303984170E+00    0.1816129282E+00    0.4804471771E-02    0.9675896809E-02    0.3396735242E+00
    0.2300000000E+03    0.3453007504E+00    0.1853378734E+00    0.4751724780E-02    0.1011285005E-01    0.3468080769E+00
    0.2500000000E+03    0.3589116052E+00    0.1885849418E+00    0.4687842178E-02    0.1051200475E-01    0.3530453472E+00
    0.2700000000E+03    0.3713933284E+00    0.1914401503E+00    0.4616341280E-02    0.1087810955E-01    0.3585457547E+00
    0.2900000000E+03    0.3828819259E+00    0.1939700511E+00    0.4539820700E-02    0.1121514285E-01    0.3634335428E+00
    0.3100000000E+03    0.3934922299E+00    0.1962269423E+00    0.4460209918E-02    0.1152646387E-01    0.3678064426E+00
    0.3300000000E+03    0.4033218901E+00    0.1982524902E+00    0.4378945436E-02    0.1181492934E-01    0.3717423952E+00
    0.3500000000E+03    0.4124544924E+00    0.2000803001E+00    0.4297097067E-02    0.1208298472E-01    0.3753043248E+00
    0.3700000000E+03    0.4209620178E+00    0.2017377753E+00    0.4215459688E-02    0.1233273604E-01    0.3785435942E+00
    0.3900000000E+03    0.4289068016E+00    0.2032474844E+00    0.4134620681E-02    0.1256600724E-01    0.3815025466E+00
    0.4100000000E+03    0.4363431064E+00    0.2046281827E+00    0.4055009996E-02    0.1278438612E-01    0.3842164048E+00
    0.4300000000E+03    0.4433183954E+00    0.2058955845E+00    0.3976937657E-02    0.1298926162E-01    0.3867147101E+00
    0.4500000000E+03    0.4498743710E+00    0.2070629551E+00    0.3900622063E-02    0.1318185416E-01    0.3890224246E+00
    0.4700000000E+03    0.4560478283E+00    0.2081415700E+00    0.3826211497E-02    0.1336324062E-01    0.3911607868E+00
    0.4900000000E+03    0.4618713597E+00    0.2091410745E+00    0.3753800565E-02    0.1353437492E-01    0.3931479822E+00
    0.1000000000E+03    0.2140030265E+00    0.1447437315E+00    0.4554250254E-02    0.6265140663E-02    0.2698128661E+00
    0.3000000000E+03    0.3882903990E+00    0.1951298038E+00    0.4500301928E-02    0.1137382825E-01    0.3656790822E+00
    0.5000000000E+03    0.4646610856E+00    0.2096137999E+00    0.3718363019E-02    0.1361636628E-01    0.3940898734E+00
    0.7000000000E+03    0.5076628806E+00    0.2164274862E+00    0.3114891086E-02    0.1488125362E-01    0.4078511716E+00
    0.9000000000E+03    0.5352467402E+00    0.2203586076E+00    0.2677831284E-02    0.1569402054E-01    0.4160233391E+00
    0.1100000000E+04    0.5544365715E+00    0.2229004709E+00    0.2354852789E-02    0.1626042306E-01    0.4214620309E+00
    0.1300000000E+04    0.5685523519E+00    0.2246687512E+00    0.2108841724E-02    0.1667777329E-01    0.4253564588E+00
    0.1500000000E+04    0.5793680760E+00    0.2259632244E+00    0.1916024038E-02    0.1699809942E-01    0.4282913610E+00
    0.1700000000E+04    0.5879177520E+00    0.2269471331E+00    0.1761097363E-02    0.1725174476E-01    0.4305882531E+00
    0.1900000000E+04    0.5948446794E+00    0.2277168578E+00    0.1633953124E-02    0.1745759806E-01    0.4324387949E+00
    0.2100000000E+04    0.6005699686E+00    0.2283329044E+00    0.1527714103E-02    0.1762803121E-01    0.4339644625E+00
    0.2300000000E+04    0.6053807850E+00    0.2288351343E+00    0.1437567667E-02    0.1777148576E-01    0.4352460515E+00
    0.2500000000E+04    0.6094796455E+00    0.2292508518E+00    0.1360058351E-02    0.1789391833E-01    0.4363394343E+00
    0.2700000000E+04    0.6130134451E+00    0.2295993703E+00    0.1292647411E-02    0.1799965202E-01    0.4372845098E+00
    0.2900000000E+04    0.6160913122E+00    0.2298947250E+00    0.1233431014E-02    0.1809190030E-01    0.4381105494E+00
    0.3100000000E+04    0.6187960031E+00    0.2301473520E+00    0.1180955146E-02    0.1817310146E-01    0.4388395269E+00
    0.3300000000E+04    0.6211914093E+00    0.2303651668E+00    0.1134091074E-02    0.1824513906E-01    0.4394882678E+00
    0.3500000000E+04    0.6233276390E+00    0.2305542775E+00    0.1091949675E-02    0.1830949114E-01    0.4400698803E+00
    0.3700000000E+04    0.6252445407E+00    0.2307194696E+00    0.1053821295E-02    0.1836733380E-01    0.4405947323E+00
    0.3900000000E+04    0.6269741999E+00    0.2308645428E+00    0.1019132757E-02    0.1841961455E-01    0.4410711356E+00
    0.4100000000E+04    0.6285427401E+00    0.2309925509E+00    0.9874160942E-03    0.1846710529E-01    0.4415058340E+00
    0.4300000000E+04    0.6299716454E+00    0.2311059744E+00    0.9582854773E-03    0.1851044118E-01    0.4419043584E+00
    0.4500000000E+04    0.6312787459E+00    0.2312068479E+00    0.9314199315E-03    0.1855014968E-01    0.4422712891E+00
    0.4700000000E+04    0.6324789622E+00    0.2312968552E+00    0.9065502349E-03    0.1858667241E-01    0.4426104533E+00
    0.4900000000E+04    0.6335848757E+00    0.2313774006E+00    0.8834488622E-03    0.1862038196E-01    0.4429250742E+00
    0.1000000000E+04    0.5456322986E+00    0.2217538262E+00    0.2504778770E-02    0.1600043844E-01    0.4189892591E+00
    0.3000000000E+04    0.6174859381E+00    0.2300258354E+00    0.1206427529E-02    0.1813375307E-01    0.4384860181E+00
    0.5000000000E+04    0.6341058713E+00    0.2314145015E+00    0.8724996408E-03    0.1863628262E-01    0.4430740520E+00
    0.7000000000E+04    0.6414816018E+00    0.2318667142E+00    0.7116410409E-03    0.1886316412E-01    0.4452532387E+00
    0.9000000000E+04    0.6456450871E+00    0.2320351474E+00    0.6138200247E-03    0.1899339547E-01    0.4465722150E+00
    0.1100000000E+05    0.6483188198E+00    0.2320886748E+00    0.5466772194E-03    0.1907841091E-01    0.4474777595E+00
    0.1300000000E+05    0.6501807268E+00    0.2320881960E+00    0.4970533209E-03    0.1913857476E-01    0.4481494485E+00
    0.1500000000E+05    0.6515516523E+00    0.2320601299E+00    0.4585049541E-03    0.1918358133E-01    0.4486743591E+00
    0.1700000000E+05    0.6526030811E+00    0.2320173706E+00    0.4274698534E-03    0.1921864194E-01    0.4491002257E+00
    0.1900000000E+05    0.6534349809E+00    0.2319667382E+00    0.4018019940E-03    0.1924681189E-01    0.4494555943E+00
    0.2100000000E+05    0.6541095607E+00    0.2319120500E+00    0.3801230431E-03    0.1927000322E-01    0.4497586847E+00
    0.2300000000E+05    0.6546675581E+00    0.2318555291E+00    0.3615026990E-03    0.1928947506E-01    0.4500217294E+00
    0.2500000000E+05    0.6551367658E+00    0.2317985047E+00    0.3452876969E-03    0.1930609122E-01    0.4502532810E+00
    0.2700000000E+05    0.6555367947E+00    0.2317417826E+00    0.3310042342E-03    0.1932046460E-01    0.4504595207E+00
    0.2900000000E+05    0.6558818777E+00    0.2316858523E+00    0.3182992982E-03    0.1933304247E-01    0.4506450415E+00
    0.3100000000E+05    0.6561825951E+00    0.2316310069E+00    0.3069038228E-03    0.1934415912E-01    0.4508133368E+00
    0.3300000000E+05    0.6564469750E+00    0.2315774151E+00    0.2966086934E-03    0.1935406961E-01    0.4509671175E+00
    0.3500000000E+05    0.6566812195E+00    0.2315251659E+00    0.2872486249E-03    0.1936297202E-01    0.4511085247E+00
    0.3700000000E+05    0.6568901957E+00    0.2314742964E+00    0.2786910348E-03    0.1937102265E-01    0.4512392748E+00
    0.3900000000E+05    0.6570777764E+00    0.2314248105E+00    0.2708281808E-03    0.1937834653E-01    0.4513607629E+00
    0.4100000000E+05    0.6572470818E+00    0.2313766905E+00    0.2635714893E-03    0.1938504492E-01    0.4514741360E+00
    0.4300000000E+05    0.6574006536E+00    0.2313299047E+00    0.2568473892E-03    0.1939120077E-01    0.4515803479E+00
    0.4500000000E+05    0.6575405834E+00    0.2312844134E+00    0.2505941996E-03    0.1939688267E-01    0.4516801988E+00
    0.4700000000E+05    0.6576686078E+00    0.2312401719E+00    0.2447597719E-03    0.1940214787E-01    0.4517743663E+00
    0.4900000000E+05    0.6577861810E+00    0.2311971330E+00    0.2392996784E-03    0.1940704458E-01    0.4518634285E+00
    0.1000000000E+05    0.6471133270E+00    0.2320712371E+00    0.5774689763E-03    0.1903991021E-01    0.4470622282E+00
    0.3000000000E+05    0.6560372304E+00    0.2316582811E+00    0.3124521339E-03    0.1933876596E-01    0.4507311575E+00
    0.5000000000E+05    0.6578414393E+00    0.2311760495E+00    0.2366978814E-03    0.1940936777E-01    0.4519062031E+00
    0.7000000000E+05    0.6586146943E+00    0.2308063858E+00    0.1973809433E-03    0.1944377554E-01    0.4525844306E+00
    0.9000000000E+05    0.6590434786E+00    0.2305114305E+00    0.1724086394E-03    0.1946514176E-01    0.4530561034E+00
    0.1100000000E+06    0.6593156251E+00    0.2302669357E+00    0.1547849386E-03    0.1948015733E-01    0.4534160046E+00
    0.1300000000E+06    0.6595034626E+00    0.2300584137E+00    0.1415088703E-03    0.1949153041E-01    0.4537062732E+00
    0.1500000000E+06    0.6596407562E+00    0.2298767325E+00    0.1310527190E-03    0.1950058568E-01    0.4539491558E+00
    0.1700000000E+06    0.6597453799E+00    0.2297158120E+00    0.1225467423E-03    0.1950805613E-01    0.4541577756E+00
    0.1900000000E+06    0.6598276783E+00    0.2295714146E+00    0.1154549157E-03    0.1951438428E-01    0.4543405014E+00
    0.2100000000E+06    0.6598940520E+00    0.2294404741E+00    0.1094266733E-03    0.1951985520E-01    0.4545029872E+00
    0.2300000000E+06    0.6599486723E+00    0.2293207023E+00    0.1042218951E-03    0.1952466209E-01    0.4546492280E+00
    0.2500000000E+06    0.6599943739E+00    0.2292103474E+00    0.9966990509E-04    0.1952894119E-01    0.4547821484E+00
    0.2700000000E+06    0.6600331497E+00    0.2291080389E+00    0.9564564647E-04    0.1953279185E-01    0.4549039523E+00
    0.2900000000E+06    0.6600664417E+00    0.2290126846E+00    0.9205513424E-04    0.1953628849E-01    0.4550163409E+00
    0.3100000000E+06    0.6600953188E+00    0.2289234004E+00    0.8882619897E-04    0.1953948816E-01    0.4551206545E+00
    0.3300000000E+06    0.6601205899E+00    0.2288394605E+00    0.8590238928E-04    0.1954243549E-01    0.4552179675E+00
    0.3500000000E+06    0.6601428784E+00    0.2287602616E+00    0.8323883409E-04    0.1954516598E-01    0.4553091538E+00
    0.3700000000E+06    0.6601626726E+00    0.2286852973E+00    0.8079936159E-04    0.1954770828E-01    0.4553949343E+00
    0.3900000000E+06    0.6601803600E+00    0.2286141381E+00    0.7855444767E-04    0.1955008586E-01    0.4554759098E+00
    0.4100000000E+06    0.6601962522E+00    0.2285464165E+00    0.7647972578E-04    0.1955231812E-01    0.4555525869E+00
    0.4300000000E+06    0.6602106026E+00    0.2284818158E+00    0.7455488533E-04    0.1955442131E-01    0.4556253962E+00
    0.4500000000E+06    0.6602236193E+00    0.2284200613E+00    0.7276284436E-04    0.1955640914E-01    0.4556947069E+00
    0.4700000000E+06    0.6602354749E+00    0.2283609129E+00    0.7108911940E-04    0.1955829328E-01    0.4557608380E+00
    0.4900000000E+06    0.6602463134E+00    0.2283041596E+00    0.6952133919E-04    0.1956008376E-01    0.4558240667E+00
    0.1000000000E+06    0.6591932557E+00    0.2303839448E+00    0.1629160250E-03    0.1947322612E-01    0.4532467194E+00
    0.3000000000E+06    0.6600813765E+00    0.2289673324E+00    0.9039931012E-04    0.1953792241E-01    0.4550694346E+00
    0.5000000000E+06    0.6602513899E+00    0.2282766220E+00    0.6877379476E-04    0.1956094663E-01    0.4558546698E+00
    0.7000000000E+06    0.6603209172E+00    0.2278159748E+00    0.5744259742E-04    0.1957488334E-01    0.4563600612E+00
    0.9000000000E+06    0.6603576578E+00    0.2274698820E+00    0.5021585467E-04    0.1958485460E-01    0.4567330593E+00
    0.1100000000E+07    0.6603798222E+00    0.2271925826E+00    0.4510423925E-04    0.1959261027E-01    0.4570286719E+00
    0.1300000000E+07    0.6603943162E+00    0.2269612204E+00    0.4124823998E-04    0.1959895328E-01    0.4572734857E+00
    0.1500000000E+07    0.6604043162E+00    0.2267627228E+00    0.3820842288E-04    0.1960431779E-01    0.4574823868E+00
    0.1700000000E+07    0.6604114790E+00    0.2265889082E+00    0.3573390589E-04    0.1960896476E-01    0.4576645528E+00
    0.1900000000E+07    0.6604167494E+00    0.2264343146E+00    0.3366976095E-04    0.1961306320E-01    0.4578260416E+00
    0.2100000000E+07    0.6604207032E+00    0.2262951134E+00    0.3191451365E-04    0.1961672876E-01    0.4579710620E+00
    0.2300000000E+07    0.6604237099E+00    0.2261685171E+00    0.3039858048E-04    0.1962004406E-01    0.4581026568E+00
    0.2500000000E+07    0.6604260167E+00    0.2260524328E+00    0.2907245765E-04    0.1962307013E-01    0.4582230970E+00
    0.2700000000E+07    0.6604277948E+00    0.2259452489E+00    0.2789984695E-04    0.1962585335E-01    0.4583341227E+00
    0.2900000000E+07    0.6604291660E+00    0.2258456983E+00    0.2685345276E-04    0.1962842978E-01    0.4584370963E+00
    0.3100000000E+07    0.6604302190E+00    0.2257527665E+00    0.2591230497E-04    0.1963082802E-01    0.4585331047E+00
    0.3300000000E+07    0.6604310201E+00    0.2256656286E+00    0.2505999382E-04    0.1963307110E-01    0.4586230287E+00
    0.3500000000E+07    0.6604316191E+00    0.2255836051E+00    0.2428347117E-04    0.1963517788E-01    0.4587075921E+00
    0.3700000000E+07    0.6604320548E+00    0.2255061291E+00    0.2357221537E-04    0.1963716397E-01    0.4587873969E+00
    0.3900000000E+07    0.6604323570E+00    0.2254327234E+00    0.2291763616E-04    0.1963904245E-01    0.4588629490E+00
    0.4100000000E+07    0.6604325495E+00    0.2253629817E+00    0.2231264227E-04    0.1964082437E-01    0.4589346779E+00
    0.4300000000E+07    0.6604326513E+00    0.2252965561E+00    0.2175132159E-04    0.1964251918E-01    0.4590029512E+00
    0.4500000000E+07    0.6604326774E+00    0.2252331457E+00    0.2122870092E-04    0.1964413500E-01    0.4590680858E+00
    0.4700000000E+07    0.6604326405E+00    0.2251724888E+00    0.2074056291E-04    0.1964567887E-01    0.4591303570E+00
    0.4900000000E+07    0.6604325505E+00    0.2251143566E+00    0.2028330471E-04    0.1964715692E-01    0.4591900057E+00
    0.1000000000E+07    0.6603699988E+00    0.2273243807E+00    0.4746367364E-04    0.1958894685E-01    0.4568884915E+00
    0.3000000000E+07    0.6604297277E+00    0.2257984604E+00    0.2637083935E-04    0.1962964962E-01    0.4584859119E+00
    0.5000000000E+07    0.6604324883E+00    0.2250861733E+00    0.2006527002E-04    0.1964787297E-01    0.4592189136E+00
    0.7000000000E+07    0.6604298790E+00    0.2246167124E+00    0.1675989854E-04    0.1965975679E-01    0.4596995285E+00
    0.9000000000E+07    0.6604263301E+00    0.2242660376E+00    0.1465148475E-04    0.1966859128E-01    0.4600575717E+00
    0.1100000000E+08    0.6604227342E+00    0.2239860510E+00    0.1316005231E-04    0.1967562635E-01    0.4603429600E+00
    0.1300000000E+08    0.6604193170E+00    0.2237530004E+00    0.1203493145E-04    0.1968147266E-01    0.4605802283E+00
    0.1500000000E+08    0.6604161292E+00    0.2235533985E+00    0.1114794097E-04    0.1968647463E-01    0.4607832660E+00
    0.1700000000E+08    0.6604131690E+00    0.2233788464E+00    0.1042589126E-04    0.1969084576E-01    0.4609607028E+00
    0.1900000000E+08    0.6604104188E+00    0.2232237578E+00    0.9823581919E-05    0.1969472758E-01    0.4611182690E+00
    0.2100000000E+08    0.6604078574E+00    0.2230842286E+00    0.9311406185E-05    0.1969821875E-01    0.4612599638E+00
    0.2300000000E+08    0.6604054643E+00    0.2229574229E+00    0.8869061229E-05    0.1970139081E-01    0.4613886895E+00
    0.2500000000E+08    0.6604032209E+00    0.2228412152E+00    0.8482102626E-05    0.1970429727E-01    0.4615066188E+00
    0.2700000000E+08    0.6604011110E+00    0.2227339718E+00    0.8139938924E-05    0.1970697922E-01    0.4616154207E+00
