  Pressure (Pa) 22mC5-400 (mol/kg) 3mC6-400 (mol/kg) 33mC5-400 (mol/kg) 23mC5-400 (mol/kg) C7-400 (mol/kg)
    0.1000000000E+01    0.3180230491E-02    0.4224089164E-02    0.1942247551E-03    0.1861379645E-03    0.1713600979E-02
    0.3000000000E+01    0.9443609753E-02    0.1244944410E-01    0.5704613675E-03    0.5527367694E-03    0.5050830789E-02
    0.5000000000E+01    0.1558087423E-01    0.2039058118E-01    0.9311059482E-03    0.9119606063E-03    0.8273290266E-02
    0.7000000000E+01    0.2159587398E-01    0.2806203347E-01    0.1276941751E-02    0.1264034555E-02    0.1138683867E-01
    0.9000000000E+01    0.2749230306E-01    0.3547735893E-01    0.1608702240E-02    0.1609174580E-02    0.1439694245E-01
    0.1100000000E+02    0.3327370741E-01    0.4264922083E-01    0.1927075005E-02    0.1947587983E-02    0.1730870760E-01
    0.1300000000E+02    0.3894349214E-01    0.4958946037E-01    0.2232705306E-02    0.2279473837E-02    0.2012690895E-01
    0.1500000000E+02    0.4450492846E-01    0.5630916234E-01    0.2526199290E-02    0.2605023387E-02    0.2285601656E-01
    0.1700000000E+02    0.4996116019E-01    0.6281871462E-01    0.2808126921E-02    0.2924420432E-02    0.2550021970E-01
    0.1900000000E+02    0.5531520990E-01    0.6912786206E-01    0.3079024635E-02    0.3237841682E-02    0.2806344854E-01
    0.2100000000E+02    0.6056998468E-01    0.7524575552E-01    0.3339397776E-02    0.3545457098E-02    0.3054939391E-01
    0.2300000000E+02    0.6572828161E-01    0.8118099646E-01    0.3589722808E-02    0.3847430210E-02    0.3296152525E-01
    0.2500000000E+02    0.7079279291E-01    0.8694167757E-01    0.3830449349E-02    0.4143918418E-02    0.3530310698E-01
    0.2700000000E+02    0.7576611080E-01    0.9253541987E-01    0.4062002024E-02    0.4435073277E-02    0.3757721341E-01
    0.2900000000E+02    0.8065073212E-01    0.9796940655E-01    0.4284782172E-02    0.4721040765E-02    0.3978674243E-01
    0.3100000000E+02    0.8544906264E-01    0.1032504140E+00    0.4499169413E-02    0.5001961539E-02    0.4193442795E-01
    0.3300000000E+02    0.9016342120E-01    0.1083848403E+00    0.4705523082E-02    0.5277971172E-02    0.4402285140E-01
    0.3500000000E+02    0.9479604361E-01    0.1133787310E+00    0.4904183562E-02    0.5549200383E-02    0.4605445216E-01
    0.3700000000E+02    0.9934908630E-01    0.1182378034E+00    0.5095473500E-02    0.5815775254E-02    0.4803153726E-01
    0.3900000000E+02    0.1038246298E+00    0.1229674685E+00    0.5279698938E-02    0.6077817429E-02    0.4995629020E-01
    0.4100000000E+02    0.1082246823E+00    0.1275728509E+00    0.5457150354E-02    0.6335444312E-02    0.5183077914E-01
    0.4300000000E+02    0.1125511821E+00    0.1320588079E+00    0.5628103627E-02    0.6588769249E-02    0.5365696444E-01
    0.4500000000E+02    0.1168060017E+00    0.1364299466E+00    0.5792820931E-02    0.6837901702E-02    0.5543670554E-01
    0.4700000000E+02    0.1209909493E+00    0.1406906398E+00    0.5951551560E-02    0.7082947413E-02    0.5717176744E-01
    0.4900000000E+02    0.1251077727E+00    0.1448450406E+00    0.6104532700E-02    0.7324008561E-02    0.5886382659E-01
    0.1000000000E+02    0.3039716729E-01    0.3909296429E-01    0.1769520807E-02    0.1779209479E-02    0.1586481149E-01
    0.3000000000E+02    0.8306053681E-01    0.1006286243E+00    0.4393001988E-02    0.4862123401E-02    0.4086815084E-01
    0.5000000000E+02    0.1271411679E+00    0.1468836226E+00    0.6178938197E-02    0.7443075919E-02    0.5969423118E-01
    0.7000000000E+02    0.1646151260E+00    0.1829371861E+00    0.7414674448E-02    0.9637602879E-02    0.7439280650E-01
    0.9000000000E+02    0.1968908074E+00    0.2118399810E+00    0.8275636723E-02    0.1152805469E-01    0.8619571128E-01
    0.1100000000E+03    0.2249994275E+00    0.2355352111E+00    0.8874280632E-02    0.1317473107E-01    0.9588804989E-01
    0.1300000000E+03    0.2497136897E+00    0.2553195570E+00    0.9285444678E-02    0.1462281798E-01    0.1039940159E+00
    0.1500000000E+03    0.2716243142E+00    0.2720915509E+00    0.9560428677E-02    0.1590686142E-01    0.1108770554E+00
    0.1700000000E+03    0.2911908876E+00    0.2864935930E+00    0.9735248724E-02    0.1705374004E-01    0.1167971600E+00
    0.1900000000E+03    0.3087765443E+00    0.2989972118E+00    0.9835693647E-02    0.1808469277E-01    0.1219452739E+00
    0.2100000000E+03    0.3246721731E+00    0.3099563812E+00    0.9880535138E-02    0.1901673401E-01    0.1264648186E+00
    0.2300000000E+03    0.3391136627E+00    0.3196420381E+00    0.9883627540E-02    0.1986366193E-01    0.1304656329E+00
    0.2500000000E+03    0.3522944151E+00    0.3282651071E+00    0.9855316534E-02    0.2063679015E-01    0.1340332740E+00
    0.2700000000E+03    0.3643745781E+00    0.3359922624E+00    0.9803404930E-02    0.2134548749E-01    0.1372353876E+00
    0.2900000000E+03    0.3754879596E+00    0.3429569669E+00    0.9733827427E-02    0.2199758231E-01    0.1401261704E+00
    0.3100000000E+03    0.3857472760E+00    0.3492673621E+00    0.9651129864E-02    0.2259966943E-01    0.1427495610E+00
    0.3300000000E+03    0.3952481877E+00    0.3550120088E+00    0.9558814624E-02    0.2315734607E-01    0.1451415622E+00
    0.3500000000E+03    0.4040724361E+00    0.3602641332E+00    0.9459592820E-02    0.2367539530E-01    0.1473319590E+00
    0.3700000000E+03    0.4122903090E+00    0.3650848124E+00    0.9355570561E-02    0.2415793023E-01    0.1493456087E+00
    0.3900000000E+03    0.4199625958E+00    0.3695253977E+00    0.9248387974E-02    0.2460850835E-01    0.1512034216E+00
    0.4100000000E+03    0.4271421536E+00    0.3736293792E+00    0.9139323954E-02    0.2503022312E-01    0.1529231168E+00
    0.4300000000E+03    0.4338751706E+00    0.3774338368E+00    0.9029375755E-02    0.2542577787E-01    0.1545198097E+00
    0.4500000000E+03    0.4402021944E+00    0.3809705812E+00    0.8919319942E-02    0.2579754593E-01    0.1560064751E+00
    0.4700000000E+03    0.4461589740E+00    0.3842670596E+00    0.8809759394E-02    0.2614761987E-01    0.1573943139E+00
    0.4900000000E+03    0.4517771546E+00    0.3873470796E+00    0.8701159789E-02    0.2647785216E-01    0.1586930474E+00
    0.1000000000E+03    0.2114127000E+00    0.2242459491E+00    0.8602391869E-02    0.1237874799E-01    0.9126827697E-01
    0.3000000000E+03    0.3807180379E+00    0.3461880150E+00    0.9693878631E-02    0.2230450599E-01    0.1414688761E+00
    0.5000000000E+03    0.4544681812E+00    0.3888125090E+00    0.8647335491E-02    0.2663604936E-01    0.1593116921E+00
    0.7000000000E+03    0.4959208727E+00    0.4106209185E+00    0.7671149392E-02    0.2907497547E-01    0.1685867384E+00
    0.9000000000E+03    0.5224793691E+00    0.4238982090E+00    0.6899889410E-02    0.3064031552E-01    0.1743211435E+00
    0.1100000000E+04    0.5409362675E+00    0.4328411927E+00    0.6294138313E-02    0.3173005065E-01    0.1782421790E+00
    0.1300000000E+04    0.5544994751E+00    0.4392781188E+00    0.5809685525E-02    0.3253224756E-01    0.1811064596E+00
    0.1500000000E+04    0.5648822101E+00    0.4441342927E+00    0.5414000569E-02    0.3314740545E-01    0.1832989891E+00
    0.1700000000E+04    0.5730825722E+00    0.4479287414E+00    0.5084473882E-02    0.3363410862E-01    0.1850368735E+00
    0.1900000000E+04    0.5797212053E+00    0.4509753543E+00    0.4805345793E-02    0.3402880779E-01    0.1864520984E+00
    0.2100000000E+04    0.5852041740E+00    0.4534752169E+00    0.4565431594E-02    0.3435536531E-01    0.1876296555E+00
    0.2300000000E+04    0.5898082329E+00    0.4555631580E+00    0.4356621296E-02    0.3463005419E-01    0.1886268248E+00
    0.2500000000E+04    0.5937284504E+00    0.4573329899E+00    0.4172908321E-02    0.3486435105E-01    0.1894836635E+00
    0.2700000000E+04    0.5971062428E+00    0.4588520183E+00    0.4009755178E-02    0.3506658081E-01    0.1902290557E+00
    0.2900000000E+04    0.6000466126E+00    0.4601697956E+00    0.3863671913E-02    0.3524292841E-01    0.1908843736E+00
    0.3100000000E+04    0.6026291473E+00    0.4613236177E+00    0.3731930316E-02    0.3539808447E-01    0.1914657827E+00
    0.3300000000E+04    0.6049152610E+00    0.4623420961E+00    0.3612366229E-02    0.3553567069E-01    0.1919857459E+00
    0.3500000000E+04    0.6069530962E+00    0.4632475487E+00    0.3503240172E-02    0.3565852775E-01    0.1924540324E+00
    0.3700000000E+04    0.6087809210E+00    0.4640576416E+00    0.3403137275E-02    0.3576891501E-01    0.1928784128E+00
    0.3900000000E+04    0.6104295346E+00    0.4647865417E+00    0.3310894258E-02    0.3586865194E-01    0.1932651490E+00
    0.4100000000E+04    0.6119240028E+00    0.4654457428E+00    0.3225545297E-02    0.3595922015E-01    0.1936193458E+00
    0.4300000000E+04    0.6132849317E+00    0.4660446682E+00    0.3146281347E-02    0.3604183837E-01    0.1939452084E+00
    0.4500000000E+04    0.6145294158E+00    0.4665911169E+00    0.3072419160E-02    0.3611751822E-01    0.1942462340E+00
    0.4700000000E+04    0.6156717553E+00    0.4670915995E+00    0.3003377409E-02    0.3618710646E-01    0.1945253557E+00
    0.4900000000E+04    0.6167240039E+00    0.4675515934E+00    0.2938658087E-02    0.3625131724E-01    0.1947850531E+00
    0.1000000000E+04    0.5324705974E+00    0.4287665899E+00    0.6579345769E-02    0.3122998433E-01    0.1764484552E+00
    0.3000000000E+04    0.6013784114E+00    0.4607652418E+00    0.3796155023E-02    0.3532290787E-01    0.1911834647E+00
    0.5000000000E+04    0.6172196029E+00    0.4677678858E+00    0.2907782824E-02    0.3628159925E-01    0.1949082898E+00
    0.7000000000E+04    0.6242269063E+00    0.4707941233E+00    0.2438550711E-02    0.3671323508E-01    0.1967321674E+00
    0.9000000000E+04    0.6281735841E+00    0.4724581834E+00    0.2138046028E-02    0.3696057020E-01    0.1978578801E+00
    0.1100000000E+05    0.6307036636E+00    0.4734970718E+00    0.1924833235E-02    0.3712183491E-01    0.1986418067E+00
    0.1300000000E+05    0.6324629525E+00    0.4741987265E+00    0.1763582177E-02    0.3723585337E-01    0.1992297200E+00
    0.1500000000E+05    0.6337566509E+00    0.4746985897E+00    0.1636184521E-02    0.3732108384E-01    0.1996932447E+00
    0.1700000000E+05    0.6347476918E+00    0.4750686232E+00    0.1532281191E-02    0.3738743889E-01    0.2000720641E+00
    0.1900000000E+05    0.6355309645E+00    0.4753505208E+00    0.1445463886E-02    0.3744072535E-01    0.2003901217E+00
    0.2100000000E+05    0.6361654675E+00    0.4755700608E+00    0.1371528603E-02    0.3748457475E-01    0.2006628170E+00
    0.2300000000E+05    0.6366898071E+00    0.4757440097E+00    0.1307588295E-02    0.3752137718E-01    0.2009005588E+00
    0.2500000000E+05    0.6371303042E+00    0.4758837243E+00    0.1251586210E-02    0.3755277150E-01    0.2011106677E+00
    0.2700000000E+05    0.6375055196E+00    0.4759971578E+00    0.1202012322E-02    0.3757992001E-01    0.2012984633E+00
    0.2900000000E+05    0.6378289163E+00    0.4760900370E+00    0.1157729760E-02    0.3760367059E-01    0.2014679169E+00
    0.3100000000E+05    0.6381104969E+00    0.4761665840E+00    0.1117864128E-02    0.3762465671E-01    0.2016220628E+00
    0.3300000000E+05    0.6383578475E+00    0.4762299754E+00    0.1081730469E-02    0.3764336154E-01    0.2017632650E+00
    0.3500000000E+05    0.6385768260E+00    0.4762826434E+00    0.1048783600E-02    0.3766016023E-01    0.2018933975E+00
    0.3700000000E+05    0.6387720270E+00    0.4763264791E+00    0.1018583493E-02    0.3767534870E-01    0.2020139679E+00
    0.3900000000E+05    0.6389471051E+00    0.4763629733E+00    0.9907705732E-03    0.3768916360E-01    0.2021262051E+00
    0.4100000000E+05    0.6391050034E+00    0.4763933154E+00    0.9650477676E-03    0.3770179658E-01    0.2022311232E+00
    0.4300000000E+05    0.6392481184E+00    0.4764184645E+00    0.9411672045E-03    0.3771340455E-01    0.2023295669E+00
    0.4500000000E+05    0.6393784214E+00    0.4764392018E+00    0.9189202215E-03    0.3772411725E-01    0.2024222475E+00
    0.4700000000E+05    0.6394975486E+00    0.4764561691E+00    0.8981297426E-03    0.3773404300E-01    0.2025097684E+00
    0.4900000000E+05    0.6396068693E+00    0.4764698980E+00    0.8786443916E-03    0.3774327292E-01    0.2025926455E+00
    0.1000000000E+05    0.6295634299E+00    0.4730324409E+00    0.2023321847E-02    0.3704882408E-01    0.1982808915E+00
    0.3000000000E+05    0.6379744122E+00    0.4761301331E+00    0.1137291406E-02    0.3761447606E-01    0.2015467423E+00
    0.5000000000E+05    0.6396582204E+00    0.4764756894E+00    0.8693497083E-03    0.3774765155E-01    0.2026324840E+00
    0.7000000000E+05    0.6403743669E+00    0.4764982170E+00    0.7281584796E-03    0.3781247185E-01    0.2032669486E+00
    0.9000000000E+05    0.6407686587E+00    0.4764387208E+00    0.6378002566E-03    0.3785269543E-01    0.2037109283E+00
    0.1100000000E+06    0.6410171842E+00    0.4763540835E+00    0.5737334584E-03    0.3788095153E-01    0.2040509452E+00
    0.1300000000E+06    0.6411875483E+00    0.4762626253E+00    0.5253150177E-03    0.3790234748E-01    0.2043258354E+00
    0.1500000000E+06    0.6413112249E+00    0.4761711853E+00    0.4870888375E-03    0.3791938002E-01    0.2045562356E+00
    0.1700000000E+06    0.6414048317E+00    0.4760824581E+00    0.4559333836E-03    0.3793343001E-01    0.2047543768E+00
    0.1900000000E+06    0.6414779621E+00    0.4759974582E+00    0.4299177285E-03    0.3794533076E-01    0.2049280865E+00
    0.2100000000E+06    0.6415365372E+00    0.4759164708E+00    0.4077753630E-03    0.3795561899E-01    0.2050826681E+00
    0.2300000000E+06    0.6415844069E+00    0.4758394560E+00    0.3886367564E-03    0.3796465829E-01    0.2052218766E+00
    0.2500000000E+06    0.6416241808E+00    0.4757662309E+00    0.3718826457E-03    0.3797270505E-01    0.2053484663E+00
    0.2700000000E+06    0.6416576896E+00    0.4756965569E+00    0.3570585393E-03    0.3797994617E-01    0.2054645156E+00
    0.2900000000E+06    0.6416862547E+00    0.4756301806E+00    0.3438223834E-03    0.3798652165E-01    0.2055716312E+00
    0.3100000000E+06    0.6417108532E+00    0.4755668536E+00    0.3319111950E-03    0.3799253880E-01    0.2056710799E+00
    0.3300000000E+06    0.6417322231E+00    0.4755063422E+00    0.3211190416E-03    0.3799808154E-01    0.2057638782E+00
    0.3500000000E+06    0.6417509317E+00    0.4754484305E+00    0.3112820755E-03    0.3800321662E-01    0.2058508538E+00
    0.3700000000E+06    0.6417674223E+00    0.4753929212E+00    0.3022680981E-03    0.3800799795E-01    0.2059326896E+00
    0.3900000000E+06    0.6417820459E+00    0.4753396351E+00    0.2939691208E-03    0.3801246961E-01    0.2060099555E+00
    0.4100000000E+06    0.6417950841E+00    0.4752884101E+00    0.2862959547E-03    0.3801666811E-01    0.2060831317E+00
    0.4300000000E+06    0.6418067656E+00    0.4752390992E+00    0.2791742074E-03    0.3802062398E-01    0.2061526272E+00
    0.4500000000E+06    0.6418172775E+00    0.4751915695E+00    0.2725412738E-03    0.3802436300E-01    0.2062187923E+00
    0.4700000000E+06    0.6418267746E+00    0.4751457006E+00    0.2663440418E-03    0.3802790711E-01    0.2062819301E+00
    0.4900000000E+06    0.6418353860E+00    0.4751013832E+00    0.2605371213E-03    0.3803127516E-01    0.2063423041E+00
    0.1000000000E+06    0.6409056461E+00    0.4763979797E+00    0.6033219787E-03    0.3786790961E-01    0.2038908915E+00
    0.3000000000E+06    0.6416989990E+00    0.4755981509E+00    0.3377151738E-03    0.3798959431E-01    0.2056222453E+00
    0.5000000000E+06    0.6418393942E+00    0.4750797749E+00    0.2577676079E-03    0.3803289833E-01    0.2063715278E+00
    0.7000000000E+06    0.6418920935E+00    0.4747091856E+00    0.2157327046E-03    0.3805911952E-01    0.2068543573E+00
    0.9000000000E+06    0.6419172619E+00    0.4744210830E+00    0.1888672475E-03    0.3807788567E-01    0.2072109513E+00
    0.1100000000E+07    0.6419306715E+00    0.4741853538E+00    0.1698358846E-03    0.3809248576E-01    0.2074937099E+00
    0.1300000000E+07    0.6419381522E+00    0.4739858102E+00    0.1554623543E-03    0.3810442906E-01    0.2077279800E+00
    0.1500000000E+07    0.6419423164E+00    0.4738127684E+00    0.1441202001E-03    0.3811453176E-01    0.2079279601E+00
    0.1700000000E+07    0.6419444899E+00    0.4736599777E+00    0.1348797037E-03    0.3812328452E-01    0.2081024067E+00
    0.1900000000E+07    0.6419454077E+00    0.4735231691E+00    0.1271661556E-03    0.3813100516E-01    0.2082571010E+00
    0.2100000000E+07    0.6419455042E+00    0.4733992975E+00    0.1206028146E-03    0.3813791117E-01    0.2083960606E+00
    0.2300000000E+07    0.6419450499E+00    0.4732861138E+00    0.1149311499E-03    0.3814415793E-01    0.2085221903E+00
    0.2500000000E+07    0.6419442194E+00    0.4731819100E+00    0.1099671159E-03    0.3814986027E-01    0.2086376586E+00
    0.2700000000E+07    0.6419431295E+00    0.4730853580E+00    0.1055756849E-03    0.3815510545E-01    0.2087441271E+00
    0.2900000000E+07    0.6419418601E+00    0.4729954046E+00    0.1016552653E-03    0.3815996131E-01    0.2088428971E+00
    0.3100000000E+07    0.6419404672E+00    0.4729112008E+00    0.9812777121E-04    0.3816448164E-01    0.2089350067E+00
    0.3300000000E+07    0.6419389905E+00    0.4728320515E+00    0.9493207131E-04    0.3816870981E-01    0.2090212975E+00
    0.3500000000E+07    0.6419374588E+00    0.4727573812E+00    0.9201953774E-04    0.3817268130E-01    0.2091024608E+00
    0.3700000000E+07    0.6419358930E+00    0.4726867074E+00    0.8935094353E-04    0.3817642550E-01    0.2091790719E+00
    0.3900000000E+07    0.6419343087E+00    0.4726196216E+00    0.8689425112E-04    0.3817996701E-01    0.2092516142E+00
    0.4100000000E+07    0.6419327171E+00    0.4725557753E+00    0.8462300475E-04    0.3818332667E-01    0.2093204982E+00
    0.4300000000E+07    0.6419311269E+00    0.4724948683E+00    0.8251514099E-04    0.3818652223E-01    0.2093860751E+00
    0.4500000000E+07    0.6419295442E+00    0.4724366406E+00    0.8055209489E-04    0.3818956899E-01    0.2094486480E+00
    0.4700000000E+07    0.6419279739E+00    0.4723808652E+00    0.7871811862E-04    0.3819248020E-01    0.2095084801E+00
    0.4900000000E+07    0.6419264194E+00    0.4723273428E+00    0.7699975543E-04    0.3819526741E-01    0.2095658015E+00
    0.1000000000E+07    0.6419249579E+00    0.4742978904E+00    0.1786235381E-03    0.3808558894E-01    0.2073596086E+00
    0.3000000000E+07    0.6419411763E+00    0.4729526306E+00    0.9984656047E-04    0.3816226049E-01    0.2088897279E+00
    0.5000000000E+07    0.6419256488E+00    0.4723013707E+00    0.7618024700E-04    0.3819661773E-01    0.2095935848E+00
    0.7000000000E+07    0.6419113882E+00    0.4718666151E+00    0.6374479494E-04    0.3821903173E-01    0.2100558269E+00
    0.9000000000E+07    0.6418992921E+00    0.4715394859E+00    0.5579972212E-04    0.3823569856E-01    0.2104006037E+00
    0.1100000000E+08    0.6418889504E+00    0.4712770044E+00    0.5017270712E-04    0.3824897307E-01    0.2106756919E+00
    0.1300000000E+08    0.6418799637E+00    0.4710577221E+00    0.4592354051E-04    0.3826000601E-01    0.2109045908E+00
    0.1500000000E+08    0.6418720348E+00    0.4708693714E+00    0.4257091882E-04    0.3826944660E-01    0.2111006109E+00
    0.1700000000E+08    0.6418649483E+00    0.4707042714E+00    0.3983977956E-04    0.3827769733E-01    0.2112720272E+00
    0.1900000000E+08    0.6418585460E+00    0.4705572918E+00    0.3756012105E-04    0.3828502503E-01    0.2114243367E+00
    0.2100000000E+08    0.6418527093E+00    0.4704248346E+00    0.3562051688E-04    0.3829161576E-01    0.2115613776E+00
    0.2300000000E+08    0.6418473477E+00    0.4703042785E+00    0.3394451173E-04    0.3829760442E-01    0.2116859365E+00
    0.2500000000E+08    0.6418423901E+00    0.4701936542E+00    0.3247768304E-04    0.3830309195E-01    0.2118001002E+00
    0.2700000000E+08    0.6418377804E+00    0.4700914446E+00    0.3118010614E-04    0.3830815585E-01    0.2119054725E+00
