  Pressure (Pa) 22mC5-400 (mol/kg) 3mC6-400 (mol/kg) 33mC5-400 (mol/kg) 23mC5-400 (mol/kg) C7-400 (mol/kg)
    0.1000000000E+01    0.3180651368E-02    0.1042579054E-02    0.1922382833E-03    0.9308128774E-04    0.1353514249E-01
    0.3000000000E+01    0.9447321288E-02    0.2998401068E-02    0.5537169464E-03    0.2764769020E-03    0.3893432707E-01
    0.5000000000E+01    0.1559097836E-01    0.4798878726E-02    0.8874513247E-03    0.4562757280E-03    0.6232602067E-01
    0.7000000000E+01    0.2161528699E-01    0.6461795919E-02    0.1196477681E-02    0.6325848797E-03    0.8393966735E-01
    0.9000000000E+01    0.2752376669E-01    0.8002322281E-02    0.1483387474E-02    0.8055072359E-03    0.1039710097E+00
    0.1100000000E+02    0.3331979912E-01    0.9433476475E-02    0.1750406944E-02    0.9751416474E-03    0.1225880585E+00
    0.1300000000E+02    0.3900663483E-01    0.1076649434E-01    0.1999460192E-02    0.1141583132E-02    0.1399358365E+00
    0.1500000000E+02    0.4458739947E-01    0.1201112392E-01    0.2232219601E-02    0.1304923057E-02    0.1561401809E+00
    0.1700000000E+02    0.5006509977E-01    0.1317586382E-01    0.2450146462E-02    0.1465249315E-02    0.1713108151E+00
    0.1900000000E+02    0.5544262914E-01    0.1426815714E-01    0.2654523958E-02    0.1622646486E-02    0.1855438486E+00
    0.2100000000E+02    0.6072277292E-01    0.1529455039E-01    0.2846484121E-02    0.1777195992E-02    0.1989238253E+00
    0.2300000000E+02    0.6590821341E-01    0.1626082453E-01    0.3027030013E-02    0.1928976240E-02    0.2115254130E+00
    0.2500000000E+02    0.7100153456E-01    0.1717210367E-01    0.3197054088E-02    0.2078062768E-02    0.2234148048E+00
    0.2700000000E+02    0.7600522645E-01    0.1803294581E-01    0.3357353480E-02    0.2224528366E-02    0.2346508889E+00
    0.2900000000E+02    0.8092168952E-01    0.1884741888E-01    0.3508642803E-02    0.2368443206E-02    0.2452862295E+00
    0.3100000000E+02    0.8575323855E-01    0.1961916488E-01    0.3651564922E-02    0.2509874956E-02    0.2553678934E+00
    0.3300000000E+02    0.9050210644E-01    0.2035145420E-01    0.3786700056E-02    0.2648888890E-02    0.2649381514E+00
    0.3500000000E+02    0.9517044784E-01    0.2104723186E-01    0.3914573520E-02    0.2785547995E-02    0.2740350734E+00
    0.3700000000E+02    0.9976034250E-01    0.2170915694E-01    0.4035662324E-02    0.2919913070E-02    0.2826930383E+00
    0.3900000000E+02    0.1042737985E+00    0.2233963650E-01    0.4150400827E-02    0.3052042819E-02    0.2909431711E+00
    0.4100000000E+02    0.1087127554E+00    0.2294085472E-01    0.4259185610E-02    0.3181993941E-02    0.2988137184E+00
    0.4300000000E+02    0.1130790871E+00    0.2351479811E-01    0.4362379673E-02    0.3309821216E-02    0.3063303745E+00
    0.4500000000E+02    0.1173746043E+00    0.2406327741E-01    0.4460316078E-02    0.3435577584E-02    0.3135165630E+00
    0.4700000000E+02    0.1216010577E+00    0.2458794655E-01    0.4553301122E-02    0.3559314221E-02    0.3203936827E+00
    0.4900000000E+02    0.1257601402E+00    0.2509031933E-01    0.4641617096E-02    0.3681080617E-02    0.3269813215E+00
    0.1000000000E+02    0.3043563266E-01    0.8730830644E-02    0.1619256807E-02    0.8907294085E-03    0.1134467667E+00
    0.3000000000E+02    0.8334793686E-01    0.1923842023E-01    0.3581112128E-02    0.2439465333E-02    0.2503935241E+00
    0.5000000000E+02    0.1278149311E+00    0.2533358292E-01    0.4684106436E-02    0.3741239994E-02    0.3301722584E+00
    0.7000000000E+02    0.1657451568E+00    0.2931080006E-01    0.5342655675E-02    0.4851847257E-02    0.3824503847E+00
    0.9000000000E+02    0.1985082003E+00    0.3210887414E-01    0.5738761345E-02    0.5811327561E-02    0.4193845016E+00
    0.1100000000E+03    0.2271126704E+00    0.3418328552E-01    0.5967945545E-02    0.6649169674E-02    0.4468812984E+00
    0.1300000000E+03    0.2523180800E+00    0.3578174983E-01    0.6086159484E-02    0.7387580757E-02    0.4681578543E+00
    0.1500000000E+03    0.2747075561E+00    0.3705054914E-01    0.6128597475E-02    0.8043611634E-02    0.4851166992E+00
    0.1700000000E+03    0.2947364775E+00    0.3808162480E-01    0.6118493882E-02    0.8630578457E-02    0.4989553503E+00
    0.1900000000E+03    0.3127658410E+00    0.3893566322E-01    0.6071717921E-02    0.9159038056E-02    0.5104653809E+00
    0.2100000000E+03    0.3290856703E+00    0.3965433445E-01    0.5999378080E-02    0.9637472222E-02    0.5201911075E+00
    0.2300000000E+03    0.3439317683E+00    0.4026719793E-01    0.5909391991E-02    0.1007277744E-01    0.5285192078E+00
    0.2500000000E+03    0.3574979232E+00    0.4079580284E-01    0.5807478343E-02    0.1047062170E-01    0.5357319797E+00
    0.2700000000E+03    0.3699449455E+00    0.4125622829E-01    0.5697807078E-02    0.1083570872E-01    0.5420403639E+00
    0.2900000000E+03    0.3814074588E+00    0.4166071460E-01    0.5583438220E-02    0.1117197647E-01    0.5476051706E+00
    0.3100000000E+03    0.3919990695E+00    0.4201874381E-01    0.5466625142E-02    0.1148274833E-01    0.5525511495E+00
    0.3300000000E+03    0.4018163520E+00    0.4233777470E-01    0.5349028251E-02    0.1177084956E-01    0.5569765711E+00
    0.3500000000E+03    0.4109419545E+00    0.4262375473E-01    0.5231868013E-02    0.1203869818E-01    0.5609599050E+00
    0.3700000000E+03    0.4194470453E+00    0.4288148406E-01    0.5116036049E-02    0.1228837645E-01    0.5645645733E+00
    0.3900000000E+03    0.4273932568E+00    0.4311487920E-01    0.5002176726E-02    0.1252168773E-01    0.5678423959E+00
    0.4100000000E+03    0.4348342454E+00    0.4332716725E-01    0.4890747690E-02    0.1274020210E-01    0.5708361308E+00
    0.4300000000E+03    0.4418169526E+00    0.4352103096E-01    0.4782065147E-02    0.1294529322E-01    0.5735813738E+00
    0.4500000000E+03    0.4483826325E+00    0.4369871880E-01    0.4676337996E-02    0.1313816838E-01    0.5761080000E+00
    0.4700000000E+03    0.4545676944E+00    0.4386212923E-01    0.4573693725E-02    0.1331989317E-01    0.5784412695E+00
    0.4900000000E+03    0.4604044000E+00    0.4401287621E-01    0.4474198147E-02    0.1349141183E-01    0.5806026866E+00
    0.1000000000E+03    0.2132779470E+00    0.3321786053E-01    0.5870086508E-02    0.6243923943E-02    0.4340701099E+00
    0.3000000000E+03    0.3868057320E+00    0.4184502961E-01    0.5525221571E-02    0.1133036231E-01    0.5501488406E+00
    0.5000000000E+03    0.4632012113E+00    0.4408394032E-01    0.4425638617E-02    0.1357360998E-01    0.5816248126E+00
    0.7000000000E+03    0.5063769380E+00    0.4508969364E-01    0.3610561559E-02    0.1484358013E-01    0.5963800475E+00
    0.9000000000E+03    0.5341353615E+00    0.4565059230E-01    0.3033441052E-02    0.1566145308E-01    0.6049714895E+00
    0.1100000000E+04    0.5534726991E+00    0.4600262759E-01    0.2614711840E-02    0.1623217210E-01    0.6106071522E+00
    0.1300000000E+04    0.5677082902E+00    0.4624067893E-01    0.2300954287E-02    0.1665302939E-01    0.6145954257E+00
    0.1500000000E+04    0.5786208286E+00    0.4641010146E-01    0.2058723562E-02    0.1697619006E-01    0.6175706266E+00
    0.1700000000E+04    0.5872492178E+00    0.4653522928E-01    0.1866810564E-02    0.1723214036E-01    0.6198778718E+00
    0.1900000000E+04    0.5942407813E+00    0.4663024760E-01    0.1711369164E-02    0.1743988668E-01    0.6217211716E+00
    0.2100000000E+04    0.6000197313E+00    0.4670396050E-01    0.1583075854E-02    0.1761189161E-01    0.6232289303E+00
    0.2300000000E+04    0.6048755815E+00    0.4676210733E-01    0.1475467298E-02    0.1775666538E-01    0.6244860403E+00
    0.2500000000E+04    0.6090126246E+00    0.4680858053E-01    0.1383943669E-02    0.1788021657E-01    0.6255508967E+00
    0.2700000000E+04    0.6125791072E+00    0.4684610733E-01    0.1305153748E-02    0.1798690785E-01    0.6264650017E+00
    0.2900000000E+04    0.6156851955E+00    0.4687665138E-01    0.1236604577E-02    0.1807998305E-01    0.6272586704E+00
    0.3100000000E+04    0.6184144511E+00    0.4690165966E-01    0.1176406916E-02    0.1816190404E-01    0.6279545683E+00
    0.3300000000E+04    0.6208313968E+00    0.4692221993E-01    0.1123105108E-02    0.1823457285E-01    0.6285699855E+00
    0.3500000000E+04    0.6229866407E+00    0.4693916418E-01    0.1075560772E-02    0.1829948217E-01    0.6291183438E+00
    0.3700000000E+04    0.6249204313E+00    0.4695313851E-01    0.1032871656E-02    0.1835781981E-01    0.6296102236E+00
    0.3900000000E+04    0.6266651771E+00    0.4696465148E-01    0.9943139500E-03    0.1841054273E-01    0.6300540794E+00
    0.4100000000E+04    0.6282472644E+00    0.4697410817E-01    0.9593005852E-03    0.1845843054E-01    0.6304567497E+00
    0.4300000000E+04    0.6296883932E+00    0.4698183472E-01    0.9273506109E-03    0.1850212473E-01    0.6308238261E+00
    0.4500000000E+04    0.6310065722E+00    0.4698809627E-01    0.8980663918E-03    0.1854215796E-01    0.6311599259E+00
    0.4700000000E+04    0.6322168710E+00    0.4699311023E-01    0.8711164041E-03    0.1857897623E-01    0.6314688962E+00
    0.4900000000E+04    0.6333319957E+00    0.4699705633E-01    0.8462221003E-03    0.1861295581E-01    0.6317539681E+00
    0.1000000000E+04    0.5445983374E+00    0.4584506855E-01    0.2808194357E-02    0.1597013628E-01    0.6080537034E+00
    0.3000000000E+04    0.6170925178E+00    0.4688977250E-01    0.1205561377E-02    0.1812220786E-01    0.6276176546E+00
    0.5000000000E+04    0.6338573039E+00    0.4699867669E-01    0.8344707255E-03    0.1862898288E-01    0.6318884134E+00
    0.7000000000E+04    0.6412921452E+00    0.4700080756E-01    0.6655220521E-03    0.1885759735E-01    0.6338084156E+00
    0.9000000000E+04    0.6454874008E+00    0.4697707252E-01    0.5663348598E-03    0.1898876022E-01    0.6349169380E+00
    0.1100000000E+05    0.6481810450E+00    0.4694605652E-01    0.4998643811E-03    0.1907435949E-01    0.6356467173E+00
    0.1300000000E+05    0.6500567010E+00    0.4691354470E-01    0.4515783662E-03    0.1913492649E-01    0.6361679003E+00
    0.1500000000E+05    0.6514377688E+00    0.4688159571E-01    0.4145541847E-03    0.1918023045E-01    0.6365613578E+00
    0.1700000000E+05    0.6524970436E+00    0.4685095835E-01    0.3850469078E-03    0.1921552112E-01    0.6368706035E+00
    0.1900000000E+05    0.6533352330E+00    0.4682186800E-01    0.3608398588E-03    0.1924387549E-01    0.6371212052E+00
    0.2100000000E+05    0.6540149955E+00    0.4679434735E-01    0.3405298971E-03    0.1926721878E-01    0.6373292102E+00
    0.2300000000E+05    0.6545773577E+00    0.4676833084E-01    0.3231814762E-03    0.1928681860E-01    0.6375052218E+00
    0.2500000000E+05    0.6550503068E+00    0.4674371912E-01    0.3081444417E-03    0.1930354447E-01    0.6376565400E+00
    0.2700000000E+05    0.6554535897E+00    0.4672040370E-01    0.2949514459E-03    0.1931801326E-01    0.6377883638E+00
    0.2900000000E+05    0.6558015374E+00    0.4669827802E-01    0.2832569821E-03    0.1933067513E-01    0.6379045012E+00
    0.3100000000E+05    0.6561048029E+00    0.4667724227E-01    0.2727994942E-03    0.1934186649E-01    0.6380078093E+00
    0.3300000000E+05    0.6563714695E+00    0.4665720505E-01    0.2633769249E-03    0.1935184402E-01    0.6381004760E+00
    0.3500000000E+05    0.6566077816E+00    0.4663808372E-01    0.2548304205E-03    0.1936080706E-01    0.6381842071E+00
    0.3700000000E+05    0.6568186400E+00    0.4661980395E-01    0.2470331671E-03    0.1936891287E-01    0.6382603532E+00
    0.3900000000E+05    0.6570079440E+00    0.4660229906E-01    0.2398825541E-03    0.1937628728E-01    0.6383299988E+00
    0.4100000000E+05    0.6571788355E+00    0.4658550930E-01    0.2332945557E-03    0.1938303219E-01    0.6383940253E+00
    0.4300000000E+05    0.6573338739E+00    0.4656938102E-01    0.2271996250E-03    0.1938923103E-01    0.6384531573E+00
    0.4500000000E+05    0.6574751654E+00    0.4655386605E-01    0.2215396439E-03    0.1939495286E-01    0.6385079960E+00
    0.4700000000E+05    0.6576044590E+00    0.4653892100E-01    0.2162656217E-03    0.1940025527E-01    0.6385590450E+00
    0.4900000000E+05    0.6577232189E+00    0.4652450673E-01    0.2113359344E-03    0.1940518678E-01    0.6386067295E+00
    0.1000000000E+05    0.6469666110E+00    0.4696197565E-01    0.5301846051E-03    0.1903559662E-01    0.6353154160E+00
    0.3000000000E+05    0.6559582000E+00    0.4668762982E-01    0.2778874176E-03    0.1933643702E-01    0.6379576091E+00
    0.5000000000E+05    0.6577790425E+00    0.4651748744E-01    0.2089888815E-03    0.1940752654E-01    0.6386294253E+00
    0.7000000000E+05    0.6585608529E+00    0.4639794184E-01    0.1736714954E-03    0.1944218517E-01    0.6389716168E+00
    0.9000000000E+05    0.6589951284E+00    0.4630599378E-01    0.1513758918E-03    0.1946371240E-01    0.6391906437E+00
    0.1100000000E+06    0.6592712068E+00    0.4623133198E-01    0.1356995548E-03    0.1947884325E-01    0.6393480208E+00
    0.1300000000E+06    0.6594620505E+00    0.4616850037E-01    0.1239204455E-03    0.1949030447E-01    0.6394692535E+00
    0.1500000000E+06    0.6596017454E+00    0.4611427026E-01    0.1146606698E-03    0.1949943015E-01    0.6395670688E+00
    0.1700000000E+06    0.6597083488E+00    0.4606657471E-01    0.1071388861E-03    0.1950695863E-01    0.6396486291E+00
    0.1900000000E+06    0.6597923183E+00    0.4602401130E-01    0.1008749740E-03    0.1951333575E-01    0.6397183218E+00
    0.2100000000E+06    0.6598601287E+00    0.4598558502E-01    0.9555565210E-04    0.1951884879E-01    0.6397790101E+00
    0.2300000000E+06    0.6599160030E+00    0.4595056449E-01    0.9096673618E-04    0.1952369242E-01    0.6398326561E+00
    0.2500000000E+06    0.6599628121E+00    0.4591839638E-01    0.8695621795E-04    0.1952800398E-01    0.6398806575E+00
    0.2700000000E+06    0.6600025762E+00    0.4588865203E-01    0.8341286241E-04    0.1953188360E-01    0.6399240427E+00
    0.2900000000E+06    0.6600367578E+00    0.4586099258E-01    0.8025316451E-04    0.1953540629E-01    0.6399635883E+00
    0.3100000000E+06    0.6600664416E+00    0.4583514554E-01    0.7741306371E-04    0.1953862959E-01    0.6399998943E+00
    0.3300000000E+06    0.6600924488E+00    0.4581088856E-01    0.7484249373E-04    0.1954159848E-01    0.6400334327E+00
    0.3500000000E+06    0.6601154129E+00    0.4578803778E-01    0.7250168858E-04    0.1954434875E-01    0.6400645817E+00
    0.3700000000E+06    0.6601358302E+00    0.4576643950E-01    0.7035861330E-04    0.1954690930E-01    0.6400936481E+00
    0.3900000000E+06    0.6601540949E+00    0.4574596387E-01    0.6838713620E-04    0.1954930378E-01    0.6401208843E+00
    0.4100000000E+06    0.6601705240E+00    0.4572650026E-01    0.6656570240E-04    0.1955155175E-01    0.6401465003E+00
    0.4300000000E+06    0.6601853756E+00    0.4570795358E-01    0.6487635400E-04    0.1955366961E-01    0.6401706725E+00
    0.4500000000E+06    0.6601988617E+00    0.4569024154E-01    0.6330399472E-04    0.1955567117E-01    0.6401935504E+00
    0.4700000000E+06    0.6602111580E+00    0.4567329246E-01    0.6183583018E-04    0.1955756822E-01    0.6402152618E+00
    0.4900000000E+06    0.6602224116E+00    0.4565704349E-01    0.6046093620E-04    0.1955937084E-01    0.6402359168E+00
    0.1000000000E+06    0.6591470161E+00    0.4626691435E-01    0.1429264077E-03    0.1947185864E-01    0.6392750040E+00
    0.3000000000E+06    0.6600521055E+00    0.4584785743E-01    0.7879657162E-04    0.1953705231E-01    0.6399821142E+00
    0.5000000000E+06    0.6602276869E+00    0.4564916397E-01    0.5980547884E-04    0.1956023952E-01    0.6402458784E+00
    0.7000000000E+06    0.6603002942E+00    0.4551777298E-01    0.4987949385E-04    0.1957426626E-01    0.6404073415E+00
    0.9000000000E+06    0.6603390759E+00    0.4541950780E-01    0.4355856344E-04    0.1958429710E-01    0.6405233159E+00
    0.1100000000E+07    0.6603627275E+00    0.4534101114E-01    0.3909250958E-04    0.1959209612E-01    0.6406136430E+00
    0.1300000000E+07    0.6603783712E+00    0.4527566099E-01    0.3572635000E-04    0.1959847259E-01    0.6406875360E+00
    0.1500000000E+07    0.6603892964E+00    0.4521968838E-01    0.3307453039E-04    0.1960386398E-01    0.6407500127E+00
    0.1700000000E+07    0.6603972260E+00    0.4517074283E-01    0.3091712358E-04    0.1960853321E-01    0.6408041037E+00
    0.1900000000E+07    0.6604031462E+00    0.4512725939E-01    0.2911841473E-04    0.1961265049E-01    0.6408517778E+00
    0.2100000000E+07    0.6604076605E+00    0.4508814354E-01    0.2758956759E-04    0.1961633228E-01    0.6408943854E+00
    0.2300000000E+07    0.6604111576E+00    0.4505259974E-01    0.2626969681E-04    0.1961966175E-01    0.6409328923E+00
    0.2500000000E+07    0.6604138985E+00    0.4502003164E-01    0.2511550673E-04    0.1962270035E-01    0.6409680131E+00
    0.2700000000E+07    0.6604160646E+00    0.4498998064E-01    0.2409526426E-04    0.1962549477E-01    0.6410002911E+00
    0.2900000000E+07    0.6604177855E+00    0.4496208655E-01    0.2318511555E-04    0.1962808127E-01    0.6410301490E+00
    0.3100000000E+07    0.6604191561E+00    0.4493606128E-01    0.2236674088E-04    0.1963048864E-01    0.6410579219E+00
    0.3300000000E+07    0.6604202473E+00    0.4491167081E-01    0.2162580895E-04    0.1963274006E-01    0.6410838801E+00
    0.3500000000E+07    0.6604211129E+00    0.4488872247E-01    0.2095092760E-04    0.1963485449E-01    0.6411082447E+00
    0.3700000000E+07    0.6604217946E+00    0.4486705573E-01    0.2033291295E-04    0.1963684763E-01    0.6411311986E+00
    0.3900000000E+07    0.6604223250E+00    0.4484653542E-01    0.1976426885E-04    0.1963873264E-01    0.6411528954E+00
    0.4100000000E+07    0.6604227299E+00    0.4482704668E-01    0.1923880864E-04    0.1964052064E-01    0.6411734646E+00
    0.4300000000E+07    0.6604230300E+00    0.4480849108E-01    0.1875137558E-04    0.1964222112E-01    0.6411930169E+00
    0.4500000000E+07    0.6604232421E+00    0.4479078360E-01    0.1829763276E-04    0.1964384224E-01    0.6412116475E+00
    0.4700000000E+07    0.6604233798E+00    0.4477385035E-01    0.1787390314E-04    0.1964539109E-01    0.6412294389E+00
    0.4900000000E+07    0.6604234544E+00    0.4475762667E-01    0.1747704605E-04    0.1964687382E-01    0.6412464629E+00
    0.1000000000E+07    0.6603522128E+00    0.4537829555E-01    0.4115344328E-04    0.1958841255E-01    0.6405709695E+00
    0.3000000000E+07    0.6604185097E+00    0.4494885603E-01    0.2276543146E-04    0.1962930579E-01    0.6410442779E+00
    0.5000000000E+07    0.6604234711E+00    0.4474976287E-01    0.1728783576E-04    0.1964759212E-01    0.6412547071E+00
    0.7000000000E+07    0.6604220862E+00    0.4461892875E-01    0.1442140084E-04    0.1965951059E-01    0.6413912256E+00
    0.9000000000E+07    0.6604193515E+00    0.4452138373E-01    0.1259509720E-04    0.1966836788E-01    0.6414923326E+00
    0.1100000000E+08    0.6604163506E+00    0.4444360983E-01    0.1130436321E-04    0.1967541945E-01    0.6415726105E+00
    0.1300000000E+08    0.6604133943E+00    0.4437894474E-01    0.1033134289E-04    0.1968127842E-01    0.6416391644E+00
    0.1500000000E+08    0.6604105782E+00    0.4432361088E-01    0.9564721423E-05    0.1968629051E-01    0.6416959925E+00
    0.1700000000E+08    0.6604079266E+00    0.4427525864E-01    0.8940980399E-05    0.1969066997E-01    0.6417455680E+00
    0.1900000000E+08    0.6604054385E+00    0.4423232675E-01    0.8420913535E-05    0.1969455880E-01    0.6417895274E+00
    0.2100000000E+08    0.6604031034E+00    0.4419372494E-01    0.7978852482E-05    0.1969805598E-01    0.6418290100E+00
    0.2300000000E+08    0.6604009087E+00    0.4415866178E-01    0.7597202577E-05    0.1970123325E-01    0.6418648403E+00
    0.2500000000E+08    0.6603988411E+00    0.4412654457E-01    0.7263450856E-05    0.1970414430E-01    0.6418976346E+00
    0.2700000000E+08    0.6603968886E+00    0.4409691793E-01    0.6968425272E-05    0.1970683033E-01    0.6419278655E+00
