  Pressure (Pa) 22mC5-400 (mol/kg) 3mC6-400 (mol/kg) 33mC5-400 (mol/kg) 23mC5-400 (mol/kg) C7-400 (mol/kg)
    0.1000000000E+01    0.3178260712E-02    0.2118787920E-02    0.1297629138E-03    0.6510797426E-03    0.1719045460E-02
    0.3000000000E+01    0.9426253968E-02    0.6283656228E-02    0.3827439549E-03    0.1931026650E-02    0.5098415595E-02
    0.5000000000E+01    0.1553366469E-01    0.1035433102E-01    0.6272896998E-03    0.3182200135E-02    0.8401708869E-02
    0.7000000000E+01    0.2150524328E-01    0.1433398243E-01    0.8637346480E-03    0.4405572192E-02    0.1163148181E-01
    0.9000000000E+01    0.2734552781E-01    0.1822563982E-01    0.1092397257E-02    0.5602071377E-02    0.1479017748E-01
    0.1100000000E+02    0.3305885571E-01    0.2203219947E-01    0.1313580853E-02    0.6772585197E-02    0.1788013173E-01
    0.1300000000E+02    0.3864937474E-01    0.2575643183E-01    0.1527574487E-02    0.7917962360E-02    0.2090357899E-01
    0.1500000000E+02    0.4412105327E-01    0.2940098826E-01    0.1734653729E-02    0.9039014865E-02    0.2386265771E-01
    0.1700000000E+02    0.4947768982E-01    0.3296840740E-01    0.1935081414E-02    0.1013651997E-01    0.2675941552E-01
    0.1900000000E+02    0.5472292205E-01    0.3646112104E-01    0.2129108337E-02    0.1121122201E-01    0.2959581392E-01
    0.2100000000E+02    0.5986023524E-01    0.3988145975E-01    0.2316973911E-02    0.1226383417E-01    0.3237373283E-01
    0.2300000000E+02    0.6489297010E-01    0.4323165805E-01    0.2498906771E-02    0.1329504002E-01    0.3509497476E-01
    0.2500000000E+02    0.6982433024E-01    0.4651385931E-01    0.2675125356E-02    0.1430549512E-01    0.3776126877E-01
    0.2700000000E+02    0.7465738912E-01    0.4973012038E-01    0.2845838440E-02    0.1529582837E-01    0.4037427415E-01
    0.2900000000E+02    0.7939509659E-01    0.5288241588E-01    0.3011245641E-02    0.1626664340E-01    0.4293558394E-01
    0.3100000000E+02    0.8404028504E-01    0.5597264230E-01    0.3171537895E-02    0.1721851980E-01    0.4544672818E-01
    0.3300000000E+02    0.8859567518E-01    0.5900262179E-01    0.3326897900E-02    0.1815201432E-01    0.4790917701E-01
    0.3500000000E+02    0.9306388153E-01    0.6197410580E-01    0.3477500539E-02    0.1906766197E-01    0.5032434357E-01
    0.3700000000E+02    0.9744741751E-01    0.6488877849E-01    0.3623513270E-02    0.1996597707E-01    0.5269358672E-01
    0.3900000000E+02    0.1017487003E+00    0.6774825988E-01    0.3765096502E-02    0.2084745428E-01    0.5501821366E-01
    0.4100000000E+02    0.1059700554E+00    0.7055410891E-01    0.3902403942E-02    0.2171256947E-01    0.5729948235E-01
    0.4300000000E+02    0.1101137209E+00    0.7330782629E-01    0.4035582926E-02    0.2256178066E-01    0.5953860377E-01
    0.4500000000E+02    0.1141818518E+00    0.7601085721E-01    0.4164774731E-02    0.2339552880E-01    0.6173674415E-01
    0.4700000000E+02    0.1181765232E+00    0.7866459383E-01    0.4290114866E-02    0.2421423861E-01    0.6389502700E-01
    0.4900000000E+02    0.1220997350E+00    0.8127037775E-01    0.4411733352E-02    0.2501831928E-01    0.6601453502E-01
    0.1000000000E+02    0.3021779778E-01    0.2013938084E-01    0.1203905541E-02    0.6190522529E-02    0.1634360532E-01
    0.3000000000E+02    0.8172908309E-01    0.5443517214E-01    0.3092019530E-02    0.1674491361E-01    0.4419733350E-01
    0.5000000000E+02    0.1240351484E+00    0.8255569344E-01    0.4471186172E-02    0.2541499749E-01    0.6706007613E-01
    0.7000000000E+02    0.1594255001E+00    0.1060356789E+00    0.5492672379E-02    0.3266929161E-01    0.8617024687E-01
    0.9000000000E+02    0.1894851818E+00    0.1259397731E+00    0.6256887044E-02    0.3883217616E-01    0.1023872380E+00
    0.1100000000E+03    0.2153466708E+00    0.1430297607E+00    0.6832423501E-02    0.4413542889E-01    0.1163261881E+00
    0.1300000000E+03    0.2378409420E+00    0.1578651454E+00    0.7267291949E-02    0.4874913201E-01    0.1284390541E+00
    0.1500000000E+03    0.2575918030E+00    0.1708661382E+00    0.7595802117E-02    0.5280097369E-01    0.1390653948E+00
    0.1700000000E+03    0.2750768760E+00    0.1823544862E+00    0.7842918989E-02    0.5638872564E-01    0.1484652951E+00
    0.1900000000E+03    0.2906682128E+00    0.1925807327E+00    0.8027096948E-02    0.5958855382E-01    0.1568413534E+00
    0.2100000000E+03    0.3046600594E+00    0.2017428938E+00    0.8162168973E-02    0.6246069993E-01    0.1643537492E+00
    0.2300000000E+03    0.3172882789E+00    0.2099995483E+00    0.8258632995E-02    0.6505345597E-01    0.1711308051E+00
    0.2500000000E+03    0.3287442170E+00    0.2174791973E+00    0.8324544439E-02    0.6740600185E-01    0.1772765416E+00
    0.2700000000E+03    0.3391847851E+00    0.2242870786E+00    0.8366146040E-02    0.6955046885E-01    0.1828761773E+00
    0.2900000000E+03    0.3487399122E+00    0.2305102077E+00    0.8388319057E-02    0.7151346471E-01    0.1880001997E+00
    0.3100000000E+03    0.3575181351E+00    0.2362211620E+00    0.8394911002E-02    0.7331721791E-01    0.1927074214E+00
    0.3300000000E+03    0.3656108499E+00    0.2414809588E+00    0.8388976661E-02    0.7498044766E-01    0.1970473047E+00
    0.3500000000E+03    0.3730955835E+00    0.2463412720E+00    0.8372957392E-02    0.7651903372E-01    0.2010617521E+00
    0.3700000000E+03    0.3800385415E+00    0.2508461555E+00    0.8348815902E-02    0.7794653776E-01    0.2047865000E+00
    0.3900000000E+03    0.3864966112E+00    0.2550334004E+00    0.8318138545E-02    0.7927461350E-01    0.2082522151E+00
    0.4100000000E+03    0.3925189531E+00    0.2589356106E+00    0.8282213663E-02    0.8051333242E-01    0.2114853638E+00
    0.4300000000E+03    0.3981482750E+00    0.2625810644E+00    0.8242092079E-02    0.8167144467E-01    0.2145089093E+00
    0.4500000000E+03    0.4034218615E+00    0.2659944099E+00    0.8198634156E-02    0.8275658977E-01    0.2173428741E+00
    0.4700000000E+03    0.4083724116E+00    0.2691972300E+00    0.8152546693E-02    0.8377546815E-01    0.2200047966E+00
    0.4900000000E+03    0.4130287256E+00    0.2722085054E+00    0.8104412017E-02    0.8473398165E-01    0.2225101062E+00
    0.1000000000E+03    0.2028830086E+00    0.1347976946E+00    0.6564853274E-02    0.4157944853E-01    0.1096101011E+00
    0.3000000000E+03    0.3532200651E+00    0.2334256509E+00    0.8393355514E-02    0.7243400312E-01    0.1904026233E+00
    0.5000000000E+03    0.4152546192E+00    0.2736476289E+00    0.8079730702E-02    0.8519225650E-01    0.2237083530E+00
    0.7000000000E+03    0.4491822249E+00    0.2955619856E+00    0.7558867930E-02    0.9218414697E-01    0.2420452860E+00
    0.9000000000E+03    0.4705676978E+00    0.3093721222E+00    0.7070648241E-02    0.9660023219E-01    0.2537201730E+00
    0.1100000000E+04    0.4852720100E+00    0.3188793611E+00    0.6646194765E-02    0.9964278337E-01    0.2618391558E+00
    0.1300000000E+04    0.4959978024E+00    0.3258261795E+00    0.6281085659E-02    0.1018665848E+00    0.2678311717E+00
    0.1500000000E+04    0.5041642440E+00    0.3311248707E+00    0.5965543686E-02    0.1035631565E+00    0.2724470051E+00
    0.1700000000E+04    0.5105878619E+00    0.3352997507E+00    0.5690474813E-02    0.1049003411E+00    0.2761196593E+00
    0.1900000000E+04    0.5157715830E+00    0.3386737706E+00    0.5448466715E-02    0.1059815886E+00    0.2791167662E+00
    0.2100000000E+04    0.5200420136E+00    0.3414568069E+00    0.5233674807E-02    0.1068741263E+00    0.2816128509E+00
    0.2300000000E+04    0.5236204347E+00    0.3437912137E+00    0.5041512020E-02    0.1076235322E+00    0.2837266941E+00
    0.2500000000E+04    0.5266620627E+00    0.3457769809E+00    0.4868358512E-02    0.1082617987E+00    0.2855420110E+00
    0.2700000000E+04    0.5292789750E+00    0.3474864165E+00    0.4711331375E-02    0.1088120421E+00    0.2871195457E+00
    0.2900000000E+04    0.5315541131E+00    0.3489731146E+00    0.4568110732E-02    0.1092913806E+00    0.2885044723E+00
    0.3100000000E+04    0.5335501654E+00    0.3502776465E+00    0.4436810226E-02    0.1097127615E+00    0.2897311024E+00
    0.3300000000E+04    0.5353153897E+00    0.3514312926E+00    0.4315880563E-02    0.1100861581E+00    0.2908259788E+00
    0.3500000000E+04    0.5368875363E+00    0.3524585599E+00    0.4204037229E-02    0.1104193774E+00    0.2918099654E+00
    0.3700000000E+04    0.5382965581E+00    0.3533789224E+00    0.4100205848E-02    0.1107186183E+00    0.2926996963E+00
    0.3900000000E+04    0.5395665242E+00    0.3542080506E+00    0.4003480464E-02    0.1109888651E+00    0.2935086008E+00
    0.4100000000E+04    0.5407169952E+00    0.3549586975E+00    0.3913091378E-02    0.1112341712E+00    0.2942476439E+00
    0.4300000000E+04    0.5417640315E+00    0.3556413475E+00    0.3828380090E-02    0.1114578670E+00    0.2949258693E+00
    0.4500000000E+04    0.5427209421E+00    0.3562646996E+00    0.3748779604E-02    0.1116627142E+00    0.2955508053E+00
    0.4700000000E+04    0.5435988490E+00    0.3568360318E+00    0.3673798797E-02    0.1118510223E+00    0.2961287709E+00
    0.4900000000E+04    0.5444071183E+00    0.3573614802E+00    0.3603009909E-02    0.1120247373E+00    0.2966651109E+00
    0.1000000000E+04    0.4785433112E+00    0.3145269737E+00    0.6850456815E-02    0.9824975370E-01    0.2581122178E+00
    0.3000000000E+04    0.5325837238E+00    0.3496460127E+00    0.4501074246E-02    0.1095086337E+00    0.2891357617E+00
    0.5000000000E+04    0.5447876694E+00    0.3576086573E+00    0.3569068562E-02    0.1121066485E+00    0.2969191208E+00
    0.7000000000E+04    0.5501580194E+00    0.3610730429E+00    0.3039967005E-02    0.1132733753E+00    0.3006312528E+00
    0.9000000000E+04    0.5531723577E+00    0.3629807503E+00    0.2688598242E-02    0.1139413722E+00    0.3028635336E+00
    0.1100000000E+05    0.5550991165E+00    0.3641710319E+00    0.2433808090E-02    0.1143767659E+00    0.3043812683E+00
    0.1300000000E+05    0.5564352455E+00    0.3649736042E+00    0.2238304551E-02    0.1146845568E+00    0.3054950320E+00
    0.1500000000E+05    0.5574151838E+00    0.3655440288E+00    0.2082250097E-02    0.1149146215E+00    0.3063560083E+00
    0.1700000000E+05    0.5581639176E+00    0.3659650964E+00    0.1953996719E-02    0.1150937323E+00    0.3070471480E+00
    0.1900000000E+05    0.5587541528E+00    0.3662848185E+00    0.1846198275E-02    0.1152375679E+00    0.3076180144E+00
    0.2100000000E+05    0.5592310479E+00    0.3665328919E+00    0.1753963308E-02    0.1153559319E+00    0.3081001798E+00
    0.2300000000E+05    0.5596241245E+00    0.3667286326E+00    0.1673892802E-02    0.1154552756E+00    0.3085147852E+00
    0.2500000000E+05    0.5599534910E+00    0.3668851224E+00    0.1603541957E-02    0.1155400226E+00    0.3088765653E+00
    0.2700000000E+05    0.5602333145E+00    0.3670115191E+00    0.1541101553E-02    0.1156133098E+00    0.3091961329E+00
    0.2900000000E+05    0.5604738625E+00    0.3671144136E+00    0.1485200348E-02    0.1156774257E+00    0.3094813445E+00
    0.3100000000E+05    0.5606827565E+00    0.3671986621E+00    0.1434777678E-02    0.1157340798E+00    0.3097381535E+00
    0.3300000000E+05    0.5608657719E+00    0.3672679155E+00    0.1388998587E-02    0.1157845763E+00    0.3099711618E+00
    0.3500000000E+05    0.5610273645E+00    0.3673249673E+00    0.1347195672E-02    0.1158299277E+00    0.3101839896E+00
    0.3700000000E+05    0.5611710266E+00    0.3673719877E+00    0.1308828235E-02    0.1158709325E+00    0.3103795278E+00
    0.3900000000E+05    0.5612995332E+00    0.3674106857E+00    0.1273452979E-02    0.1159082296E+00    0.3105601168E+00
    0.4100000000E+05    0.5614151176E+00    0.3674424235E+00    0.1240702578E-02    0.1159423362E+00    0.3107276736E+00
    0.4300000000E+05    0.5615195964E+00    0.3674682987E+00    0.1210269734E-02    0.1159736757E+00    0.3108837855E+00
    0.4500000000E+05    0.5616144630E+00    0.3674892041E+00    0.1181895145E-02    0.1160025985E+00    0.3110297796E+00
    0.4700000000E+05    0.5617009557E+00    0.3675058726E+00    0.1155358288E-02    0.1160293968E+00    0.3111667753E+00
    0.4900000000E+05    0.5617801100E+00    0.3675189103E+00    0.1130470277E-02    0.1160543167E+00    0.3112957240E+00
    0.1000000000E+05    0.5542314428E+00    0.3636388765E+00    0.2552044815E-02    0.1141796573E+00    0.3036867850E+00
    0.3000000000E+05    0.5605818692E+00    0.3671586169E+00    0.1459360887E-02    0.1157065960E+00    0.3096129851E+00
    0.5000000000E+05    0.5618172134E+00    0.3675242289E+00    0.1118592809E-02    0.1160661386E+00    0.3113574400E+00
    0.7000000000E+05    0.5623278871E+00    0.3675271808E+00    0.9377538175E-03    0.1162411505E+00    0.3123171355E+00
    0.9000000000E+05    0.5626008596E+00    0.3674411740E+00    0.8216668521E-03    0.1163497521E+00    0.3129637000E+00
    0.1100000000E+06    0.5627676664E+00    0.3673297356E+00    0.7392210583E-03    0.1164260396E+00    0.3134459124E+00
    0.1300000000E+06    0.5628783444E+00    0.3672128612E+00    0.6768501114E-03    0.1164838030E+00    0.3138281427E+00
    0.1500000000E+06    0.5629559749E+00    0.3670977598E+00    0.6275763699E-03    0.1165297841E+00    0.3141436281E+00
    0.1700000000E+06    0.5630126322E+00    0.3669871041E+00    0.5873990533E-03    0.1165677115E+00    0.3144116142E+00
    0.1900000000E+06    0.5630552212E+00    0.3668817695E+00    0.5538395132E-03    0.1165998355E+00    0.3146441807E+00
    0.2100000000E+06    0.5630879635E+00    0.3667818774E+00    0.5252701236E-03    0.1166276055E+00    0.3148493783E+00
    0.2300000000E+06    0.5631135775E+00    0.3666872297E+00    0.5005724482E-03    0.1166520032E+00    0.3150328270E+00
    0.2500000000E+06    0.5631338877E+00    0.3665975018E+00    0.4789494121E-03    0.1166737211E+00    0.3151985978E+00
    0.2700000000E+06    0.5631501616E+00    0.3665123309E+00    0.4598157025E-03    0.1166932638E+00    0.3153497296E+00
    0.2900000000E+06    0.5631633047E+00    0.3664313559E+00    0.4427306127E-03    0.1167110093E+00    0.3154885484E+00
    0.3100000000E+06    0.5631739798E+00    0.3663542358E+00    0.4273551881E-03    0.1167272475E+00    0.3156168727E+00
    0.3300000000E+06    0.5631826821E+00    0.3662806566E+00    0.4134239247E-03    0.1167422049E+00    0.3157361496E+00
    0.3500000000E+06    0.5631897885E+00    0.3662103328E+00    0.4007255234E-03    0.1167560617E+00    0.3158475496E+00
    0.3700000000E+06    0.5631955900E+00    0.3661430069E+00    0.3890894638E-03    0.1167689636E+00    0.3159520316E+00
    0.3900000000E+06    0.5632003149E+00    0.3660784468E+00    0.3783764274E-03    0.1167810295E+00    0.3160503912E+00
    0.4100000000E+06    0.5632041441E+00    0.3660164441E+00    0.3684713318E-03    0.1167923580E+00    0.3161432955E+00
    0.4300000000E+06    0.5632072227E+00    0.3659568111E+00    0.3592781740E-03    0.1168030316E+00    0.3162313091E+00
    0.4500000000E+06    0.5632096681E+00    0.3658993788E+00    0.3507161531E-03    0.1168131198E+00    0.3163149139E+00
    0.4700000000E+06    0.5632115766E+00    0.3658439948E+00    0.3427167134E-03    0.1168226819E+00    0.3163945245E+00
    0.4900000000E+06    0.5632130272E+00    0.3657905211E+00    0.3352212613E-03    0.1168317688E+00    0.3164705002E+00
    0.1000000000E+06    0.5626934562E+00    0.3673869139E+00    0.7773103578E-03    0.1163908286E+00    0.3132202667E+00
    0.3000000000E+06    0.5631689165E+00    0.3663923342E+00    0.4348472476E-03    0.1167193014E+00    0.3155539245E+00
    0.5000000000E+06    0.5632136017E+00    0.3657644611E+00    0.3316464969E-03    0.1168361480E+00    0.3165072244E+00
    0.7000000000E+06    0.5632123124E+00    0.3653186813E+00    0.2773971843E-03    0.1169068843E+00    0.3171095038E+00
    0.9000000000E+06    0.5632003834E+00    0.3649734089E+00    0.2427360510E-03    0.1169575020E+00    0.3175495593E+00
    0.1100000000E+07    0.5631856903E+00    0.3646915953E+00    0.2181897150E-03    0.1169968785E+00    0.3178960772E+00
    0.1300000000E+07    0.5631706121E+00    0.3644534700E+00    0.1996561313E-03    0.1170290870E+00    0.3181817531E+00
    0.1500000000E+07    0.5631559608E+00    0.3642472596E+00    0.1850349737E-03    0.1170563301E+00    0.3184247016E+00
    0.1700000000E+07    0.5631420103E+00    0.3640653890E+00    0.1731257986E-03    0.1170799318E+00    0.3186360033E+00
    0.1900000000E+07    0.5631288291E+00    0.3639026974E+00    0.1631866474E-03    0.1171007494E+00    0.3188229279E+00
    0.2100000000E+07    0.5631164040E+00    0.3637555101E+00    0.1547312086E-03    0.1171193698E+00    0.3189905011E+00
    0.2300000000E+07    0.5631046907E+00    0.3636211179E+00    0.1474258059E-03    0.1171362121E+00    0.3191423418E+00
    0.2500000000E+07    0.5630936341E+00    0.3634974656E+00    0.1410329300E-03    0.1171515862E+00    0.3192811417E+00
    0.2700000000E+07    0.5630831786E+00    0.3633829573E+00    0.1353783504E-03    0.1171657273E+00    0.3194089571E+00
    0.2900000000E+07    0.5630732713E+00    0.3632763287E+00    0.1303309967E-03    0.1171788186E+00    0.3195273941E+00
    0.3100000000E+07    0.5630638636E+00    0.3631765611E+00    0.1257901363E-03    0.1171910050E+00    0.3196377310E+00
    0.3300000000E+07    0.5630549120E+00    0.3630828219E+00    0.1216769173E-03    0.1172024036E+00    0.3197410018E+00
    0.3500000000E+07    0.5630463773E+00    0.3629944213E+00    0.1179286224E-03    0.1172131100E+00    0.3198380545E+00
    0.3700000000E+07    0.5630382246E+00    0.3629107820E+00    0.1144946643E-03    0.1172232035E+00    0.3199295936E+00
    0.3900000000E+07    0.5630304229E+00    0.3628314155E+00    0.1113337312E-03    0.1172327505E+00    0.3200162101E+00
    0.4100000000E+07    0.5630229444E+00    0.3627559049E+00    0.1084117122E-03    0.1172418071E+00    0.3200984051E+00
    0.4300000000E+07    0.5630157643E+00    0.3626838918E+00    0.1057001622E-03    0.1172504213E+00    0.3201766069E+00
    0.4500000000E+07    0.5630088606E+00    0.3626150653E+00    0.1031751488E-03    0.1172586343E+00    0.3202511846E+00
    0.4700000000E+07    0.5630022133E+00    0.3625491545E+00    0.1008163726E-03    0.1172664817E+00    0.3203224585E+00
    0.4900000000E+07    0.5629958045E+00    0.3624859216E+00    0.9860648918E-04    0.1172739949E+00    0.3203907081E+00
    0.1000000000E+07    0.5631931755E+00    0.3648260605E+00    0.2295230004E-03    0.1169782782E+00    0.3177319842E+00
    0.3000000000E+07    0.5630685078E+00    0.3632256431E+00    0.1280026182E-03    0.1171850170E+00    0.3195835055E+00
    0.5000000000E+07    0.5629926844E+00    0.3624552428E+00    0.9755263716E-04    0.1172776348E+00    0.3204237768E+00
    0.7000000000E+07    0.5629396117E+00    0.3619422054E+00    0.8156705313E-04    0.1173380509E+00    0.3209729175E+00
    0.9000000000E+07    0.5628988479E+00    0.3615567670E+00    0.7136026468E-04    0.1173829732E+00    0.3213813549E+00
    0.1100000000E+08    0.5628657664E+00    0.3612478440E+00    0.6413498170E-04    0.1174187509E+00    0.3217066084E+00
    0.1300000000E+08    0.5628379322E+00    0.3609899875E+00    0.5868111205E-04    0.1174484864E+00    0.3219768603E+00
    0.1500000000E+08    0.5628139085E+00    0.3607686607E+00    0.5437944829E-04    0.1174739298E+00    0.3222080313E+00
    0.1700000000E+08    0.5627927774E+00    0.3605747709E+00    0.5087623750E-04    0.1174961661E+00    0.3224099985E+00
    0.1900000000E+08    0.5627739170E+00    0.3604022502E+00    0.4795290815E-04    0.1175159146E+00    0.3225893131E+00
    0.2100000000E+08    0.5627568865E+00    0.3602468456E+00    0.4546623641E-04    0.1175336768E+00    0.3227505433E+00
    0.2300000000E+08    0.5627413619E+00    0.3601054606E+00    0.4331797205E-04    0.1175498164E+00    0.3228970020E+00
    0.2500000000E+08    0.5627270986E+00    0.3599757702E+00    0.4143819316E-04    0.1175646053E+00    0.3230311679E+00
    0.2700000000E+08    0.5627139067E+00    0.3598559841E+00    0.3977561463E-04    0.1175782525E+00    0.3231549439E+00
