  Pressure (Pa) 22mC5-400 (mol/kg) 3mC6-400 (mol/kg) 33mC5-400 (mol/kg) 23mC5-400 (mol/kg) C7-400 (mol/kg)
    0.1000000000E+01    0.3179552038E-02    0.5230250419E-03    0.1284717014E-03    0.3721965909E-03    0.1188248592E-01
    0.3000000000E+01    0.9437620475E-02    0.1513644987E-02    0.3717142133E-03    0.1104773150E-02    0.3439413392E-01
    0.5000000000E+01    0.1556455212E-01    0.2436653793E-02    0.5981674841E-03    0.1822012486E-02    0.5537680927E-01
    0.7000000000E+01    0.2156448139E-01    0.3298735304E-02    0.8094047037E-03    0.2524398004E-02    0.7498141529E-01
    0.9000000000E+01    0.2744137008E-01    0.4105720755E-02    0.1006802209E-02    0.3212392929E-02    0.9333962118E-01
    0.1100000000E+02    0.3319901632E-01    0.4862720494E-02    0.1191569910E-02    0.3886441350E-02    0.1105668322E+00
    0.1300000000E+02    0.3884106287E-01    0.5574232025E-02    0.1364776209E-02    0.4546969197E-02    0.1267646259E+00
    0.1500000000E+02    0.4437100504E-01    0.6244229185E-02    0.1527368548E-02    0.5194385156E-02    0.1420227634E+00
    0.1700000000E+02    0.4979219800E-01    0.6876236188E-02    0.1680190446E-02    0.5829081536E-02    0.1564208590E+00
    0.1900000000E+02    0.5510786381E-01    0.7473389462E-02    0.1823995720E-02    0.6451435080E-02    0.1700297753E+00
    0.2100000000E+02    0.6032109789E-01    0.8038489546E-02    0.1959460404E-02    0.7061807725E-02    0.1829127933E+00
    0.2300000000E+02    0.6543487519E-01    0.8574044872E-02    0.2087192800E-02    0.7660547328E-02    0.1951266004E+00
    0.2500000000E+02    0.7045205601E-01    0.9082308881E-02    0.2207741992E-02    0.8247988341E-02    0.2067221276E+00
    0.2700000000E+02    0.7537539147E-01    0.9565311609E-02    0.2321605094E-02    0.8824452449E-02    0.2177452620E+00
    0.2900000000E+02    0.8020752864E-01    0.1002488671E-01    0.2429233439E-02    0.9390249174E-02    0.2282374566E+00
    0.3100000000E+02    0.8495101544E-01    0.1046269461E-01    0.2531037896E-02    0.9945676448E-02    0.2382362530E+00
    0.3300000000E+02    0.8960830524E-01    0.1088024253E-01    0.2627393448E-02    0.1049102115E-01    0.2477757327E+00
    0.3500000000E+02    0.9418176118E-01    0.1127890172E-01    0.2718643155E-02    0.1102655960E-01    0.2568869062E+00
    0.3700000000E+02    0.9867366031E-01    0.1165992246E-01    0.2805101591E-02    0.1155255806E-01    0.2655980521E+00
    0.3900000000E+02    0.1030861975E+00    0.1202444713E-01    0.2887057837E-02    0.1206927319E-01    0.2739350111E+00
    0.4100000000E+02    0.1074214889E+00    0.1237352156E-01    0.2964778102E-02    0.1257695246E-01    0.2819214433E+00
    0.4300000000E+02    0.1116815760E+00    0.1270810507E-01    0.3038508015E-02    0.1307583455E-01    0.2895790537E+00
    0.4500000000E+02    0.1158684281E+00    0.1302907918E-01    0.3108474645E-02    0.1356614977E-01    0.2969277900E+00
    0.4700000000E+02    0.1199839461E+00    0.1333725538E-01    0.3174888276E-02    0.1404812040E-01    0.3039860168E+00
    0.4900000000E+02    0.1240299653E+00    0.1363338192E-01    0.3237943985E-02    0.1452196106E-01    0.3107706702E+00
    0.1000000000E+02    0.3033486729E-01    0.4490174508E-02    0.1100694953E-02    0.3551133417E-02    0.1020879538E+00
    0.3000000000E+02    0.8259019784E-01    0.1024641398E-01    0.2480839425E-02    0.9669240810E-02    0.2332963232E+00
    0.5000000000E+02    0.1260274690E+00    0.1377714461E-01    0.3268269768E-02    0.1475589768E-01    0.3140653425E+00
    0.7000000000E+02    0.1627295045E+00    0.1616234955E-01    0.3736371353E-02    0.1905465813E-01    0.3688240263E+00
    0.9000000000E+02    0.1941679697E+00    0.1788066726E-01    0.4013945369E-02    0.2273762144E-01    0.4084126016E+00
    0.1100000000E+03    0.2214124589E+00    0.1917676082E-01    0.4170758088E-02    0.2592987569E-01    0.4383790706E+00
    0.1300000000E+03    0.2452592829E+00    0.2018870420E-01    0.4248115764E-02    0.2872455440E-01    0.4618582690E+00
    0.1500000000E+03    0.2663137367E+00    0.2100031934E-01    0.4271983186E-02    0.3119245498E-01    0.4807556290E+00
    0.1700000000E+03    0.2850443233E+00    0.2166543445E-01    0.4259381531E-02    0.3338837852E-01    0.4962962646E+00
    0.1900000000E+03    0.3018194808E+00    0.2222019534E-01    0.4221813356E-02    0.3535542410E-01    0.5093038469E+00
    0.2100000000E+03    0.3169330620E+00    0.2268977330E-01    0.4167228330E-02    0.3712796809E-01    0.5203526627E+00
    0.2300000000E+03    0.3306223905E+00    0.2309223504E-01    0.4101213097E-02    0.3873377552E-01    0.5298554056E+00
    0.2500000000E+03    0.3430813007E+00    0.2344088306E-01    0.4027742027E-02    0.4019552487E-01    0.5381163091E+00
    0.2700000000E+03    0.3544697168E+00    0.2374572829E-01    0.3949666833E-02    0.4153192837E-01    0.5453646022E+00
    0.2900000000E+03    0.3649207992E+00    0.2401444827E-01    0.3869044519E-02    0.4275856760E-01    0.5517762960E+00
    0.3100000000E+03    0.3745463497E+00    0.2425302921E-01    0.3787361956E-02    0.4388852576E-01    0.5574887908E+00
    0.3300000000E+03    0.3834409530E+00    0.2446620707E-01    0.3705692499E-02    0.4493287193E-01    0.5626109203E+00
    0.3500000000E+03    0.3916851866E+00    0.2465777755E-01    0.3624806937E-02    0.4590103659E-01    0.5672300141E+00
    0.3700000000E+03    0.3993481358E+00    0.2483081815E-01    0.3545253118E-02    0.4680110565E-01    0.5714169630E+00
    0.3900000000E+03    0.4064893824E+00    0.2498785028E-01    0.3467413754E-02    0.4764005320E-01    0.5752299157E+00
    0.4100000000E+03    0.4131605936E+00    0.2513095924E-01    0.3391548787E-02    0.4842392728E-01    0.5787170212E+00
    0.4300000000E+03    0.4194068003E+00    0.2526188452E-01    0.3317826702E-02    0.4915799942E-01    0.5819184912E+00
    0.4500000000E+03    0.4252674347E+00    0.2538208856E-01    0.3246347840E-02    0.4984688604E-01    0.5848681723E+00
    0.4700000000E+03    0.4307771780E+00    0.2549280971E-01    0.3177161850E-02    0.5049464760E-01    0.5875947585E+00
    0.4900000000E+03    0.4359666585E+00    0.2559510349E-01    0.3110280825E-02    0.5110487028E-01    0.5901227366E+00
    0.1000000000E+03    0.2082594217E+00    0.1857117713E-01    0.4104399156E-02    0.2438865011E-01    0.4243644954E+00
    0.3000000000E+03    0.3698304924E+00    0.2413718496E-01    0.3828260474E-02    0.4333489764E-01    0.5547125661E+00
    0.5000000000E+03    0.4384499074E+00    0.2564337813E-01    0.3077700682E-02    0.5139691239E-01    0.5913189359E+00
    0.7000000000E+03    0.4765026054E+00    0.2633051023E-01    0.2535668408E-02    0.5587610593E-01    0.6086351418E+00
    0.9000000000E+03    0.5006888735E+00    0.2671752242E-01    0.2155458210E-02    0.5872840023E-01    0.6187523148E+00
    0.1100000000E+04    0.5174122461E+00    0.2696236311E-01    0.1880063591E-02    0.6070426698E-01    0.6253973297E+00
    0.1300000000E+04    0.5296600776E+00    0.2712913036E-01    0.1673225143E-02    0.6215403970E-01    0.6301011081E+00
    0.1500000000E+04    0.5390139184E+00    0.2724865889E-01    0.1512809484E-02    0.6326330849E-01    0.6336089779E+00
    0.1700000000E+04    0.5463892721E+00    0.2733757090E-01    0.1384977708E-02    0.6413957276E-01    0.6363275385E+00
    0.1900000000E+04    0.5523526843E+00    0.2740559316E-01    0.1280768791E-02    0.6484939875E-01    0.6384975692E+00
    0.2100000000E+04    0.5572734556E+00    0.2745878226E-01    0.1194176012E-02    0.6543620462E-01    0.6402707974E+00
    0.2300000000E+04    0.5614025568E+00    0.2750109781E-01    0.1121044272E-02    0.6592951509E-01    0.6417476150E+00
    0.2500000000E+04    0.5649164771E+00    0.2753523224E-01    0.1058417962E-02    0.6635010565E-01    0.6429971150E+00
    0.2700000000E+04    0.5679429276E+00    0.2756307656E-01    0.1004142347E-02    0.6671301926E-01    0.6440684183E+00
    0.2900000000E+04    0.5705765920E+00    0.2758599547E-01    0.9566121217E-03    0.6702941555E-01    0.6449974109E+00
    0.3100000000E+04    0.5728891481E+00    0.2760499683E-01    0.9146081559E-03    0.6730774788E-01    0.6458109252E+00
    0.3300000000E+04    0.5749358501E+00    0.2762083990E-01    0.8771886932E-03    0.6755453673E-01    0.6465294288E+00
    0.3500000000E+04    0.5767599744E+00    0.2763410665E-01    0.8436151008E-03    0.6777489230E-01    0.6471688084E+00
    0.3700000000E+04    0.5783958968E+00    0.2764524998E-01    0.8133001089E-03    0.6797287626E-01    0.6477415853E+00
    0.3900000000E+04    0.5798712668E+00    0.2765462709E-01    0.7857710251E-03    0.6815175760E-01    0.6482577629E+00
    0.4100000000E+04    0.5812085753E+00    0.2766252311E-01    0.7606431312E-03    0.6831419706E-01    0.6487254302E+00
    0.4300000000E+04    0.5824263035E+00    0.2766916810E-01    0.7376001347E-03    0.6846238236E-01    0.6491511994E+00
    0.4500000000E+04    0.5835397775E+00    0.2767474945E-01    0.7163795947E-03    0.6859812886E-01    0.6495405290E+00
    0.4700000000E+04    0.5845618138E+00    0.2767942119E-01    0.6967619125E-03    0.6872295561E-01    0.6498979653E+00
    0.4900000000E+04    0.5855032124E+00    0.2768331088E-01    0.6785619107E-03    0.6883814347E-01    0.6502273253E+00
    0.1000000000E+04    0.5097500367E+00    0.2685255627E-01    0.2007344223E-02    0.5979852238E-01    0.6223860424E+00
    0.3000000000E+04    0.5717692305E+00    0.2759593354E-01    0.9349837138E-03    0.6717289396E-01    0.6454171988E+00
    0.5000000000E+04    0.5859465919E+00    0.2768499643E-01    0.6699434509E-03    0.6889246923E-01    0.6503825055E+00
    0.7000000000E+04    0.5922150816E+00    0.2769607213E-01    0.5439012304E-03    0.6966711586E-01    0.6525853045E+00
    0.9000000000E+04    0.5957453675E+00    0.2768703067E-01    0.4677834165E-03    0.7011139343E-01    0.6538413001E+00
    0.1100000000E+05    0.5980083016E+00    0.2767156995E-01    0.4157713116E-03    0.7040130808E-01    0.6546585024E+00
    0.1300000000E+05    0.5995815759E+00    0.2765413193E-01    0.3774527159E-03    0.7060643800E-01    0.6552356764E+00
    0.1500000000E+05    0.6007382200E+00    0.2763639912E-01    0.3477581955E-03    0.7075987654E-01    0.6556668409E+00
    0.1700000000E+05    0.6016240106E+00    0.2761905417E-01    0.3238968043E-03    0.7087940390E-01    0.6560023462E+00
    0.1900000000E+05    0.6023238570E+00    0.2760237133E-01    0.3041926631E-03    0.7097544057E-01    0.6562716421E+00
    0.2100000000E+05    0.6028905587E+00    0.2758644522E-01    0.2875722303E-03    0.7105450624E-01    0.6564931304E+00
    0.2300000000E+05    0.6033586689E+00    0.2757128845E-01    0.2733124993E-03    0.7112089360E-01    0.6566789172E+00
    0.2500000000E+05    0.6037517470E+00    0.2755687611E-01    0.2609067035E-03    0.7117754728E-01    0.6568373020E+00
    0.2700000000E+05    0.6040864075E+00    0.2754316713E-01    0.2499878743E-03    0.7122655636E-01    0.6569741709E+00
    0.2900000000E+05    0.6043747020E+00    0.2753011464E-01    0.2402829734E-03    0.7126944533E-01    0.6570938182E+00
    0.3100000000E+05    0.6046255848E+00    0.2751767121E-01    0.2315841432E-03    0.7130735357E-01    0.6571994527E+00
    0.3300000000E+05    0.6048458468E+00    0.2750579126E-01    0.2237300136E-03    0.7134115034E-01    0.6572935225E+00
    0.3500000000E+05    0.6050407319E+00    0.2749443219E-01    0.2165931605E-03    0.7137151079E-01    0.6573779287E+00
    0.3700000000E+05    0.6052143530E+00    0.2748355481E-01    0.2100714603E-03    0.7139896759E-01    0.6574541711E+00
    0.3900000000E+05    0.6053699814E+00    0.2747312332E-01    0.2040819887E-03    0.7142394687E-01    0.6575234496E+00
    0.4100000000E+05    0.6055102515E+00    0.2746310517E-01    0.1985566243E-03    0.7144679379E-01    0.6575867359E+00
    0.4300000000E+05    0.6056373082E+00    0.2745347084E-01    0.1934388215E-03    0.7146779100E-01    0.6576448258E+00
    0.4500000000E+05    0.6057529157E+00    0.2744419355E-01    0.1886812027E-03    0.7148717232E-01    0.6576983778E+00
    0.4700000000E+05    0.6058585384E+00    0.2743524901E-01    0.1842437348E-03    0.7150513292E-01    0.6577479410E+00
    0.4900000000E+05    0.6059554016E+00    0.2742661515E-01    0.1800923298E-03    0.7152183708E-01    0.6577939781E+00
    0.1000000000E+05    0.5969884981E+00    0.2767972420E-01    0.4396004444E-03    0.7027002425E-01    0.6542886618E+00
    0.3000000000E+05    0.6045043531E+00    0.2752381971E-01    0.2358188044E-03    0.7128896242E-01    0.6571482191E+00
    0.5000000000E+05    0.6060008777E+00    0.2742240839E-01    0.1781146015E-03    0.7152976235E-01    0.6578157991E+00
    0.7000000000E+05    0.6066329891E+00    0.2735056843E-01    0.1482653698E-03    0.7164715509E-01    0.6581370312E+00
    0.9000000000E+05    0.6069783496E+00    0.2729512603E-01    0.1293439664E-03    0.7172006518E-01    0.6583339902E+00
    0.1100000000E+06    0.6071942425E+00    0.2725002512E-01    0.1160091245E-03    0.7177130824E-01    0.6584707563E+00
    0.1300000000E+06    0.6073409467E+00    0.2721202816E-01    0.1059745979E-03    0.7181012137E-01    0.6585732004E+00
    0.1500000000E+06    0.6074464704E+00    0.2717920851E-01    0.9807828212E-04    0.7184102387E-01    0.6586539370E+00
    0.1700000000E+06    0.6075255705E+00    0.2715032837E-01    0.9165935048E-04    0.7186651684E-01    0.6587199213E+00
    0.1900000000E+06    0.6075867474E+00    0.2712454583E-01    0.8631091659E-04    0.7188811044E-01    0.6587753358E+00
    0.2100000000E+06    0.6076352351E+00    0.2710126253E-01    0.8176708132E-04    0.7190677772E-01    0.6588228650E+00
    0.2300000000E+06    0.6076744288E+00    0.2708003802E-01    0.7784583996E-04    0.7192317805E-01    0.6588643202E+00
    0.2500000000E+06    0.6077066242E+00    0.2706053873E-01    0.7441790055E-04    0.7193777659E-01    0.6589009742E+00
    0.2700000000E+06    0.6077334275E+00    0.2704250605E-01    0.7138857851E-04    0.7195091245E-01    0.6589337511E+00
    0.2900000000E+06    0.6077559952E+00    0.2702573537E-01    0.6868674806E-04    0.7196283971E-01    0.6589633406E+00
    0.3100000000E+06    0.6077751803E+00    0.2701006209E-01    0.6625781616E-04    0.7197375318E-01    0.6589902692E+00
    0.3300000000E+06    0.6077916249E+00    0.2699535182E-01    0.6405909640E-04    0.7198380521E-01    0.6590149474E+00
    0.3500000000E+06    0.6078058217E+00    0.2698149339E-01    0.6205667105E-04    0.7199311698E-01    0.6590377003E+00
    0.3700000000E+06    0.6078181541E+00    0.2696839383E-01    0.6022320718E-04    0.7200178638E-01    0.6590587896E+00
    0.3900000000E+06    0.6078289253E+00    0.2695597459E-01    0.5853640198E-04    0.7200989348E-01    0.6590784286E+00
    0.4100000000E+06    0.6078383777E+00    0.2694416869E-01    0.5697785406E-04    0.7201750456E-01    0.6590967933E+00
    0.4300000000E+06    0.6078467071E+00    0.2693291859E-01    0.5553222916E-04    0.7202467507E-01    0.6591140305E+00
    0.4500000000E+06    0.6078540739E+00    0.2692217446E-01    0.5418663393E-04    0.7203145184E-01    0.6591302636E+00
    0.4700000000E+06    0.6078606100E+00    0.2691189288E-01    0.5293013894E-04    0.7203787473E-01    0.6591455974E+00
    0.4900000000E+06    0.6078664251E+00    0.2690203580E-01    0.5175341082E-04    0.7204397795E-01    0.6591601216E+00
    0.1000000000E+06    0.6070975766E+00    0.2727152702E-01    0.1221594823E-03    0.7174765410E-01    0.6584078203E+00
    0.3000000000E+06    0.6077659663E+00    0.2701777057E-01    0.6744107431E-04    0.7196841281E-01    0.6589771095E+00
    0.5000000000E+06    0.6078690916E+00    0.2689725580E-01    0.5119240710E-04    0.7204691908E-01    0.6591671047E+00
    0.7000000000E+06    0.6079006040E+00    0.2681754519E-01    0.4269552025E-04    0.7209441042E-01    0.6592784301E+00
    0.9000000000E+06    0.6079110805E+00    0.2675792946E-01    0.3728368348E-04    0.7212837335E-01    0.6593564433E+00
    0.1100000000E+07    0.6079132657E+00    0.2671030825E-01    0.3345966317E-04    0.7215478035E-01    0.6594162340E+00
    0.1300000000E+07    0.6079116685E+00    0.2667066431E-01    0.3057732738E-04    0.7217637122E-01    0.6594645910E+00
    0.1500000000E+07    0.6079082111E+00    0.2663671083E-01    0.2830663516E-04    0.7219462700E-01    0.6595051282E+00
    0.1700000000E+07    0.6079038153E+00    0.2660702149E-01    0.2645929930E-04    0.7221043775E-01    0.6595399905E+00
    0.1900000000E+07    0.6078989591E+00    0.2658064662E-01    0.2491911938E-04    0.7222437975E-01    0.6595705521E+00
    0.2100000000E+07    0.6078939041E+00    0.2655692201E-01    0.2361002837E-04    0.7223684728E-01    0.6595977449E+00
    0.2300000000E+07    0.6078887984E+00    0.2653536487E-01    0.2247989039E-04    0.7224812192E-01    0.6596222293E+00
    0.2500000000E+07    0.6078837276E+00    0.2651561329E-01    0.2149163053E-04    0.7225841171E-01    0.6596444901E+00
    0.2700000000E+07    0.6078787409E+00    0.2649738898E-01    0.2061807459E-04    0.7226787468E-01    0.6596648929E+00
    0.2900000000E+07    0.6078738663E+00    0.2648047335E-01    0.1983879543E-04    0.7227663369E-01    0.6596837209E+00
    0.3100000000E+07    0.6078691187E+00    0.2646469157E-01    0.1913810487E-04    0.7228478615E-01    0.6597011973E+00
    0.3300000000E+07    0.6078645050E+00    0.2644990164E-01    0.1850373021E-04    0.7229241053E-01    0.6597175011E+00
    0.3500000000E+07    0.6078600272E+00    0.2643598663E-01    0.1792591567E-04    0.7229957106E-01    0.6597327782E+00
    0.3700000000E+07    0.6078556840E+00    0.2642284913E-01    0.1739679656E-04    0.7230632090E-01    0.6597471491E+00
    0.3900000000E+07    0.6078514725E+00    0.2641040713E-01    0.1690995349E-04    0.7231270458E-01    0.6597607143E+00
    0.4100000000E+07    0.6078473884E+00    0.2639859092E-01    0.1646008849E-04    0.7231875976E-01    0.6597735584E+00
    0.4300000000E+07    0.6078434271E+00    0.2638734078E-01    0.1604278557E-04    0.7232451858E-01    0.6597857536E+00
    0.4500000000E+07    0.6078395834E+00    0.2637660513E-01    0.1565433083E-04    0.7233000869E-01    0.6597973617E+00
    0.4700000000E+07    0.6078358521E+00    0.2636633912E-01    0.1529157547E-04    0.7233525405E-01    0.6598084361E+00
    0.4900000000E+07    0.6078322282E+00    0.2635650354E-01    0.1495183000E-04    0.7234027553E-01    0.6598190233E+00
    0.1000000000E+07    0.6079128349E+00    0.2673292718E-01    0.3522434192E-04    0.7214230795E-01    0.6593880852E+00
    0.3000000000E+07    0.6078714760E+00    0.2647245027E-01    0.1947946152E-04    0.7228078045E-01    0.6596926160E+00
    0.5000000000E+07    0.6078304549E+00    0.2635173620E-01    0.1478985044E-04    0.7234270813E-01    0.6598241472E+00
    0.7000000000E+07    0.6077995264E+00    0.2627242743E-01    0.1233608001E-04    0.7238307241E-01    0.6599087136E+00
    0.9000000000E+07    0.6077749995E+00    0.2621330758E-01    0.1077285200E-04    0.7241307004E-01    0.6599710507E+00
    0.1100000000E+08    0.6077547306E+00    0.2616617659E-01    0.9668132953E-05    0.7243695244E-01    0.6600203997E+00
    0.1300000000E+08    0.6077374736E+00    0.2612699363E-01    0.8835394893E-05    0.7245679588E-01    0.6600612283E+00
    0.1500000000E+08    0.6077224538E+00    0.2609346774E-01    0.8179335792E-05    0.7247377114E-01    0.6600960372E+00
    0.1700000000E+08    0.6077091591E+00    0.2606417411E-01    0.7645577228E-05    0.7248860383E-01    0.6601263676E+00
    0.1900000000E+08    0.6076972347E+00    0.2603816605E-01    0.7200556042E-05    0.7250177484E-01    0.6601532365E+00
    0.2100000000E+08    0.6076864244E+00    0.2601478254E-01    0.6822299340E-05    0.7251361939E-01    0.6601773501E+00
    0.2300000000E+08    0.6076765379E+00    0.2599354373E-01    0.6495746113E-05    0.7252438047E-01    0.6601992186E+00
    0.2500000000E+08    0.6076674296E+00    0.2597409031E-01    0.6210185643E-05    0.7253423988E-01    0.6602192229E+00
    0.2700000000E+08    0.6076589858E+00    0.2595614623E-01    0.5957767182E-05    0.7254333717E-01    0.6602376543E+00
