  Pressure (Pa) 22mC5-400 (mol/kg) 3mC6-400 (mol/kg) 33mC5-400 (mol/kg) 23mC5-400 (mol/kg) C7-400 (mol/kg)
    0.1000000000E+01    0.3177853592E-02    0.5295202932E-03    0.2594390474E-03    0.6509963829E-03    0.3436949231E-02
    0.3000000000E+01    0.9422697802E-02    0.1569362215E-02    0.7647291730E-03    0.1930298501E-02    0.1018680336E-01
    0.5000000000E+01    0.1552407475E-01    0.2584374820E-02    0.1252531284E-02    0.3180236511E-02    0.1677622553E-01
    0.7000000000E+01    0.2148699067E-01    0.3575442390E-02    0.1723567079E-02    0.4401834775E-02    0.2321092078E-01
    0.9000000000E+01    0.2731622013E-01    0.4543407644E-02    0.2178522117E-02    0.5596070257E-02    0.2949632621E-01
    0.1100000000E+02    0.3301631926E-01    0.5489074151E-02    0.2618047967E-02    0.6763875235E-02    0.3563762653E-01
    0.1300000000E+02    0.3859163807E-01    0.6413208581E-02    0.3042764214E-02    0.7906139815E-02    0.4163976854E-01
    0.1500000000E+02    0.4404633200E-01    0.7316542794E-02    0.3453260321E-02    0.9023714293E-02    0.4750747464E-01
    0.1700000000E+02    0.4938437260E-01    0.8199775801E-02    0.3850097370E-02    0.1011741135E-01    0.5324525540E-01
    0.1900000000E+02    0.5460955765E-01    0.9063575582E-02    0.4233809684E-02    0.1118800810E-01    0.5885742136E-01
    0.2100000000E+02    0.5972552051E-01    0.9908580791E-02    0.4604906341E-02    0.1223624803E-01    0.6434809393E-01
    0.2300000000E+02    0.6473573892E-01    0.1073540235E-01    0.4963872588E-02    0.1326284280E-01    0.6972121574E-01
    0.2500000000E+02    0.6964354326E-01    0.1154462494E-01    0.5311171164E-02    0.1426847388E-01    0.7498056016E-01
    0.2700000000E+02    0.7445212425E-01    0.1233680838E-01    0.5647243540E-02    0.1525379421E-01    0.8012974037E-01
    0.2900000000E+02    0.7916454021E-01    0.1311248898E-01    0.5972511070E-02    0.1621942961E-01    0.8517221771E-01
    0.3100000000E+02    0.8378372384E-01    0.1387218069E-01    0.6287376086E-02    0.1716598022E-01    0.9011130961E-01
    0.3300000000E+02    0.8831248862E-01    0.1461637632E-01    0.6592222906E-02    0.1809402177E-01    0.9495019702E-01
    0.3500000000E+02    0.9275353483E-01    0.1534554860E-01    0.6887418794E-02    0.1900410684E-01    0.9969193130E-01
    0.3700000000E+02    0.9710945513E-01    0.1606015116E-01    0.7173314850E-02    0.1989676598E-01    0.1043394408E+00
    0.3900000000E+02    0.1013827399E+00    0.1676061952E-01    0.7450246857E-02    0.2077250884E-01    0.1088955371E+00
    0.4100000000E+02    0.1055757824E+00    0.1744737198E-01    0.7718536065E-02    0.2163182515E-01    0.1133629206E+00
    0.4300000000E+02    0.1096908830E+00    0.1812081046E-01    0.7978489939E-02    0.2247518569E-01    0.1177441859E+00
    0.4500000000E+02    0.1137302543E+00    0.1878132129E-01    0.8230402852E-02    0.2330304324E-01    0.1220418274E+00
    0.4700000000E+02    0.1176960248E+00    0.1942927595E-01    0.8474556749E-02    0.2411583338E-01    0.1262582435E+00
    0.4900000000E+02    0.1215902430E+00    0.2006503181E-01    0.8711221760E-02    0.2491397534E-01    0.1303957416E+00
    0.1000000000E+02    0.3018213442E-01    0.5018979484E-02    0.2400174239E-02    0.6183219968E-02    0.3258467492E-01
    0.3000000000E+02    0.8148560750E-01    0.1349430216E-01    0.6131219462E-02    0.1669505397E-01    0.8765448492E-01
    0.5000000000E+02    0.1235111392E+00    0.2037844316E-01    0.8826827265E-02    0.2530767997E-01    0.1324355936E+00
    0.7000000000E+02    0.1586154247E+00    0.2608337102E-01    0.1080330588E-01    0.3250337382E-01    0.1695875532E+00
    0.9000000000E+02    0.1884127298E+00    0.3088991306E-01    0.1226764249E-01    0.3861250197E-01    0.2009239863E+00
    0.1100000000E+03    0.2140464982E+00    0.3499611651E-01    0.1335958372E-01    0.4386909032E-01    0.2277243879E+00
    0.1300000000E+03    0.2363499220E+00    0.3854567582E-01    0.1417598061E-01    0.4844367736E-01    0.2509174493E+00
    0.1500000000E+03    0.2559449837E+00    0.4164539583E-01    0.1478546579E-01    0.5246357918E-01    0.2711937024E+00
    0.1700000000E+03    0.2733057945E+00    0.4437632674E-01    0.1523761557E-01    0.5602584977E-01    0.2890773596E+00
    0.1900000000E+03    0.2888003854E+00    0.4680109393E-01    0.1556884215E-01    0.5920583257E-01    0.3049736162E+00
    0.2100000000E+03    0.3027190424E+00    0.4896885829E-01    0.1580628225E-01    0.6206295890E-01    0.3192006675E+00
    0.2300000000E+03    0.3152939858E+00    0.5091875504E-01    0.1597042200E-01    0.6464477513E-01    0.3320119109E+00
    0.2500000000E+03    0.3267133326E+00    0.5268232926E-01    0.1607690458E-01    0.6698980019E-01    0.3436116731E+00
    0.2700000000E+03    0.3371311942E+00    0.5428529381E-01    0.1613779742E-01    0.6912959200E-01    0.3541665654E+00
    0.2900000000E+03    0.3466751039E+00    0.5574881997E-01    0.1616249467E-01    0.7109026775E-01    0.3638138211E+00
    0.3100000000E+03    0.3554515673E+00    0.5709049956E-01    0.1615836940E-01    0.7289363984E-01    0.3726675133E+00
    0.3300000000E+03    0.3635502678E+00    0.5832507221E-01    0.1613125091E-01    0.7455807669E-01    0.3808232553E+00
    0.3500000000E+03    0.3710472940E+00    0.5946498208E-01    0.1608577838E-01    0.7609916341E-01    0.3883617996E+00
    0.3700000000E+03    0.3780076471E+00    0.6052080889E-01    0.1602566562E-01    0.7753021486E-01    0.3953518251E+00
    0.3900000000E+03    0.3844872074E+00    0.6150160528E-01    0.1595390137E-01    0.7886267846E-01    0.4018521192E+00
    0.4100000000E+03    0.3905342950E+00    0.6241516339E-01    0.1587290207E-01    0.8010645343E-01    0.4079133019E+00
    0.4300000000E+03    0.3961909168E+00    0.6326822739E-01    0.1578462957E-01    0.8127014628E-01    0.4135792016E+00
    0.4500000000E+03    0.4014937740E+00    0.6406666433E-01    0.1569068236E-01    0.8236127691E-01    0.4188879604E+00
    0.4700000000E+03    0.4064750801E+00    0.6481560268E-01    0.1559236689E-01    0.8338644619E-01    0.4238729306E+00
    0.4900000000E+03    0.4111632317E+00    0.6551954523E-01    0.1549075370E-01    0.8435147327E-01    0.4285634068E+00
    0.1000000000E+03    0.2016920913E+00    0.3302054614E-01    0.1285331030E-01    0.4133549961E-01    0.2148264985E+00
    0.3000000000E+03    0.3511533088E+00    0.5643390974E-01    0.1616363899E-01    0.7201039658E-01    0.3683335009E+00
    0.5000000000E+03    0.4134053430E+00    0.6585590232E-01    0.1543899161E-01    0.8481306648E-01    0.4308064046E+00
    0.7000000000E+03    0.4476587287E+00    0.7097413125E-01    0.1437550589E-01    0.9187165506E-01    0.4651119429E+00
    0.9000000000E+03    0.4693194664E+00    0.7419834770E-01    0.1340392139E-01    0.9634413192E-01    0.4869518383E+00
    0.1100000000E+04    0.4842378127E+00    0.7641876793E-01    0.1257003091E-01    0.9943054757E-01    0.5021489757E+00
    0.1300000000E+04    0.4951284386E+00    0.7804199998E-01    0.1185856138E-01    0.1016881397E+00    0.5133728987E+00
    0.1500000000E+04    0.5034230079E+00    0.7928062898E-01    0.1124721112E-01    0.1034109836E+00    0.5220244231E+00
    0.1700000000E+04    0.5099476662E+00    0.8025679379E-01    0.1071656897E-01    0.1047688901E+00    0.5289112792E+00
    0.1900000000E+04    0.5152122839E+00    0.8104574541E-01    0.1025127051E-01    0.1058667311E+00    0.5345328923E+00
    0.2100000000E+04    0.5195484265E+00    0.8169641562E-01    0.9839409348E-02    0.1067727496E+00    0.5392151592E+00
    0.2300000000E+04    0.5231809394E+00    0.8224201840E-01    0.9471750583E-02    0.1075332540E+00    0.5431800667E+00
    0.2500000000E+04    0.5262676336E+00    0.8270590268E-01    0.9141069834E-02    0.1081807683E+00    0.5465842100E+00
    0.2700000000E+04    0.5289225028E+00    0.8310496779E-01    0.8841652270E-02    0.1087388014E+00    0.5495413192E+00
    0.2900000000E+04    0.5312299245E+00    0.8345175002E-01    0.8568924109E-02    0.1092247661E+00    0.5521360509E+00
    0.3100000000E+04    0.5332536791E+00    0.8375574737E-01    0.8319182922E-02    0.1096518333E+00    0.5544327628E+00
    0.3300000000E+04    0.5350428651E+00    0.8402428864E-01    0.8089399283E-02    0.1100301489E+00    0.5564812823E+00
    0.3500000000E+04    0.5366358891E+00    0.8426312000E-01    0.7877069565E-02    0.1103676545E+00    0.5583208084E+00
    0.3700000000E+04    0.5380632217E+00    0.8447681073E-01    0.7680105525E-02    0.1106706550E+00    0.5599826164E+00
    0.3900000000E+04    0.5393493446E+00    0.8466904016E-01    0.7496750534E-02    0.1109442193E+00    0.5614919740E+00
    0.4100000000E+04    0.5405141512E+00    0.8484280443E-01    0.7325515339E-02    0.1111924692E+00    0.5628695254E+00
    0.4300000000E+04    0.5415739720E+00    0.8500056810E-01    0.7165128247E-02    0.1114187905E+00    0.5641323087E+00
    0.4500000000E+04    0.5425423374E+00    0.8514437709E-01    0.7014496121E-02    0.1116259903E+00    0.5652945143E+00
    0.4700000000E+04    0.5434305524E+00    0.8527594398E-01    0.6872673535E-02    0.1118164155E+00    0.5663680595E+00
    0.4900000000E+04    0.5442481354E+00    0.8539671323E-01    0.6738838163E-02    0.1119920435E+00    0.5673630290E+00
    0.1000000000E+04    0.4774091052E+00    0.7540213175E-01    0.1297030623E-01    0.9801702023E-01    0.4951715254E+00
    0.3000000000E+04    0.5322739015E+00    0.8360859586E-01    0.8441383322E-02    0.1094449680E+00    0.5533182574E+00
    0.5000000000E+04    0.5446330110E+00    0.8545343949E-01    0.6674687413E-02    0.1120748430E+00    0.5678337838E+00
    0.7000000000E+04    0.5500598358E+00    0.8624015969E-01    0.5676189472E-02    0.1132531728E+00    0.5746673523E+00
    0.9000000000E+04    0.5531016374E+00    0.8666174029E-01    0.5014536698E-02    0.1139268143E+00    0.5787129634E+00
    0.1100000000E+05    0.5550441041E+00    0.8691613680E-01    0.4535392426E-02    0.1143654374E+00    0.5814184668E+00
    0.1300000000E+05    0.5563902038E+00    0.8708099518E-01    0.4168088820E-02    0.1146752784E+00    0.5833709186E+00
    0.1500000000E+05    0.5573769480E+00    0.8719282414E-01    0.3875114893E-02    0.1149067429E+00    0.5848554161E+00
    0.1700000000E+05    0.5581305834E+00    0.8727096199E-01    0.3634477353E-02    0.1150868618E+00    0.5860278677E+00
    0.1900000000E+05    0.5587244970E+00    0.8732655859E-01    0.3432320252E-02    0.1152314541E+00    0.5869810623E+00
    0.2100000000E+05    0.5592042441E+00    0.8736646476E-01    0.3259425109E-02    0.1153504047E+00    0.5877738479E+00
    0.2300000000E+05    0.5595995911E+00    0.8739510355E-01    0.3109390311E-02    0.1154502154E+00    0.5884454444E+00
    0.2500000000E+05    0.5599308050E+00    0.8741544611E-01    0.2977613897E-02    0.1155353424E+00    0.5890230524E+00
    0.2700000000E+05    0.5602121597E+00    0.8742955414E-01    0.2860691865E-02    0.1156089446E+00    0.5895261634E+00
    0.2900000000E+05    0.5604539965E+00    0.8743889750E-01    0.2756045285E-02    0.1156733256E+00    0.5899691321E+00
    0.3100000000E+05    0.5606639901E+00    0.8744454829E-01    0.2661680046E-02    0.1157302060E+00    0.5903627782E+00
    0.3300000000E+05    0.5608479548E+00    0.8744730397E-01    0.2576026880E-02    0.1157808978E+00    0.5907154211E+00
    0.3500000000E+05    0.5610103753E+00    0.8744776777E-01    0.2497831780E-02    0.1158264194E+00    0.5910335697E+00
    0.3700000000E+05    0.5611547659E+00    0.8744640276E-01    0.2426079077E-02    0.1158675741E+00    0.5913223945E+00
    0.3900000000E+05    0.5612839188E+00    0.8744356903E-01    0.2359936263E-02    0.1159050041E+00    0.5915860583E+00
    0.4100000000E+05    0.5614000806E+00    0.8743954979E-01    0.2298713655E-02    0.1159392295E+00    0.5918279527E+00
    0.4300000000E+05    0.5615050788E+00    0.8743457002E-01    0.2241834401E-02    0.1159706758E+00    0.5920508713E+00
    0.4500000000E+05    0.5616004151E+00    0.8742881007E-01    0.2188811835E-02    0.1159996952E+00    0.5922571370E+00
    0.4700000000E+05    0.5616873348E+00    0.8742241565E-01    0.2139232151E-02    0.1160265814E+00    0.5924486987E+00
    0.4900000000E+05    0.5617668794E+00    0.8741550534E-01    0.2092740969E-02    0.1160515815E+00    0.5926272043E+00
    0.1000000000E+05    0.5541695453E+00    0.8680354596E-01    0.4757676858E-02    0.1141669131E+00    0.5801860736E+00
    0.3000000000E+05    0.5605625740E+00    0.8744212929E-01    0.2707684057E-02    0.1157026134E+00    0.5901715513E+00
    0.5000000000E+05    0.5618041656E+00    0.8741188778E-01    0.2070556435E-02    0.1160634410E+00    0.5927120081E+00
    0.7000000000E+05    0.5623173764E+00    0.8732864617E-01    0.1733026328E-02    0.1162389744E+00    0.5939749467E+00
    0.9000000000E+05    0.5625917715E+00    0.8724257116E-01    0.1516620027E-02    0.1163478683E+00    0.5947623078E+00
    0.1100000000E+06    0.5627595126E+00    0.8716211272E-01    0.1363076243E-02    0.1164243476E+00    0.5953140315E+00
    0.1300000000E+06    0.5628708639E+00    0.8708846041E-01    0.1247013244E-02    0.1164822493E+00    0.5957293062E+00
    0.1500000000E+06    0.5629490099E+00    0.8702119041E-01    0.1155386151E-02    0.1165283360E+00    0.5960573289E+00
    0.1700000000E+06    0.5630060786E+00    0.8695955269E-01    0.1080720169E-02    0.1165663478E+00    0.5963255783E+00
    0.1900000000E+06    0.5630490065E+00    0.8690280516E-01    0.1018386928E-02    0.1165985412E+00    0.5965507485E+00
    0.2100000000E+06    0.5630820345E+00    0.8685029606E-01    0.9653486746E-03    0.1166263697E+00    0.5967436394E+00
    0.2300000000E+06    0.5631078938E+00    0.8680147384E-01    0.9195189242E-03    0.1166508176E+00    0.5969115870E+00
    0.2500000000E+06    0.5631284179E+00    0.8675587686E-01    0.8794113126E-03    0.1166725792E+00    0.5970597727E+00
    0.2700000000E+06    0.5631448806E+00    0.8671311895E-01    0.8439347750E-03    0.1166921605E+00    0.5971919749E+00
    0.2900000000E+06    0.5631581921E+00    0.8667287587E-01    0.8122680904E-03    0.1167099405E+00    0.5973110231E+00
    0.3100000000E+06    0.5631690187E+00    0.8663487377E-01    0.7837798503E-03    0.1167262095E+00    0.5974190845E+00
    0.3300000000E+06    0.5631778583E+00    0.8659887992E-01    0.7579756231E-03    0.1167411949E+00    0.5975178516E+00
    0.3500000000E+06    0.5631850899E+00    0.8656469519E-01    0.7344620332E-03    0.1167550773E+00    0.5976086681E+00
    0.3700000000E+06    0.5631910065E+00    0.8653214808E-01    0.7129217090E-03    0.1167680026E+00    0.5976926170E+00
    0.3900000000E+06    0.5631958374E+00    0.8650109003E-01    0.6930954199E-03    0.1167800901E+00    0.5977705822E+00
    0.4100000000E+06    0.5631997647E+00    0.8647139153E-01    0.6747690838E-03    0.1167914387E+00    0.5978432934E+00
    0.4300000000E+06    0.5632029346E+00    0.8644293909E-01    0.6577641533E-03    0.1168021308E+00    0.5979113595E+00
    0.4500000000E+06    0.5632054653E+00    0.8641563272E-01    0.6419303880E-03    0.1168122364E+00    0.5979752931E+00
    0.4700000000E+06    0.5632074536E+00    0.8638938391E-01    0.6271403437E-03    0.1168218147E+00    0.5980355296E+00
    0.4900000000E+06    0.5632089792E+00    0.8636411397E-01    0.6132851181E-03    0.1168309169E+00    0.5980924412E+00
    0.1000000000E+06    0.5626848776E+00    0.8720149919E-01    0.1433995566E-02    0.1163890495E+00    0.5950597013E+00
    0.3000000000E+06    0.5631638816E+00    0.8665361011E-01    0.7976602916E-03    0.1167182484E+00    0.5973663119E+00
    0.5000000000E+06    0.5632095896E+00    0.8635182381E-01    0.6066782672E-03    0.1168353034E+00    0.5981197523E+00
    0.7000000000E+06    0.5632088508E+00    0.8614372978E-01    0.5065045734E-03    0.1169061513E+00    0.5985502325E+00
    0.9000000000E+06    0.5631972827E+00    0.8598474107E-01    0.4426000569E-03    0.1169568418E+00    0.5988458009E+00
    0.1100000000E+07    0.5631828511E+00    0.8585603046E-01    0.3973984923E-03    0.1169962708E+00    0.5990686147E+00
    0.1300000000E+07    0.5631679743E+00    0.8574787617E-01    0.3633029446E-03    0.1170285196E+00    0.5992463749E+00
    0.1500000000E+07    0.5631534849E+00    0.8565459916E-01    0.3364274746E-03    0.1170557950E+00    0.5993936842E+00
    0.1700000000E+07    0.5631396683E+00    0.8557259200E-01    0.3145529092E-03    0.1170794232E+00    0.5995191278E+00
    0.1900000000E+07    0.5631266006E+00    0.8549941949E-01    0.2963086254E-03    0.1171002632E+00    0.5996281576E+00
    0.2100000000E+07    0.5631142734E+00    0.8543335986E-01    0.2807968246E-03    0.1171189029E+00    0.5997244402E+00
    0.2300000000E+07    0.5631026456E+00    0.8537315066E-01    0.2674018432E-03    0.1171357620E+00    0.5998105539E+00
    0.2500000000E+07    0.5630916648E+00    0.8531783854E-01    0.2556856782E-03    0.1171511509E+00    0.5998883774E+00
    0.2700000000E+07    0.5630812770E+00    0.8526668589E-01    0.2453271738E-03    0.1171653052E+00    0.5999593198E+00
    0.2900000000E+07    0.5630714307E+00    0.8521911026E-01    0.2360848338E-03    0.1171784083E+00    0.6000244638E+00
    0.3100000000E+07    0.5630620785E+00    0.8517464364E-01    0.2277731343E-03    0.1171906054E+00    0.6000846588E+00
    0.3300000000E+07    0.5630531775E+00    0.8513290432E-01    0.2202469041E-03    0.1172020138E+00    0.6001405826E+00
    0.3500000000E+07    0.5630446894E+00    0.8509357689E-01    0.2133907173E-03    0.1172127291E+00    0.6001927846E+00
    0.3700000000E+07    0.5630365797E+00    0.8505639771E-01    0.2071115029E-03    0.1172228309E+00    0.6002417159E+00
    0.3900000000E+07    0.5630288178E+00    0.8502114415E-01    0.2013332787E-03    0.1172323855E+00    0.6002877512E+00
    0.4100000000E+07    0.5630213764E+00    0.8498762650E-01    0.1959933251E-03    0.1172414491E+00    0.6003312053E+00
    0.4300000000E+07    0.5630142311E+00    0.8495568180E-01    0.1910393553E-03    0.1172500699E+00    0.6003723448E+00
    0.4500000000E+07    0.5630073599E+00    0.8492516903E-01    0.1864273886E-03    0.1172582890E+00    0.6004113977E+00
    0.4700000000E+07    0.5630007432E+00    0.8489596531E-01    0.1821201309E-03    0.1172661422E+00    0.6004485600E+00
    0.4900000000E+07    0.5629943632E+00    0.8486796295E-01    0.1780857244E-03    0.1172736608E+00    0.6004840019E+00
    0.1000000000E+07    0.5631902149E+00    0.8591733902E-01    0.4182624892E-03    0.1169776461E+00    0.5989641286E+00
    0.3000000000E+07    0.5630666956E+00    0.8519651393E-01    0.2318225295E-03    0.1171846122E+00    0.6000551341E+00
    0.5000000000E+07    0.5629912569E+00    0.8485438218E-01    0.1761621264E-03    0.1172773032E+00    0.6005011248E+00
    0.7000000000E+07    0.5629383991E+00    0.8462774641E-01    0.1470120789E-03    0.1173377589E+00    0.6007810579E+00
    0.9000000000E+07    0.5628977787E+00    0.8445802569E-01    0.1284309095E-03    0.1173827068E+00    0.6009844128E+00
    0.1100000000E+08    0.5628648024E+00    0.8432230992E-01    0.1152944206E-03    0.1174185027E+00    0.6011437745E+00
    0.1300000000E+08    0.5628370499E+00    0.8420923081E-01    0.1053889877E-03    0.1174482519E+00    0.6012746264E+00
    0.1500000000E+08    0.5628130923E+00    0.8411231242E-01    0.9758313523E-04    0.1174737061E+00    0.6013855252E+00
    0.1700000000E+08    0.5627920163E+00    0.8402751289E-01    0.9123104037E-04    0.1174959511E+00    0.6014816914E+00
    0.1900000000E+08    0.5627732028E+00    0.8395213929E-01    0.8593398373E-04    0.1175157069E+00    0.6015665413E+00
    0.2100000000E+08    0.5627562128E+00    0.8388430701E-01    0.8143087453E-04    0.1175334752E+00    0.6016424310E+00
    0.2300000000E+08    0.5627407240E+00    0.8382264553E-01    0.7754271624E-04    0.1175496199E+00    0.6017110529E+00
    0.2500000000E+08    0.5627264923E+00    0.8376612688E-01    0.7414219223E-04    0.1175644133E+00    0.6017736636E+00
    0.2700000000E+08    0.5627133289E+00    0.8371396026E-01    0.7113596736E-04    0.1175780644E+00    0.6018312207E+00
