  Pressure (Pa) 22mC5-400 (mol/kg) 3mC6-400 (mol/kg) 33mC5-400 (mol/kg) 23mC5-400 (mol/kg) C7-400 (mol/kg)
    0.1000000000E+01    0.3180856371E-02    0.2087284295E-02    0.1282685426E-03    0.9308728420E-04    0.1185526751E-01
    0.3000000000E+01    0.9449119761E-02    0.6014418313E-02    0.3700487984E-03    0.2765295090E-03    0.3416712105E-01
    0.5000000000E+01    0.1559584906E-01    0.9642953143E-02    0.5939423414E-03    0.4564182016E-03    0.5479079379E-01
    0.7000000000E+01    0.2162459642E-01    0.1300565592E-01    0.8018222047E-03    0.6328571934E-03    0.7391123831E-01
    0.9000000000E+01    0.2753877638E-01    0.1613066996E-01    0.9952985888E-03    0.8059462940E-03    0.9168732925E-01
    0.1100000000E+02    0.3334167246E-01    0.1904230243E-01    0.1175764020E-02    0.9757814835E-03    0.1082563036E+00
    0.1300000000E+02    0.3903644335E-01    0.2176165635E-01    0.1344429499E-02    0.1142455094E-02    0.1237373238E+00
    0.1500000000E+02    0.4462612885E-01    0.2430714161E-01    0.1502353656E-02    0.1306055983E-02    0.1382343586E+00
    0.1700000000E+02    0.5011365530E-01    0.2669489126E-01    0.1650466454E-02    0.1466669691E-02    0.1518385306E+00
    0.1900000000E+02    0.5550184094E-01    0.2893910285E-01    0.1789588578E-02    0.1624378599E-02    0.1646300411E+00
    0.2100000000E+02    0.6079340076E-01    0.3105232025E-01    0.1920447407E-02    0.1779262072E-02    0.1766797590E+00
    0.2300000000E+02    0.6599095121E-01    0.3304566749E-01    0.2043690247E-02    0.1931396594E-02    0.1880505403E+00
    0.2500000000E+02    0.7109701467E-01    0.3492904418E-01    0.2159895359E-02    0.2080855899E-02    0.1987983295E+00
    0.2700000000E+02    0.7611402358E-01    0.3671128936E-01    0.2269581200E-02    0.2227711092E-02    0.2089730846E+00
    0.2900000000E+02    0.8104432442E-01    0.3840031985E-01    0.2373214203E-02    0.2372030767E-02    0.2186195571E+00
    0.3100000000E+02    0.8589018153E-01    0.4000324743E-01    0.2471215359E-02    0.2513881116E-02    0.2277779532E+00
    0.3300000000E+02    0.9065378060E-01    0.4152647863E-01    0.2563965821E-02    0.2653326033E-02    0.2364844968E+00
    0.3500000000E+02    0.9533723209E-01    0.4297580001E-01    0.2651811675E-02    0.2790427214E-02    0.2447719108E+00
    0.3700000000E+02    0.9994257445E-01    0.4435645136E-01    0.2735068044E-02    0.2925244247E-02    0.2526698300E+00
    0.3900000000E+02    0.1044717771E+00    0.4567318881E-01    0.2814022610E-02    0.3057834708E-02    0.2602051577E+00
    0.4100000000E+02    0.1089267436E+00    0.4693033937E-01    0.2888938664E-02    0.3188254238E-02    0.2674023725E+00
    0.4300000000E+02    0.1133093137E+00    0.4813184819E-01    0.2960057747E-02    0.3316556628E-02    0.2742837965E+00
    0.4500000000E+02    0.1176212670E+00    0.4928131987E-01    0.3027601951E-02    0.3442793896E-02    0.2808698271E+00
    0.4700000000E+02    0.1218643245E+00    0.5038205432E-01    0.3091775924E-02    0.3567016355E-02    0.2871791403E+00
    0.4900000000E+02    0.1260401514E+00    0.5143707837E-01    0.3152768629E-02    0.3689272688E-02    0.2932288688E+00
    0.1000000000E+02    0.3045393463E-01    0.1761177136E-01    0.1087078103E-02    0.8912647735E-03    0.1001148714E+00
    0.3000000000E+02    0.8347767004E-01    0.3921213063E-01    0.2422894065E-02    0.2443260561E-02    0.2232574134E+00
    0.5000000000E+02    0.1281033591E+00    0.5194832707E-01    0.3182127152E-02    0.3749678340E-02    0.2961613596E+00
    0.7000000000E+02    0.1662039136E+00    0.6034175674E-01    0.3638533199E-02    0.4865269762E-02    0.3444008001E+00
    0.9000000000E+02    0.1991310562E+00    0.6628622738E-01    0.3914819686E-02    0.5829552593E-02    0.3787026594E+00
    0.1100000000E+03    0.2278850100E+00    0.7071446341E-01    0.4076078840E-02    0.6671770131E-02    0.4043574683E+00
    0.1300000000E+03    0.2532219864E+00    0.7413908352E-01    0.4160664487E-02    0.7414032807E-02    0.4242769122E+00
    0.1500000000E+03    0.2757245115E+00    0.7686515842E-01    0.4192787145E-02    0.8073373729E-02    0.4401962046E+00
    0.1700000000E+03    0.2958487489E+00    0.7908557887E-01    0.4188466217E-02    0.8663131910E-02    0.4532140097E+00
    0.1900000000E+03    0.3139571377E+00    0.8092826714E-01    0.4158660297E-02    0.9193906291E-02    0.4640599517E+00
    0.2100000000E+03    0.3303413977E+00    0.8248139845E-01    0.4111049523E-02    0.9674228221E-02    0.4732376447E+00
    0.2300000000E+03    0.3452390630E+00    0.8380772064E-01    0.4051113239E-02    0.1011104478E-01    0.4811059663E+00
    0.2500000000E+03    0.3588455735E+00    0.8495309996E-01    0.3982812392E-02    0.1051007227E-01    0.4879276020E+00
    0.2700000000E+03    0.3713232579E+00    0.8595183789E-01    0.3909037553E-02    0.1087605879E-01    0.4938992720E+00
    0.2900000000E+03    0.3828081029E+00    0.8683009801E-01    0.3831911665E-02    0.1121298218E-01    0.4991712298E+00
    0.3100000000E+03    0.3934149213E+00    0.8760818274E-01    0.3752999460E-02    0.1152420109E-01    0.5038602276E+00
    0.3300000000E+03    0.4032413438E+00    0.8830208639E-01    0.3673455123E-02    0.1181257172E-01    0.5080583681E+00
    0.3500000000E+03    0.4123709383E+00    0.8892457944E-01    0.3594128114E-02    0.1208053896E-01    0.5118392886E+00
    0.3700000000E+03    0.4208756687E+00    0.8948598108E-01    0.3515640016E-02    0.1233020838E-01    0.5152625726E+00
    0.3900000000E+03    0.4288178545E+00    0.8999471989E-01    0.3438441012E-02    0.1256340343E-01    0.5183769522E+00
    0.4100000000E+03    0.4362517435E+00    0.9045774739E-01    0.3362851784E-02    0.1278171150E-01    0.5212226734E+00
    0.4300000000E+03    0.4432247851E+00    0.9088084767E-01    0.3289094882E-02    0.1298652112E-01    0.5238332684E+00
    0.4500000000E+03    0.4497786694E+00    0.9126887223E-01    0.3217318360E-02    0.1317905235E-01    0.5262369002E+00
    0.4700000000E+03    0.4559501797E+00    0.9162592046E-01    0.3147613718E-02    0.1336038171E-01    0.5284573977E+00
    0.4900000000E+03    0.4617718979E+00    0.9195547970E-01    0.3080029581E-02    0.1353146283E-01    0.5305150591E+00
    0.1000000000E+03    0.2139776624E+00    0.6865132421E-01    0.4006998869E-02    0.6264398589E-02    0.3923920678E+00
    0.3000000000E+03    0.3882148010E+00    0.8723057622E-01    0.3792598500E-02    0.1137161558E-01    0.5015823475E+00
    0.5000000000E+03    0.4645607643E+00    0.9211090094E-01    0.3047038806E-02    0.1361342898E-01    0.5314883621E+00
    0.7000000000E+03    0.5075504141E+00    0.9431569635E-01    0.2492811806E-02    0.1487795977E-01    0.5455578892E+00
    0.9000000000E+03    0.5351282569E+00    0.9555111167E-01    0.2099872329E-02    0.1569054961E-01    0.5537700527E+00
    0.1100000000E+04    0.5543152865E+00    0.9633010044E-01    0.1814425920E-02    0.1625686928E-01    0.5591681749E+00
    0.1300000000E+04    0.5684300544E+00    0.9685941961E-01    0.1600262046E-02    0.1667418915E-01    0.5629958247E+00
    0.1500000000E+04    0.5792458027E+00    0.9723809228E-01    0.1434698223E-02    0.1699451536E-01    0.5658566439E+00
    0.1700000000E+04    0.5877961190E+00    0.9751933125E-01    0.1303346760E-02    0.1724817889E-01    0.5680793690E+00
    0.1900000000E+04    0.5947240555E+00    0.9773420093E-01    0.1196812205E-02    0.1745406125E-01    0.5698584791E+00
    0.2100000000E+04    0.6004505730E+00    0.9790200786E-01    0.1108765690E-02    0.1762452994E-01    0.5713164637E+00
    0.2300000000E+04    0.6052627431E+00    0.9803535469E-01    0.1034817889E-02    0.1776802374E-01    0.5725343565E+00
    0.2500000000E+04    0.6093630229E+00    0.9814279995E-01    0.9718433859E-03    0.1789049753E-01    0.5735679318E+00
    0.2700000000E+04    0.6128982690E+00    0.9823034809E-01    0.9175638480E-03    0.1799627327E-01    0.5744568522E+00
    0.2900000000E+04    0.6159775844E+00    0.9830232825E-01    0.8702833942E-03    0.1808856368E-01    0.5752301057E+00
    0.3100000000E+04    0.6186837094E+00    0.9836193492E-01    0.8287160083E-03    0.1816980658E-01    0.5759093778E+00
    0.3300000000E+04    0.6210805247E+00    0.9841157288E-01    0.7918701602E-03    0.1824188521E-01    0.5765112203E+00
    0.3500000000E+04    0.6232181318E+00    0.9845308409E-01    0.7589699116E-03    0.1830627741E-01    0.5770484892E+00
    0.3700000000E+04    0.6251363754E+00    0.9848790114E-01    0.7293998528E-03    0.1836415917E-01    0.5775313244E+00
    0.3900000000E+04    0.6268673387E+00    0.9851715326E-01    0.7026659487E-03    0.1841647793E-01    0.5779678330E+00
    0.4100000000E+04    0.6284371442E+00    0.9854174140E-01    0.6783672209E-03    0.1846400556E-01    0.5783645763E+00
    0.4300000000E+04    0.6298672759E+00    0.9856239205E-01    0.6561749480E-03    0.1850737721E-01    0.5787269221E+00
    0.4500000000E+04    0.6311755642E+00    0.9857969681E-01    0.6358171691E-03    0.1854712035E-01    0.5790593057E+00
    0.4700000000E+04    0.6323769306E+00    0.9859414163E-01    0.6170669878E-03    0.1858367663E-01    0.5793654242E+00
    0.4900000000E+04    0.6334839574E+00    0.9860612888E-01    0.5997336387E-03    0.1861741866E-01    0.5796483851E+00
    0.1000000000E+04    0.5455121236E+00    0.9598099941E-01    0.1946366852E-02    0.1599691756E-01    0.5567210230E+00
    0.3000000000E+04    0.6173729299E+00    0.9833351257E-01    0.8488533750E-03    0.1813043739E-01    0.5755803542E+00
    0.5000000000E+04    0.6340054964E+00    0.9861130802E-01    0.5915468107E-03    0.1863333517E-01    0.5797820196E+00
    0.7000000000E+04    0.6413904785E+00    0.9864390841E-01    0.4734845050E-03    0.1886048674E-01    0.5817068233E+00
    0.9000000000E+04    0.6455609097E+00    0.9861363805E-01    0.4038149009E-03    0.1899092101E-01    0.5828380054E+00
    0.1100000000E+05    0.6482400783E+00    0.9856348712E-01    0.3569570117E-03    0.1907609533E-01    0.5835952687E+00
    0.1300000000E+05    0.6501063865E+00    0.9850734314E-01    0.3228275267E-03    0.1913638785E-01    0.5841446879E+00
    0.1500000000E+05    0.6514809713E+00    0.9845044074E-01    0.2966048077E-03    0.1918150144E-01    0.5845656949E+00
    0.1700000000E+05    0.6525355070E+00    0.9839488805E-01    0.2756724209E-03    0.1921665293E-01    0.5849012941E+00
    0.1900000000E+05    0.6533700892E+00    0.9834152036E-01    0.2584776968E-03    0.1924490136E-01    0.5851769085E+00
    0.2100000000E+05    0.6540470170E+00    0.9829061570E-01    0.2440356942E-03    0.1926816139E-01    0.5854085908E+00
    0.2300000000E+05    0.6546070933E+00    0.9824219916E-01    0.2316885016E-03    0.1928769407E-01    0.5856070101E+00
    0.2500000000E+05    0.6550781595E+00    0.9819618145E-01    0.2209781871E-03    0.1930436463E-01    0.5857795550E+00
    0.2700000000E+05    0.6554798636E+00    0.9815242476E-01    0.2115751279E-03    0.1931878704E-01    0.5859315169E+00
    0.2900000000E+05    0.6558264673E+00    0.9811077495E-01    0.2032353449E-03    0.1933140943E-01    0.5860667938E+00
    0.3100000000E+05    0.6561285737E+00    0.9807107734E-01    0.1957739453E-03    0.1934256675E-01    0.5861883263E+00
    0.3300000000E+05    0.6563942295E+00    0.9803318414E-01    0.1890479615E-03    0.1935251458E-01    0.5862983782E+00
    0.3500000000E+05    0.6566296515E+00    0.9799695772E-01    0.1829449007E-03    0.1936145147E-01    0.5863987239E+00
    0.3700000000E+05    0.6568397191E+00    0.9796227170E-01    0.1773748913E-03    0.1936953406E-01    0.5864907759E+00
    0.3900000000E+05    0.6570283154E+00    0.9792901091E-01    0.1722651644E-03    0.1937688768E-01    0.5865756739E+00
    0.4100000000E+05    0.6571985692E+00    0.9789707076E-01    0.1675560940E-03    0.1938361385E-01    0.5866543489E+00
    0.4300000000E+05    0.6573530294E+00    0.9786635649E-01    0.1631983007E-03    0.1938979571E-01    0.5867275701E+00
    0.4500000000E+05    0.6574937938E+00    0.9783678224E-01    0.1591504982E-03    0.1939550205E-01    0.5867959786E+00
    0.4700000000E+05    0.6576226045E+00    0.9780827015E-01    0.1553778674E-03    0.1940079028E-01    0.5868601142E+00
    0.4900000000E+05    0.6577409200E+00    0.9778074959E-01    0.1518508122E-03    0.1940570874E-01    0.5869204348E+00
    0.1000000000E+05    0.6470320211E+00    0.9858986303E-01    0.3783485931E-03    0.1903751967E-01    0.5832499738E+00
    0.3000000000E+05    0.6559825298E+00    0.9809069157E-01    0.1994046096E-03    0.1933715369E-01    0.5861291233E+00
    0.5000000000E+05    0.6577965343E+00    0.9776734083E-01    0.1501713130E-03    0.1940804235E-01    0.5869492890E+00
    0.7000000000E+05    0.6585753586E+00    0.9753837859E-01    0.1248802222E-03    0.1944261326E-01    0.5873968628E+00
    0.9000000000E+05    0.6590078797E+00    0.9736168354E-01    0.1088967695E-03    0.1946408895E-01    0.5876975648E+00
    0.1100000000E+06    0.6592827683E+00    0.9721793663E-01    0.9765092848E-04    0.1947918486E-01    0.5879216382E+00
    0.1300000000E+06    0.6594727346E+00    0.9709681884E-01    0.8919682515E-04    0.1949062030E-01    0.5880992472E+00
    0.1500000000E+06    0.6596117465E+00    0.9699219185E-01    0.8254850127E-04    0.1949972591E-01    0.5882458950E+00
    0.1700000000E+06    0.6597177973E+00    0.9690011288E-01    0.7714647741E-04    0.1950723817E-01    0.5883705314E+00
    0.1900000000E+06    0.6598013071E+00    0.9681790055E-01    0.7264678347E-04    0.1951360179E-01    0.5884787624E+00
    0.2100000000E+06    0.6598687268E+00    0.9674364918E-01    0.6882488421E-04    0.1951910335E-01    0.5885743194E+00
    0.2300000000E+06    0.6599242631E+00    0.9667595612E-01    0.6552721766E-04    0.1952393705E-01    0.5886598044E+00
    0.2500000000E+06    0.6599707760E+00    0.9661375911E-01    0.6264476905E-04    0.1952823991E-01    0.5887371013E+00
    0.2700000000E+06    0.6600102774E+00    0.9655623449E-01    0.6009774557E-04    0.1953211181E-01    0.5888076161E+00
    0.2900000000E+06    0.6600442238E+00    0.9650273071E-01    0.5782623369E-04    0.1953562760E-01    0.5888724243E+00
    0.3100000000E+06    0.6600736951E+00    0.9645272353E-01    0.5578426261E-04    0.1953884466E-01    0.5889323670E+00
    0.3300000000E+06    0.6600995093E+00    0.9640578490E-01    0.5393589823E-04    0.1954180788E-01    0.5889881135E+00
    0.3500000000E+06    0.6601222968E+00    0.9636156079E-01    0.5225259516E-04    0.1954455296E-01    0.5890402050E+00
    0.3700000000E+06    0.6601425517E+00    0.9631975507E-01    0.5071135460E-04    0.1954710874E-01    0.5890890854E+00
    0.3900000000E+06    0.6601606662E+00    0.9628011751E-01    0.4929341362E-04    0.1954949881E-01    0.5891351226E+00
    0.4100000000E+06    0.6601769560E+00    0.9624243479E-01    0.4798329385E-04    0.1955174270E-01    0.5891786253E+00
    0.4300000000E+06    0.6601916779E+00    0.9620652358E-01    0.4676809855E-04    0.1955385675E-01    0.5892198550E+00
    0.4500000000E+06    0.6602050426E+00    0.9617222517E-01    0.4563698511E-04    0.1955585475E-01    0.5892590348E+00
    0.4700000000E+06    0.6602172252E+00    0.9613940124E-01    0.4458076343E-04    0.1955774845E-01    0.5892963567E+00
    0.4900000000E+06    0.6602283719E+00    0.9610793054E-01    0.4359158610E-04    0.1955954793E-01    0.5893319871E+00
    0.1000000000E+06    0.6591591224E+00    0.9728646980E-01    0.1028360764E-03    0.1947221625E-01    0.5878167944E+00
    0.3000000000E+06    0.6600594626E+00    0.9647731876E-01    0.5677900084E-04    0.1953727042E-01    0.5889029586E+00
    0.5000000000E+06    0.6602335960E+00    0.9609266873E-01    0.4311999332E-04    0.1956041511E-01    0.5893492141E+00
    0.7000000000E+06    0.6603054142E+00    0.9583809613E-01    0.3597679538E-04    0.1957441869E-01    0.5896321405E+00
    0.9000000000E+06    0.6603436760E+00    0.9564761312E-01    0.3142630027E-04    0.1958443428E-01    0.5898393158E+00
    0.1100000000E+07    0.6603669501E+00    0.9549539905E-01    0.2821028406E-04    0.1959222223E-01    0.5900026989E+00
    0.1300000000E+07    0.6603823023E+00    0.9536864461E-01    0.2578578868E-04    0.1959859016E-01    0.5901375402E+00
    0.1500000000E+07    0.6603929932E+00    0.9526005611E-01    0.2387546398E-04    0.1960397469E-01    0.5902523064E+00
    0.1700000000E+07    0.6604007287E+00    0.9516508341E-01    0.2232107166E-04    0.1960863824E-01    0.5903521849E+00
    0.1900000000E+07    0.6604064845E+00    0.9508069623E-01    0.2102494770E-04    0.1961275071E-01    0.5904405838E+00
    0.2100000000E+07    0.6604108570E+00    0.9500477481E-01    0.1992315375E-04    0.1961642835E-01    0.5905198621E+00
    0.2300000000E+07    0.6604142300E+00    0.9493577815E-01    0.1897186304E-04    0.1961975420E-01    0.5905917198E+00
    0.2500000000E+07    0.6604168611E+00    0.9487255085E-01    0.1813990670E-04    0.1962278960E-01    0.5906574228E+00
    0.2700000000E+07    0.6604189290E+00    0.9481420436E-01    0.1740443753E-04    0.1962558114E-01    0.5907179388E+00
    0.2900000000E+07    0.6604205615E+00    0.9476004066E-01    0.1674827961E-04    0.1962816507E-01    0.5907740240E+00
    0.3100000000E+07    0.6604218517E+00    0.9470950141E-01    0.1615824072E-04    0.1963057010E-01    0.5908262810E+00
    0.3300000000E+07    0.6604228695E+00    0.9466213304E-01    0.1562399995E-04    0.1963281938E-01    0.5908751970E+00
    0.3500000000E+07    0.6604236676E+00    0.9461756206E-01    0.1513735243E-04    0.1963493184E-01    0.5909211722E+00
    0.3700000000E+07    0.6604242870E+00    0.9457547725E-01    0.1469168331E-04    0.1963692317E-01    0.5909645388E+00
    0.3900000000E+07    0.6604247596E+00    0.9453561657E-01    0.1428159299E-04    0.1963880650E-01    0.5910055760E+00
    0.4100000000E+07    0.6604251107E+00    0.9449775733E-01    0.1390262487E-04    0.1964059293E-01    0.5910445204E+00
    0.4300000000E+07    0.6604253605E+00    0.9446170863E-01    0.1355106403E-04    0.1964229195E-01    0.5910815743E+00
    0.4500000000E+07    0.6604255255E+00    0.9442730565E-01    0.1322378598E-04    0.1964391171E-01    0.5911169122E+00
    0.4700000000E+07    0.6604256189E+00    0.9439440508E-01    0.1291814151E-04    0.1964545927E-01    0.5911506853E+00
    0.4900000000E+07    0.6604256518E+00    0.9436288152E-01    0.1263186774E-04    0.1964694079E-01    0.5911830259E+00
    0.1000000000E+07    0.6603566108E+00    0.9556770331E-01    0.2969446088E-04    0.1958854381E-01    0.5899253038E+00
    0.3000000000E+07    0.6604212446E+00    0.9473434845E-01    0.1644569743E-04    0.1962938839E-01    0.5908005983E+00
    0.5000000000E+07    0.6604256485E+00    0.9434760112E-01    0.1249537595E-04    0.1964765851E-01    0.5911986959E+00
    0.7000000000E+07    0.6604239527E+00    0.9409331723E-01    0.1042721769E-04    0.1965956799E-01    0.5914589061E+00
    0.9000000000E+07    0.6604210109E+00    0.9390366396E-01    0.9109110324E-05    0.1966841931E-01    0.5916524025E+00
    0.1100000000E+08    0.6604178583E+00    0.9375240864E-01    0.8177319369E-05    0.1967546654E-01    0.5918064405E+00
    0.1300000000E+08    0.6604147843E+00    0.9362661870E-01    0.7474752150E-05    0.1968132215E-01    0.5919343841E+00
    0.1500000000E+08    0.6604118730E+00    0.9351895956E-01    0.6921124467E-05    0.1968633154E-01    0.5920437862E+00
    0.1700000000E+08    0.6604091423E+00    0.9342486825E-01    0.6470616689E-05    0.1969070876E-01    0.5921393334E+00
    0.1900000000E+08    0.6604065869E+00    0.9334131232E-01    0.6094942824E-05    0.1969459570E-01    0.5922241349E+00
    0.2100000000E+08    0.6604041936E+00    0.9326617381E-01    0.5775581660E-05    0.1969809124E-01    0.5923003588E+00
    0.2300000000E+08    0.6604019478E+00    0.9319791507E-01    0.5499836179E-05    0.1970126709E-01    0.5923695774E+00
    0.2500000000E+08    0.6603998349E+00    0.9313538443E-01    0.5258675592E-05    0.1970417688E-01    0.5924329669E+00
    0.2700000000E+08    0.6603978417E+00    0.9307769696E-01    0.5045479687E-05    0.1970686178E-01    0.5924914306E+00
