  Pressure (Pa) 22mC5-400 (mol/kg) 3mC6-400 (mol/kg) 33mC5-400 (mol/kg) 23mC5-400 (mol/kg) C7-400 (mol/kg)
    0.1000000000E+01    0.3707640692E-02    0.1574233899E-02    0.2575470918E-03    0.9300311279E-04    0.8515255739E-02
    0.3000000000E+01    0.1099442080E-01    0.4584431628E-02    0.7484608013E-03    0.2757888392E-03    0.2480137189E-01
    0.5000000000E+01    0.1811487685E-01    0.7423392220E-02    0.1209310721E-02    0.4544061171E-03    0.4016549832E-01
    0.7000000000E+01    0.2507477719E-01    0.1010533695E-01    0.1642465331E-02    0.6289994740E-03    0.5468408245E-01
    0.9000000000E+01    0.3187962486E-01    0.1264295429E-01    0.2050047802E-02    0.7997067901E-03    0.6842533872E-01
    0.1100000000E+02    0.3853467260E-01    0.1504760101E-01    0.2433967623E-02    0.9666596758E-03    0.8145032809E-01
    0.1300000000E+02    0.4504493692E-01    0.1732947239E-01    0.2795947400E-02    0.1129983824E-02    0.9381387212E-01
    0.1500000000E+02    0.5141521121E-01    0.1949774705E-01    0.3137545668E-02    0.1289799336E-02    0.1055653303E+00
    0.1700000000E+02    0.5765007802E-01    0.2156071057E-01    0.3460176398E-02    0.1446221034E-02    0.1167492642E+00
    0.1900000000E+02    0.6375392046E-01    0.2352586152E-01    0.3765125745E-02    0.1599358741E-02    0.1274060064E+00
    0.2100000000E+02    0.6973093297E-01    0.2540000278E-01    0.4053566485E-02    0.1749317556E-02    0.1375721514E+00
    0.2300000000E+02    0.7558513135E-01    0.2718932035E-01    0.4326570511E-02    0.1896198099E-02    0.1472809784E+00
    0.2500000000E+02    0.8132036214E-01    0.2889945176E-01    0.4585119682E-02    0.2040096754E-02    0.1565628190E+00
    0.2700000000E+02    0.8694031149E-01    0.3053554554E-01    0.4830115283E-02    0.2181105882E-02    0.1654453765E+00
    0.2900000000E+02    0.9244851337E-01    0.3210231312E-01    0.5062386291E-02    0.2319314036E-02    0.1739540047E+00
    0.3100000000E+02    0.9784835739E-01    0.3360407424E-01    0.5282696632E-02    0.2454806150E-02    0.1821119522E+00
    0.3300000000E+02    0.1031430961E+00    0.3504479686E-01    0.5491751558E-02    0.2587663723E-02    0.1899405759E+00
    0.3500000000E+02    0.1083358518E+00    0.3642813226E-01    0.5690203283E-02    0.2717964994E-02    0.1974595304E+00
    0.3700000000E+02    0.1134296231E+00    0.3775744598E-01    0.5878655963E-02    0.2845785099E-02    0.2046869340E+00
    0.3900000000E+02    0.1184272909E+00    0.3903584529E-01    0.6057670118E-02    0.2971196229E-02    0.2116395162E+00
    0.4100000000E+02    0.1233316240E+00    0.4026620348E-01    0.6227766564E-02    0.3094267767E-02    0.2183327483E+00
    0.4300000000E+02    0.1281452850E+00    0.4145118148E-01    0.6389429919E-02    0.3215066427E-02    0.2247809595E+00
    0.4500000000E+02    0.1328708346E+00    0.4259324714E-01    0.6543111738E-02    0.3333656381E-02    0.2309974405E+00
    0.4700000000E+02    0.1375107371E+00    0.4369469241E-01    0.6689233321E-02    0.3450099380E-02    0.2369945361E+00
    0.4900000000E+02    0.1420673646E+00    0.4475764878E-01    0.6828188234E-02    0.3564454864E-02    0.2427837277E+00
    0.1000000000E+02    0.3522555481E-01    0.1386123636E-01    0.2244853786E-02    0.8836445462E-03    0.7502380390E-01
    0.3000000000E+02    0.9516177369E-01    0.3286106367E-01    0.5173991161E-02    0.2387394426E-02    0.1780754367E+00
    0.5000000000E+02    0.1443151674E+00    0.4527531925E-01    0.6895094156E-02    0.3620867758E-02    0.2456037298E+00
    0.7000000000E+02    0.1854123855E+00    0.5402409011E-01    0.7934807711E-02    0.4652389069E-02    0.2933304929E+00
    0.9000000000E+02    0.2203246043E+00    0.6052278446E-01    0.8560096268E-02    0.5528849453E-02    0.3288840195E+00
    0.1100000000E+03    0.2503793051E+00    0.6554084128E-01    0.8920956271E-02    0.6283517341E-02    0.3564153273E+00
    0.1300000000E+03    0.2765450465E+00    0.6953258218E-01    0.9107700359E-02    0.6940667634E-02    0.3783778564E+00
    0.1500000000E+03    0.2995456670E+00    0.7278359166E-01    0.9177434673E-02    0.7518442998E-02    0.3963153529E+00
    0.1700000000E+03    0.3199334480E+00    0.7548242530E-01    0.9167592542E-02    0.8030686982E-02    0.4112480689E+00
    0.1900000000E+03    0.3381374586E+00    0.7775860735E-01    0.9103388200E-02    0.8488155372E-02    0.4238775310E+00
    0.2100000000E+03    0.3544963778E+00    0.7970406503E-01    0.9002163183E-02    0.8899338623E-02    0.4347021190E+00
    0.2300000000E+03    0.3692813163E+00    0.8138585339E-01    0.8876037010E-02    0.9271033736E-02    0.4440857222E+00
    0.2500000000E+03    0.3827120242E+00    0.8285403827E-01    0.8733582980E-02    0.9608750409E-02    0.4523002969E+00
    0.2700000000E+03    0.3949686228E+00    0.8414675889E-01    0.8580919311E-02    0.9917005038E-02    0.4595532139E+00
    0.2900000000E+03    0.4062002418E+00    0.8529358142E-01    0.8422437217E-02    0.1019953717E-01    0.4660053854E+00
    0.3100000000E+03    0.4165314774E+00    0.8631778080E-01    0.8261296858E-02    0.1045947137E-01    0.4717836049E+00
    0.3300000000E+03    0.4260672887E+00    0.8723793037E-01    0.8099771175E-02    0.1069943991E-01    0.4769891501E+00
    0.3500000000E+03    0.4348967588E+00    0.8806903250E-01    0.7939487885E-02    0.1092167706E-01    0.4817039046E+00
    0.3700000000E+03    0.4430960159E+00    0.8882333780E-01    0.7781602038E-02    0.1112809231E-01    0.4859947962E+00
    0.3900000000E+03    0.4507305280E+00    0.8951094864E-01    0.7626920475E-02    0.1132032785E-01    0.4899170688E+00
    0.4100000000E+03    0.4578569231E+00    0.9014027044E-01    0.7475992472E-02    0.1149980424E-01    0.4935167301E+00
    0.4300000000E+03    0.4645244451E+00    0.9071835374E-01    0.7329176322E-02    0.1166775689E-01    0.4968324081E+00
    0.4500000000E+03    0.4707761297E+00    0.9125115669E-01    0.7186688616E-02    0.1182526551E-01    0.4998967766E+00
    0.4700000000E+03    0.4766497606E+00    0.9174374878E-01    0.7048640936E-02    0.1197327813E-01    0.5027376625E+00
    0.4900000000E+03    0.4821786527E+00    0.9220047063E-01    0.6915067325E-02    0.1211263069E-01    0.5053789137E+00
    0.1000000000E+03    0.2358917890E+00    0.6318334638E-01    0.8766935507E-02    0.5919719372E-02    0.3434713486E+00
    0.3000000000E+03    0.4114714361E+00    0.8581975304E-01    0.8342039706E-02    0.1033215418E-01    0.4689718928E+00
    0.5000000000E+03    0.4848231721E+00    0.9241656903E-01    0.6849952927E-02    0.1217929409E-01    0.5066312133E+00
    0.7000000000E+03    0.5252519182E+00    0.9553765346E-01    0.5761274848E-02    0.1319938656E-01    0.5249552055E+00
    0.9000000000E+03    0.5508474864E+00    0.9734357984E-01    0.4988928894E-02    0.1384647934E-01    0.5358565717E+00
    0.1100000000E+04    0.5684916359E+00    0.9851292559E-01    0.4422409103E-02    0.1429342310E-01    0.5431143458E+00
    0.1300000000E+04    0.5813816438E+00    0.9932674552E-01    0.3991374990E-02    0.1462057937E-01    0.5483088047E+00
    0.1500000000E+04    0.5912052546E+00    0.9992234484E-01    0.3652799624E-02    0.1487039703E-01    0.5522192432E+00
    0.1700000000E+04    0.5989370946E+00    0.1003746845E+00    0.3379675732E-02    0.1506740547E-01    0.5552750716E+00
    0.1900000000E+04    0.6051790290E+00    0.1007281120E+00    0.3154425638E-02    0.1522676248E-01    0.5577326796E+00
    0.2100000000E+04    0.6103226412E+00    0.1010105129E+00    0.2965196881E-02    0.1535833647E-01    0.5597547669E+00
    0.2300000000E+04    0.6146335903E+00    0.1012402824E+00    0.2803738071E-02    0.1546882680E-01    0.5614496464E+00
    0.2500000000E+04    0.6182984027E+00    0.1014300342E+00    0.2664140624E-02    0.1556294036E-01    0.5628922695E+00
    0.2700000000E+04    0.6214518595E+00    0.1015886984E+00    0.2542067685E-02    0.1564408054E-01    0.5641361851E+00
    0.2900000000E+04    0.6241937551E+00    0.1017227690E+00    0.2434266171E-02    0.1571476888E-01    0.5652206911E+00
    0.3100000000E+04    0.6265995440E+00    0.1018370772E+00    0.2338248807E-02    0.1577691322E-01    0.5661752934E+00
    0.3300000000E+04    0.6287273268E+00    0.1019352893E+00    0.2252081350E-02    0.1583198354E-01    0.5670225865E+00
    0.3500000000E+04    0.6306225620E+00    0.1020202350E+00    0.2174236776E-02    0.1588113074E-01    0.5677801720E+00
    0.3700000000E+04    0.6323213237E+00    0.1020941320E+00    0.2103493180E-02    0.1592526873E-01    0.5684619707E+00
    0.3900000000E+04    0.6338526017E+00    0.1021587412E+00    0.2038860891E-02    0.1596513242E-01    0.5690791400E+00
    0.4100000000E+04    0.6352399571E+00    0.1022154782E+00    0.1979529514E-02    0.1600131950E-01    0.5696407303E+00
    0.4300000000E+04    0.6365027354E+00    0.1022654926E+00    0.1924828844E-02    0.1603432102E-01    0.5701541620E+00
    0.4500000000E+04    0.6376569678E+00    0.1023097274E+00    0.1874199585E-02    0.1606454421E-01    0.5706255777E+00
    0.4700000000E+04    0.6387160511E+00    0.1023489629E+00    0.1827171135E-02    0.1609232956E-01    0.5710601078E+00
    0.4900000000E+04    0.6396912671E+00    0.1023838496E+00    0.1783344516E-02    0.1611796402E-01    0.5714620712E+00
    0.1000000000E+04    0.5604134789E+00    0.9798531024E-01    0.4685148051E-02    0.1408868720E-01    0.5398146325E+00
    0.3000000000E+04    0.6254346888E+00    0.1017821414E+00    0.2384916355E-02    0.1574680853E-01    0.5657126822E+00
    0.5000000000E+04    0.6401504728E+00    0.1023998366E+00    0.1762523470E-02    0.1613005224E-01    0.5716520071E+00
    0.7000000000E+04    0.6466361343E+00    0.1025870665E+00    0.1452786739E-02    0.1630233051E-01    0.5743940330E+00
    0.9000000000E+04    0.6502841980E+00    0.1026457778E+00    0.1260665290E-02    0.1640111323E-01    0.5760091465E+00
    0.1100000000E+05    0.6526218111E+00    0.1026536178E+00    0.1127069449E-02    0.1646561211E-01    0.5770901456E+00
    0.1300000000E+05    0.6542472327E+00    0.1026383180E+00    0.1027429102E-02    0.1651129442E-01    0.5778732285E+00
    0.1500000000E+05    0.6554427434E+00    0.1026117536E+00    0.9495097177E-03    0.1654550743E-01    0.5784718845E+00
    0.1700000000E+05    0.6563588897E+00    0.1025796248E+00    0.8864586982E-03    0.1657219569E-01    0.5789477517E+00
    0.1900000000E+05    0.6570832900E+00    0.1025448838E+00    0.8341049572E-03    0.1659367000E-01    0.5793373498E+00
    0.2100000000E+05    0.6576703989E+00    0.1025091385E+00    0.7897470268E-03    0.1661137589E-01    0.5796637741E+00
    0.2300000000E+05    0.6581558390E+00    0.1024732924E+00    0.7515489573E-03    0.1662626508E-01    0.5799423907E+00
    0.2500000000E+05    0.6585638931E+00    0.1024378604E+00    0.7182140869E-03    0.1663899049E-01    0.5801838477E+00
    0.2700000000E+05    0.6589116829E+00    0.1024031338E+00    0.6887973717E-03    0.1665001542E-01    0.5803957740E+00
    0.2900000000E+05    0.6592116277E+00    0.1023692723E+00    0.6625917495E-03    0.1665967803E-01    0.5805837899E+00
    0.3100000000E+05    0.6594729542E+00    0.1023363555E+00    0.6390563505E-03    0.1666823116E-01    0.5807521346E+00
    0.3300000000E+05    0.6597026608E+00    0.1023044147E+00    0.6177694931E-03    0.1667586776E-01    0.5809040714E+00
    0.3500000000E+05    0.6599061516E+00    0.1022734511E+00    0.5983969565E-03    0.1668273775E-01    0.5810421567E+00
    0.3700000000E+05    0.6600876661E+00    0.1022434478E+00    0.5806699915E-03    0.1668895947E-01    0.5811684242E+00
    0.3900000000E+05    0.6602505767E+00    0.1022143773E+00    0.5643697252E-03    0.1669462763E-01    0.5812845144E+00
    0.4100000000E+05    0.6603975994E+00    0.1021862058E+00    0.5493158749E-03    0.1669981897E-01    0.5813917662E+00
    0.4300000000E+05    0.6605309465E+00    0.1021588963E+00    0.5353584314E-03    0.1670459638E-01    0.5814912847E+00
    0.4500000000E+05    0.6606524378E+00    0.1021324107E+00    0.5223714307E-03    0.1670901189E-01    0.5815839906E+00
    0.4700000000E+05    0.6607635840E+00    0.1021067111E+00    0.5102482229E-03    0.1671310896E-01    0.5816706582E+00
    0.4900000000E+05    0.6608656499E+00    0.1020817602E+00    0.4988978293E-03    0.1671692420E-01    0.5817519437E+00
    0.1000000000E+05    0.6515683664E+00    0.1026537562E+00    0.1188511937E-02    0.1643639790E-01    0.5765973743E+00
    0.3000000000E+05    0.6593466373E+00    0.1023526930E+00    0.6505189908E-03    0.1666408005E-01    0.5806701980E+00
    0.5000000000E+05    0.6609136177E+00    0.1020695543E+00    0.4934875809E-03    0.1671873602E-01    0.5817907464E+00
    0.7000000000E+05    0.6615847216E+00    0.1018569169E+00    0.4116137009E-03    0.1674572077E-01    0.5823853910E+00
    0.9000000000E+05    0.6619567845E+00    0.1016885374E+00    0.3595160287E-03    0.1676265095E-01    0.5827763533E+00
    0.1100000000E+06    0.6621929251E+00    0.1015495091E+00    0.3227163277E-03    0.1677464864E-01    0.5830627157E+00
    0.1300000000E+06    0.6623559215E+00    0.1014312172E+00    0.2949816580E-03    0.1678379871E-01    0.5832865296E+00
    0.1500000000E+06    0.6624750713E+00    0.1013283153E+00    0.2731323216E-03    0.1679112624E-01    0.5834691725E+00
    0.1700000000E+06    0.6625658811E+00    0.1012372757E+00    0.2553556478E-03    0.1679720117E-01    0.5836228610E+00
    0.1900000000E+06    0.6626373243E+00    0.1011556540E+00    0.2405334573E-03    0.1680236904E-01    0.5837551772E+00
    0.2100000000E+06    0.6626949526E+00    0.1010816886E+00    0.2279339723E-03    0.1680685338E-01    0.5838711243E+00
    0.2300000000E+06    0.6627423844E+00    0.1010140686E+00    0.2170557237E-03    0.1681080623E-01    0.5839741647E+00
    0.2500000000E+06    0.6627820782E+00    0.1009517930E+00    0.2075421437E-03    0.1681433519E-01    0.5840667868E+00
    0.2700000000E+06    0.6628157627E+00    0.1008940798E+00    0.1991318999E-03    0.1681751894E-01    0.5841508350E+00
    0.2900000000E+06    0.6628446886E+00    0.1008403069E+00    0.1916285509E-03    0.1682041664E-01    0.5842277121E+00
    0.3100000000E+06    0.6628697833E+00    0.1007899712E+00    0.1848812292E-03    0.1682307373E-01    0.5842985082E+00
    0.3300000000E+06    0.6628917483E+00    0.1007426600E+00    0.1787719111E-03    0.1682552588E-01    0.5843640865E+00
    0.3500000000E+06    0.6629111246E+00    0.1006980309E+00    0.1732067756E-03    0.1682780150E-01    0.5844251413E+00
    0.3700000000E+06    0.6629283356E+00    0.1006557964E+00    0.1681101857E-03    0.1682992361E-01    0.5844822390E+00
    0.3900000000E+06    0.6629437176E+00    0.1006157127E+00    0.1634204018E-03    0.1683191107E-01    0.5845358477E+00
    0.4100000000E+06    0.6629575411E+00    0.1005775716E+00    0.1590864680E-03    0.1683377954E-01    0.5845863580E+00
    0.4300000000E+06    0.6629700257E+00    0.1005411937E+00    0.1550659089E-03    0.1683554212E-01    0.5846340994E+00
    0.4500000000E+06    0.6629813523E+00    0.1005064233E+00    0.1513230009E-03    0.1683720992E-01    0.5846793521E+00
    0.4700000000E+06    0.6629916703E+00    0.1004731245E+00    0.1478274541E-03    0.1683879239E-01    0.5847223566E+00
    0.4900000000E+06    0.6630011050E+00    0.1004411779E+00    0.1445533961E-03    0.1684029768E-01    0.5847633203E+00
    0.1000000000E+06    0.6620867446E+00    0.1016159940E+00    0.3396975226E-03    0.1676909934E-01    0.5829292734E+00
    0.3000000000E+06    0.6628576666E+00    0.1008147370E+00    0.1881684160E-03    0.1682177283E-01    0.5842638118E+00
    0.5000000000E+06    0.6630055246E+00    0.1004256782E+00    0.1429923493E-03    0.1684102362E-01    0.5847830943E+00
    0.7000000000E+06    0.6630661089E+00    0.1001665200E+00    0.1193374753E-03    0.1685279176E-01    0.5851050459E+00
    0.9000000000E+06    0.6630981870E+00    0.9997194651E-01    0.1042597117E-03    0.1686125639E-01    0.5853377222E+00
    0.1100000000E+07    0.6631175786E+00    0.9981612776E-01    0.9360005672E-04    0.1686786230E-01    0.5855195910E+00
    0.1300000000E+07    0.6631302873E+00    0.9968617427E-01    0.8556214141E-04    0.1687327747E-01    0.5856687123E+00
    0.1500000000E+07    0.6631390766E+00    0.9957471824E-01    0.7922783918E-04    0.1687786503E-01    0.5857949937E+00
    0.1700000000E+07    0.6631453889E+00    0.9947715038E-01    0.7407312353E-04    0.1688184411E-01    0.5859044497E+00
    0.1900000000E+07    0.6631500473E+00    0.9939039453E-01    0.6977447633E-04    0.1688535709E-01    0.5860010025E+00
    0.2100000000E+07    0.6631535536E+00    0.9931229513E-01    0.6612005211E-04    0.1688850162E-01    0.5860873502E+00
    0.2300000000E+07    0.6631562305E+00    0.9924128302E-01    0.6296461580E-04    0.1689134762E-01    0.5861654274E+00
    0.2500000000E+07    0.6631582936E+00    0.9917618031E-01    0.6020486431E-04    0.1689394682E-01    0.5862366678E+00
    0.2700000000E+07    0.6631598925E+00    0.9911608026E-01    0.5776506629E-04    0.1689633861E-01    0.5863021634E+00
    0.2900000000E+07    0.6631611338E+00    0.9906026996E-01    0.5558828340E-04    0.1689855362E-01    0.5863627646E+00
    0.3100000000E+07    0.6631620950E+00    0.9900817872E-01    0.5363077961E-04    0.1690061619E-01    0.5864191466E+00
    0.3300000000E+07    0.6631628341E+00    0.9895934263E-01    0.5185833562E-04    0.1690254595E-01    0.5864718544E+00
    0.3500000000E+07    0.6631633949E+00    0.9891337948E-01    0.5024374625E-04    0.1690435897E-01    0.5865213340E+00
    0.3700000000E+07    0.6631638112E+00    0.9886997060E-01    0.4876507709E-04    0.1690606856E-01    0.5865679553E+00
    0.3900000000E+07    0.6631641094E+00    0.9882884757E-01    0.4740442257E-04    0.1690768589E-01    0.5866120280E+00
    0.4100000000E+07    0.6631643103E+00    0.9878978213E-01    0.4614700348E-04    0.1690922041E-01    0.5866538144E+00
    0.4300000000E+07    0.6631644305E+00    0.9875257859E-01    0.4498049971E-04    0.1691068019E-01    0.5866935384E+00
    0.4500000000E+07    0.6631644835E+00    0.9871706789E-01    0.4389454894E-04    0.1691207218E-01    0.5867313924E+00
    0.4700000000E+07    0.6631644801E+00    0.9868310298E-01    0.4288036471E-04    0.1691340238E-01    0.5867675436E+00
    0.4900000000E+07    0.6631644293E+00    0.9865055519E-01    0.4193044166E-04    0.1691467606E-01    0.5868021373E+00
    0.1000000000E+07    0.6631089791E+00    0.9989017850E-01    0.9851978905E-04    0.1686473975E-01    0.5854336077E+00
    0.3000000000E+07    0.6631616454E+00    0.9903379062E-01    0.5458444953E-04    0.1689960264E-01    0.5863914463E+00
    0.5000000000E+07    0.6631643884E+00    0.9863477678E-01    0.4147752527E-04    0.1691529317E-01    0.5868188907E+00
    0.7000000000E+07    0.6631623356E+00    0.9837206929E-01    0.3461444349E-04    0.1692554018E-01    0.5870963564E+00
    0.9000000000E+07    0.6631594049E+00    0.9817598465E-01    0.3024000539E-04    0.1693316326E-01    0.5873018778E+00
    0.1100000000E+08    0.6631563983E+00    0.9801952179E-01    0.2714747688E-04    0.1693923626E-01    0.5874650629E+00
    0.1300000000E+08    0.6631535241E+00    0.9788935396E-01    0.2481562794E-04    0.1694428449E-01    0.5876003481E+00
    0.1500000000E+08    0.6631508336E+00    0.9777791703E-01    0.2297805843E-04    0.1694860453E-01    0.5877158597E+00
    0.1700000000E+08    0.6631483295E+00    0.9768050247E-01    0.2148272109E-04    0.1695238032E-01    0.5878166259E+00
    0.1900000000E+08    0.6631459990E+00    0.9759397964E-01    0.2023574827E-04    0.1695573385E-01    0.5879059741E+00
    0.2100000000E+08    0.6631438258E+00    0.9751616121E-01    0.1917567493E-04    0.1695875020E-01    0.5879862204E+00
    0.2300000000E+08    0.6631417933E+00    0.9744545865E-01    0.1826036322E-04    0.1696149105E-01    0.5880590417E+00
    0.2500000000E+08    0.6631398863E+00    0.9738068187E-01    0.1745984180E-04    0.1696400258E-01    0.5881256909E+00
    0.2700000000E+08    0.6631380917E+00    0.9732091625E-01    0.1675213908E-04    0.1696632025E-01    0.5881871288E+00
