  Pressure (Pa) 22mC5-400 (mol/kg) 3mC6-400 (mol/kg) 33mC5-400 (mol/kg) 23mC5-400 (mol/kg) C7-400 (mol/kg)
    0.1000000000E+01    0.3707406722E-02    0.1578045420E-02    0.3225552350E-03    0.9299724672E-04    0.6828617013E-02
    0.3000000000E+01    0.1099237783E-01    0.4616912654E-02    0.9408437853E-03    0.2757376176E-03    0.1998097271E-01
    0.5000000000E+01    0.1810936950E-01    0.7508949368E-02    0.1525443077E-02    0.4542680346E-03    0.3250086975E-01
    0.7000000000E+01    0.2506429858E-01    0.1026457536E-01    0.2078644830E-02    0.6287367473E-03    0.4443311829E-01
    0.9000000000E+01    0.3186280522E-01    0.1289324656E-01    0.2602539123E-02    0.7992850726E-03    0.5581838680E-01
    0.1100000000E+02    0.3851026879E-01    0.1540356399E-01    0.3099036471E-02    0.9660477950E-03    0.6669366991E-01
    0.1300000000E+02    0.4501182275E-01    0.1780336824E-01    0.3569887019E-02    0.1129153539E-02    0.7709269430E-01
    0.1500000000E+02    0.5137236856E-01    0.2009982173E-01    0.4016697287E-02    0.1288725115E-02    0.8704627193E-01
    0.1700000000E+02    0.5759658860E-01    0.2229948044E-01    0.4440944827E-02    0.1444879846E-02    0.9658260839E-01
    0.1900000000E+02    0.6368895824E-01    0.2440835685E-01    0.4843991102E-02    0.1597729870E-02    0.1057275729E+00
    0.2100000000E+02    0.6965375717E-01    0.2643197505E-01    0.5227092818E-02    0.1747382421E-02    0.1145049356E+00
    0.2300000000E+02    0.7549507998E-01    0.2837541942E-01    0.5591411937E-02    0.1893940097E-02    0.1229365759E+00
    0.2500000000E+02    0.8121684603E-01    0.3024337751E-01    0.5938024547E-02    0.2037501104E-02    0.1310426677E+00
    0.2700000000E+02    0.8682280873E-01    0.3204017801E-01    0.6267928737E-02    0.2178159492E-02    0.1388418417E+00
    0.2900000000E+02    0.9231656422E-01    0.3376982448E-01    0.6582051606E-02    0.2316005371E-02    0.1463513308E+00
    0.3100000000E+02    0.9770155956E-01    0.3543602532E-01    0.6881255517E-02    0.2451125116E-02    0.1535870985E+00
    0.3300000000E+02    0.1029811003E+00    0.3704222048E-01    0.7166343697E-02    0.2583601556E-02    0.1605639542E+00
    0.3500000000E+02    0.1081583579E+00    0.3859160534E-01    0.7438065251E-02    0.2713514159E-02    0.1672956554E+00
    0.3700000000E+02    0.1132363760E+00    0.4008715206E-01    0.7697119666E-02    0.2840939194E-02    0.1737949995E+00
    0.3900000000E+02    0.1182180773E+00    0.4153162875E-01    0.7944160871E-02    0.2965949900E-02    0.1800739064E+00
    0.4100000000E+02    0.1231062693E+00    0.4292761669E-01    0.8179800897E-02    0.3088616625E-02    0.1861434925E+00
    0.4300000000E+02    0.1279036499E+00    0.4427752585E-01    0.8404613181E-02    0.3209006976E-02    0.1920141370E+00
    0.4500000000E+02    0.1326128128E+00    0.4558360887E-01    0.8619135562E-02    0.3327185945E-02    0.1976955426E+00
    0.4700000000E+02    0.1372362523E+00    0.4684797369E-01    0.8823872998E-02    0.3443216039E-02    0.2031967893E+00
    0.4900000000E+02    0.1417763683E+00    0.4807259500E-01    0.9019300034E-02    0.3557157396E-02    0.2085263839E+00
    0.1000000000E+02    0.3520509095E-01    0.1416269265E-01    0.2854099480E-02    0.8831314550E-03    0.6131759640E-01
    0.3000000000E+02    0.9502244708E-01    0.3461063460E-01    0.6733466905E-02    0.2383900753E-02    0.1500024784E+00
    0.5000000000E+02    0.1440159052E+00    0.4867058507E-01    0.9113662687E-02    0.3613362971E-02    0.2111293243E+00
    0.7000000000E+02    0.1849504298E+00    0.5893747389E-01    0.1060756784E-01    0.4640803355E-02    0.2558725222E+00
    0.9000000000E+02    0.2197136959E+00    0.6676727626E-01    0.1154558837E-01    0.5513526862E-02    0.2900761295E+00
    0.1100000000E+03    0.2496392979E+00    0.7293780739E-01    0.1212070260E-01    0.6264955373E-02    0.3170952044E+00
    0.1300000000E+03    0.2756969725E+00    0.7792731392E-01    0.1245218506E-01    0.6919393489E-02    0.3389943353E+00
    0.1500000000E+03    0.2986094755E+00    0.8204610604E-01    0.1261690469E-01    0.7494956845E-02    0.3571142276E+00
    0.1700000000E+03    0.3189270727E+00    0.8550437100E-01    0.1266600923E-01    0.8005438534E-02    0.3723637420E+00
    0.1900000000E+03    0.3370765425E+00    0.8844957137E-01    0.1263439188E-01    0.8461536961E-02    0.3853810311E+00
    0.2100000000E+03    0.3533943147E+00    0.9098823886E-01    0.1254633250E-01    0.8871686226E-02    0.3966274892E+00
    0.2300000000E+03    0.3681494344E+00    0.9319926766E-01    0.1241899411E-01    0.9242631555E-02    0.4064450858E+00
    0.2500000000E+03    0.3815598217E+00    0.9514234021E-01    0.1226466136E-01    0.9579836768E-02    0.4150927233E+00
    0.2700000000E+03    0.3938040104E+00    0.9686344584E-01    0.1209221281E-01    0.9887778463E-02    0.4227700631E+00
    0.2900000000E+03    0.4050297714E+00    0.9839859927E-01    0.1190811157E-01    0.1017016212E-01    0.4296335862E+00
    0.3100000000E+03    0.4153605478E+00    0.9977640897E-01    0.1171708508E-01    0.1043008337E-01    0.4358076927E+00
    0.3300000000E+03    0.4249003257E+00    0.1010198902E+00    0.1152259955E-01    0.1067015008E-01    0.4413925406E+00
    0.3500000000E+03    0.4337373696E+00    0.1021477699E+00    0.1132719589E-01    0.1089257601E-01    0.4464696902E+00
    0.3700000000E+03    0.4419471217E+00    0.1031754423E+00    0.1113273084E-01    0.1109925341E-01    0.4511062400E+00
    0.3900000000E+03    0.4495944758E+00    0.1041156798E+00    0.1094055181E-01    0.1129181008E-01    0.4553579037E+00
    0.4100000000E+03    0.4567355794E+00    0.1049791687E+00    0.1075162510E-01    0.1147165452E-01    0.4592713332E+00
    0.4300000000E+03    0.4634192758E+00    0.1057749194E+00    0.1056663071E-01    0.1164001208E-01    0.4628858935E+00
    0.4500000000E+03    0.4696882661E+00    0.1065105826E+00    0.1038603293E-01    0.1179795407E-01    0.4662350363E+00
    0.4700000000E+03    0.4755800554E+00    0.1071926971E+00    0.1021013338E-01    0.1194642153E-01    0.4693473730E+00
    0.4900000000E+03    0.4811277270E+00    0.1078268845E+00    0.1003911095E-01    0.1208624459E-01    0.4722475223E+00
    0.1000000000E+03    0.2352137005E+00    0.7002501626E-01    0.1186979167E-01    0.5902711158E-02    0.3043329601E+00
    0.3000000000E+03    0.4103001260E+00    0.9910561986E-01    0.1181322227E-01    0.1030275733E-01    0.4328000634E+00
    0.5000000000E+03    0.4837818074E+00    0.1081275507E+00    0.9955458642E-02    0.1215314757E-01    0.4736247971E+00
    0.7000000000E+03    0.5244024196E+00    0.1125175245E+00    0.8531942007E-02    0.1317805037E-01    0.4939489596E+00
    0.9000000000E+03    0.5501601351E+00    0.1151061275E+00    0.7495151035E-02    0.1382921098E-01    0.5062051287E+00
    0.1100000000E+04    0.5679303725E+00    0.1168075392E+00    0.6719965265E-02    0.1427931918E-01    0.5144417907E+00
    0.1300000000E+04    0.5809174086E+00    0.1180070549E+00    0.6121012432E-02    0.1460891129E-01    0.5203787470E+00
    0.1500000000E+04    0.5908163245E+00    0.1188952999E+00    0.5644398570E-02    0.1486061991E-01    0.5248734428E+00
    0.1700000000E+04    0.5986074206E+00    0.1195773874E+00    0.5255599856E-02    0.1505911663E-01    0.5284022773E+00
    0.1900000000E+04    0.6048966705E+00    0.1201160206E+00    0.4931798691E-02    0.1521966224E-01    0.5312515735E+00
    0.2100000000E+04    0.6100785981E+00    0.1205509099E+00    0.4657414666E-02    0.1535219889E-01    0.5336040143E+00
    0.2300000000E+04    0.6144209784E+00    0.1209084176E+00    0.4421483409E-02    0.1546347905E-01    0.5355817747E+00
    0.2500000000E+04    0.6181118796E+00    0.1212067244E+00    0.4216078484E-02    0.1555824829E-01    0.5372697343E+00
    0.2700000000E+04    0.6212872217E+00    0.1214587695E+00    0.4035331853E-02    0.1563993857E-01    0.5387287463E+00
    0.2900000000E+04    0.6240476525E+00    0.1216740088E+00    0.3874807380E-02    0.1571109288E-01    0.5400036072E+00
    0.3100000000E+04    0.6264692754E+00    0.1218595101E+00    0.3731088784E-02    0.1577363532E-01    0.5411280446E+00
    0.3300000000E+04    0.6286106907E+00    0.1220206599E+00    0.3601501653E-02    0.1582904843E-01    0.5421279513E+00
    0.3500000000E+04    0.6305177465E+00    0.1221616337E+00    0.3483921515E-02    0.1587849289E-01    0.5430235447E+00
    0.3700000000E+04    0.6322268238E+00    0.1222857169E+00    0.3376638539E-02    0.1592289033E-01    0.5438308479E+00
    0.3900000000E+04    0.6337671571E+00    0.1223955287E+00    0.3278260332E-02    0.1596298179E-01    0.5445627290E+00
    0.4100000000E+04    0.6351625047E+00    0.1224931823E+00    0.3187640906E-02    0.1599936991E-01    0.5452296447E+00
    0.4300000000E+04    0.6364323716E+00    0.1225804007E+00    0.3103827952E-02    0.1603254977E-01    0.5458401828E+00
    0.4500000000E+04    0.6375929200E+00    0.1226586021E+00    0.3026023144E-02    0.1606293187E-01    0.5464014642E+00
    0.4700000000E+04    0.6386576547E+00    0.1227289642E+00    0.2953551866E-02    0.1609085943E-01    0.5469194447E+00
    0.4900000000E+04    0.6396379473E+00    0.1227924729E+00    0.2885839841E-02    0.1611662165E-01    0.5473991455E+00
    0.1000000000E+04    0.5597933059E+00    0.1160369825E+00    0.7081101607E-02    0.1407310469E-01    0.5106889298E+00
    0.3000000000E+04    0.6252968066E+00    0.1217701071E+00    0.3801029303E-02    0.1574333919E-01    0.5405828562E+00
    0.5000000000E+04    0.6400994995E+00    0.1228219220E+00    0.2853611953E-02    0.1612876892E-01    0.5476259991E+00
    0.7000000000E+04    0.6466149347E+00    0.1231976152E+00    0.2369606868E-02    0.1630179678E-01    0.5509153139E+00
    0.9000000000E+04    0.6502764830E+00    0.1233597021E+00    0.2065060312E-02    0.1640091928E-01    0.5528668554E+00
    0.1100000000E+05    0.6526212120E+00    0.1234316450E+00    0.1851367678E-02    0.1646559760E-01    0.5541797353E+00
    0.1300000000E+05    0.6542507622E+00    0.1234592048E+00    0.1690997769E-02    0.1651138411E-01    0.5551344679E+00
    0.1500000000E+05    0.6554488236E+00    0.1234627779E+00    0.1565020277E-02    0.1654566156E-01    0.5558665469E+00
    0.1700000000E+05    0.6563666143E+00    0.1234526064E+00    0.1462731196E-02    0.1657239140E-01    0.5564498717E+00
    0.1900000000E+05    0.6570921056E+00    0.1234342786E+00    0.1377567422E-02    0.1659389334E-01    0.5569283806E+00
    0.2100000000E+05    0.6576799507E+00    0.1234110343E+00    0.1305253590E-02    0.1661161790E-01    0.5573299433E+00
    0.2300000000E+05    0.6581658915E+00    0.1233848388E+00    0.1242870416E-02    0.1662651982E-01    0.5576731507E+00
    0.2500000000E+05    0.6585742849E+00    0.1233569260E+00    0.1188348081E-02    0.1663925388E-01    0.5579709149E+00
    0.2700000000E+05    0.6589223010E+00    0.1233280905E+00    0.1140173084E-02    0.1665028460E-01    0.5582325055E+00
    0.2900000000E+05    0.6592223911E+00    0.1232988535E+00    0.1097209889E-02    0.1665995096E-01    0.5584647639E+00
    0.3100000000E+05    0.6594838044E+00    0.1232695614E+00    0.1058587765E-02    0.1666850635E-01    0.5586728591E+00
    0.3300000000E+05    0.6597135545E+00    0.1232404452E+00    0.1023626426E-02    0.1667614412E-01    0.5588607757E+00
    0.3500000000E+05    0.6599170570E+00    0.1232116590E+00    0.9917856919E-03    0.1668301447E-01    0.5590316396E+00
    0.3700000000E+05    0.6600985592E+00    0.1231833046E+00    0.9626304831E-03    0.1668923594E-01    0.5591879407E+00
    0.3900000000E+05    0.6602614396E+00    0.1231554474E+00    0.9358059497E-03    0.1669490339E-01    0.5593316894E+00
    0.4100000000E+05    0.6604084187E+00    0.1231281276E+00    0.9110194225E-03    0.1670009368E-01    0.5594645288E+00
    0.4300000000E+05    0.6605417121E+00    0.1231013680E+00    0.8880270895E-03    0.1670486979E-01    0.5595878158E+00
    0.4500000000E+05    0.6606631422E+00    0.1230751787E+00    0.8666240002E-03    0.1670928380E-01    0.5597026825E+00
    0.4700000000E+05    0.6607742217E+00    0.1230495612E+00    0.8466364591E-03    0.1671337924E-01    0.5598100814E+00
    0.4900000000E+05    0.6608762168E+00    0.1230245109E+00    0.8279161615E-03    0.1671719274E-01    0.5599108203E+00
    0.1000000000E+05    0.6515647225E+00    0.1234031822E+00    0.1949839842E-02    0.1643630659E-01    0.5535805550E+00
    0.3000000000E+05    0.6593574503E+00    0.1232841977E+00    0.1077402493E-02    0.1666435427E-01    0.5585715596E+00
    0.5000000000E+05    0.6609241482E+00    0.1230121958E+00    0.8189906799E-03    0.1671900366E-01    0.5599589121E+00
    0.7000000000E+05    0.6615944900E+00    0.1227924836E+00    0.6837468551E-03    0.1674596952E-01    0.5606958766E+00
    0.9000000000E+05    0.6619658764E+00    0.1226133213E+00    0.5975318268E-03    0.1676288288E-01    0.5611799644E+00
    0.1100000000E+06    0.6622014560E+00    0.1224629600E+00    0.5365663564E-03    0.1677486661E-01    0.5615340083E+00
    0.1300000000E+06    0.6623639861E+00    0.1223336718E+00    0.4905848985E-03    0.1678400508E-01    0.5618102661E+00
    0.1500000000E+06    0.6624827430E+00    0.1222203653E+00    0.4543413846E-03    0.1679132285E-01    0.5620353362E+00
    0.1700000000E+06    0.6625732168E+00    0.1221195609E+00    0.4248415210E-03    0.1679738942E-01    0.5622244278E+00
    0.1900000000E+06    0.6626443687E+00    0.1220287905E+00    0.4002365622E-03    0.1680255005E-01    0.5623869816E+00
    0.2100000000E+06    0.6627017415E+00    0.1219462455E+00    0.3793157792E-03    0.1680702805E-01    0.5625292266E+00
    0.2300000000E+06    0.6627489466E+00    0.1218705631E+00    0.3612490288E-03    0.1681097527E-01    0.5626554724E+00
    0.2500000000E+06    0.6627884377E+00    0.1218006919E+00    0.3454457707E-03    0.1681449920E-01    0.5627688149E+00
    0.2700000000E+06    0.6628219395E+00    0.1217358042E+00    0.3314730270E-03    0.1681767843E-01    0.5628715479E+00
    0.2900000000E+06    0.6628506996E+00    0.1216752371E+00    0.3190052260E-03    0.1682057202E-01    0.5629654149E+00
    0.3100000000E+06    0.6628756427E+00    0.1216184512E+00    0.3077922578E-03    0.1682322536E-01    0.5630517701E+00
    0.3300000000E+06    0.6628974687E+00    0.1215650023E+00    0.2976384135E-03    0.1682567407E-01    0.5631316851E+00
    0.3500000000E+06    0.6629167167E+00    0.1215145200E+00    0.2883880838E-03    0.1682794652E-01    0.5632060214E+00
    0.3700000000E+06    0.6629338089E+00    0.1214666922E+00    0.2799157950E-03    0.1683006570E-01    0.5632754815E+00
    0.3900000000E+06    0.6629490804E+00    0.1214212537E+00    0.2721191103E-03    0.1683205044E-01    0.5633406452E+00
    0.4100000000E+06    0.6629628007E+00    0.1213779770E+00    0.2649134713E-03    0.1683391636E-01    0.5634019965E+00
    0.4300000000E+06    0.6629751888E+00    0.1213366657E+00    0.2582283831E-03    0.1683567656E-01    0.5634599432E+00
    0.4500000000E+06    0.6629864246E+00    0.1212971489E+00    0.2520045485E-03    0.1683734213E-01    0.5635148321E+00
    0.4700000000E+06    0.6629966573E+00    0.1212592773E+00    0.2461916840E-03    0.1683892250E-01    0.5635669602E+00
    0.4900000000E+06    0.6630060114E+00    0.1212229191E+00    0.2407468348E-03    0.1684042581E-01    0.5636165842E+00
    0.1000000000E+06    0.6620955427E+00    0.1225351010E+00    0.5647053818E-03    0.1676932396E-01    0.5613690978E+00
    0.3000000000E+06    0.6628636002E+00    0.1216464012E+00    0.3132552012E-03    0.1682192630E-01    0.5630094588E+00
    0.5000000000E+06    0.6630103924E+00    0.1212052707E+00    0.2381506665E-03    0.1684115079E-01    0.5636405278E+00
    0.7000000000E+06    0.6630703739E+00    0.1209094495E+00    0.1988021914E-03    0.1685290417E-01    0.5640293958E+00
    0.9000000000E+06    0.6631020491E+00    0.1206865600E+00    0.1737132096E-03    0.1686135900E-01    0.5643093114E+00
    0.1100000000E+07    0.6631211460E+00    0.1205076589E+00    0.1559720218E-03    0.1686795779E-01    0.5645274750E+00
    0.1300000000E+07    0.6631336265E+00    0.1203582140E+00    0.1425921393E-03    0.1687336748E-01    0.5647059623E+00
    0.1500000000E+07    0.6631422320E+00    0.1202298849E+00    0.1320467585E-03    0.1687795065E-01    0.5648568465E+00
    0.1700000000E+07    0.6631483918E+00    0.1201174385E+00    0.1234642748E-03    0.1688192612E-01    0.5649874387E+00
    0.1900000000E+07    0.6631529209E+00    0.1200173747E+00    0.1163065025E-03    0.1688543604E-01    0.5651024965E+00
    0.2100000000E+07    0.6631563159E+00    0.1199272363E+00    0.1102209829E-03    0.1688857796E-01    0.5652052867E+00
    0.2300000000E+07    0.6631588952E+00    0.1198452322E+00    0.1049660553E-03    0.1689142168E-01    0.5652981477E+00
    0.2500000000E+07    0.6631608721E+00    0.1197700160E+00    0.1003698147E-03    0.1689401889E-01    0.5653828104E+00
    0.2700000000E+07    0.6631623939E+00    0.1197005505E+00    0.9630622774E-04    0.1689640889E-01    0.5654605912E+00
    0.2900000000E+07    0.6631635657E+00    0.1196360191E+00    0.9268053014E-04    0.1689862231E-01    0.5655325143E+00
    0.3100000000E+07    0.6631644639E+00    0.1195757679E+00    0.8941992590E-04    0.1690068344E-01    0.5655993920E+00
    0.3300000000E+07    0.6631651454E+00    0.1195192648E+00    0.8646745580E-04    0.1690261189E-01    0.5656618793E+00
    0.3500000000E+07    0.6631656534E+00    0.1194660712E+00    0.8377783352E-04    0.1690442372E-01    0.5657205120E+00
    0.3700000000E+07    0.6631660210E+00    0.1194158213E+00    0.8131454481E-04    0.1690613221E-01    0.5657757336E+00
    0.3900000000E+07    0.6631662740E+00    0.1193682066E+00    0.7904778091E-04    0.1690774853E-01    0.5658279158E+00
    0.4100000000E+07    0.6631664328E+00    0.1193229648E+00    0.7695293677E-04    0.1690928212E-01    0.5658773727E+00
    0.4300000000E+07    0.6631665138E+00    0.1192798710E+00    0.7500950055E-04    0.1691074103E-01    0.5659243725E+00
    0.4500000000E+07    0.6631665300E+00    0.1192387305E+00    0.7320021933E-04    0.1691213220E-01    0.5659691457E+00
    0.4700000000E+07    0.6631664921E+00    0.1191993744E+00    0.7151046344E-04    0.1691346165E-01    0.5660118918E+00
    0.4900000000E+07    0.6631664087E+00    0.1191616543E+00    0.6992773591E-04    0.1691473462E-01    0.5660527851E+00
    0.1000000000E+07    0.6631126836E+00    0.1205927207E+00    0.1641604790E-03    0.1686483855E-01    0.5644243995E+00
    0.3000000000E+07    0.6631640451E+00    0.1196053942E+00    0.9100846617E-04    0.1689967059E-01    0.5655665397E+00
    0.5000000000E+07    0.6631663523E+00    0.1191433664E+00    0.6917308961E-04    0.1691535139E-01    0.5660725853E+00
    0.7000000000E+07    0.6631640583E+00    0.1188386929E+00    0.5773676119E-04    0.1692559328E-01    0.5664001584E+00
    0.9000000000E+07    0.6631609681E+00    0.1186110801E+00    0.5044622499E-04    0.1693321313E-01    0.5666424043E+00
    0.1100000000E+08    0.6631578454E+00    0.1184293492E+00    0.4529153481E-04    0.1693928388E-01    0.5668345412E+00
    0.1300000000E+08    0.6631548818E+00    0.1182780919E+00    0.4140439404E-04    0.1694433047E-01    0.5669937028E+00
    0.1500000000E+08    0.6631521194E+00    0.1181485549E+00    0.3834096658E-04    0.1694864924E-01    0.5671295188E+00
    0.1700000000E+08    0.6631495558E+00    0.1180352856E+00    0.3584791088E-04    0.1695242404E-01    0.5672479402E+00
    0.1900000000E+08    0.6631471750E+00    0.1179346568E+00    0.3376881246E-04    0.1695577676E-01    0.5673529015E+00
    0.2100000000E+08    0.6631449585E+00    0.1178441331E+00    0.3200124357E-04    0.1695879245E-01    0.5674471391E+00
    0.2300000000E+08    0.6631428881E+00    0.1177618727E+00    0.3047498002E-04    0.1696153275E-01    0.5675326328E+00
    0.2500000000E+08    0.6631409478E+00    0.1176864951E+00    0.2914007098E-04    0.1696404383E-01    0.5676108612E+00
    0.2700000000E+08    0.6631391233E+00    0.1176169392E+00    0.2795989647E-04    0.1696636111E-01    0.5676829575E+00
