  Pressure (Pa) 22mC5-400 (mol/kg) 3mC6-400 (mol/kg) 33mC5-400 (mol/kg) 23mC5-400 (mol/kg) C7-400 (mol/kg)
    0.1000000000E+01    0.3706637260E-02    0.2646014381E-02    0.2592732408E-03    0.2789338966E-03    0.1717449288E-02
    0.3000000000E+01    0.1098560446E-01    0.7832890317E-02    0.7632791137E-03    0.8267036677E-03    0.5084407891E-02
    0.5000000000E+01    0.1809096174E-01    0.1288417568E-01    0.1248615960E-02    0.1361420300E-02    0.8363755977E-02
    0.7000000000E+01    0.2502899037E-01    0.1780515420E-01    0.1716105207E-02    0.1883555926E-02    0.1155890236E-01
    0.9000000000E+01    0.3180567043E-01    0.2260083813E-01    0.2166524442E-02    0.2393560047E-02    0.1467308086E-01
    0.1100000000E+02    0.3842669858E-01    0.2727598545E-01    0.2600610195E-02    0.2891860861E-02    0.1770936136E-01
    0.1300000000E+02    0.4489750472E-01    0.3183511585E-01    0.3019060518E-02    0.3378866516E-02    0.2067066012E-01
    0.1500000000E+02    0.5122326730E-01    0.3628252541E-01    0.3422537377E-02    0.3854966265E-02    0.2355974924E-01
    0.1700000000E+02    0.5740892777E-01    0.4062230031E-01    0.3811668864E-02    0.4320531548E-02    0.2637926549E-01
    0.1900000000E+02    0.6345920393E-01    0.4485832946E-01    0.4187051261E-02    0.4775916996E-02    0.2913171845E-01
    0.2100000000E+02    0.6937860245E-01    0.4899431631E-01    0.4549250947E-02    0.5221461370E-02    0.3181949811E-01
    0.2300000000E+02    0.7517143054E-01    0.5303378975E-01    0.4898806182E-02    0.5657488444E-02    0.3444488192E-01
    0.2500000000E+02    0.8084180685E-01    0.5698011430E-01    0.5236228760E-02    0.6084307818E-02    0.3701004132E-01
    0.2700000000E+02    0.8639367170E-01    0.6083649956E-01    0.5562005552E-02    0.6502215688E-02    0.3951704785E-01
    0.2900000000E+02    0.9183079661E-01    0.6460600903E-01    0.5876599943E-02    0.6911495563E-02    0.4196787888E-01
    0.3100000000E+02    0.9715679322E-01    0.6829156837E-01    0.6180453175E-02    0.7312418940E-02    0.4436442282E-01
    0.3300000000E+02    0.1023751217E+00    0.7189597300E-01    0.6473985600E-02    0.7705245929E-02    0.4670848416E-01
    0.3500000000E+02    0.1074890988E+00    0.7542189534E-01    0.6757597848E-02    0.8090225847E-02    0.4900178801E-01
    0.3700000000E+02    0.1125019046E+00    0.7887189148E-01    0.7031671921E-02    0.8467597773E-02    0.5124598447E-01
    0.3900000000E+02    0.1174165904E+00    0.8224840744E-01    0.7296572221E-02    0.8837591068E-02    0.5344265266E-01
    0.4100000000E+02    0.1222360844E+00    0.8555378503E-01    0.7552646500E-02    0.9200425863E-02    0.5559330448E-01
    0.4300000000E+02    0.1269631982E+00    0.8879026738E-01    0.7800226768E-02    0.9556313523E-02    0.5769938818E-01
    0.4500000000E+02    0.1316006326E+00    0.9196000405E-01    0.8039630125E-02    0.9905457075E-02    0.5976229164E-01
    0.4700000000E+02    0.1361509828E+00    0.9506505588E-01    0.8271159558E-02    0.1024805162E-01    0.6178334554E-01
    0.4900000000E+02    0.1406167437E+00    0.9810739950E-01    0.8495104677E-02    0.1058428472E-01    0.6376382623E-01
    0.1000000000E+02    0.3513529556E-01    0.2495319098E-01    0.2385564502E-02    0.2644147402E-02    0.1620077260E-01
    0.3000000000E+02    0.9450746623E-01    0.6645910479E-01    0.6029842456E-02    0.7112985298E-02    0.4317282205E-01
    0.5000000000E+02    0.1428186565E+00    0.9960565148E-01    0.8604320136E-02    0.1075007236E-01    0.6473923631E-01
    0.7000000000E+02    0.1829534289E+00    0.1267013384E+00    0.1045168731E-01    0.1377225391E-01    0.8239040845E-01
    0.9000000000E+02    0.2168655496E+00    0.1492748965E+00    0.1179101144E-01    0.1632641333E-01    0.9711371239E-01
    0.1100000000E+03    0.2459261776E+00    0.1683790658E+00    0.1276725381E-01    0.1851564080E-01    0.1095893711E+00
    0.1300000000E+03    0.2711267089E+00    0.1847626021E+00    0.1347912000E-01    0.2041447917E-01    0.1203013888E+00
    0.1500000000E+03    0.2932023637E+00    0.1989727048E+00    0.1399545665E-01    0.2207821319E-01    0.1296036263E+00
    0.1700000000E+03    0.3127104042E+00    0.2114186289E+00    0.1436528004E-01    0.2354874893E-01    0.1377608470E+00
    0.1900000000E+03    0.3300812827E+00    0.2224126265E+00    0.1462411139E-01    0.2485845852E-01    0.1449751417E+00
    0.2100000000E+03    0.3456530556E+00    0.2321971167E+00    0.1479809197E-01    0.2603276720E-01    0.1514034684E+00
    0.2300000000E+03    0.3596951234E+00    0.2409632019E+00    0.1490672145E-01    0.2709193795E-01    0.1571696097E+00
    0.2500000000E+03    0.3724249755E+00    0.2488635857E+00    0.1496471925E-01    0.2805233039E-01    0.1623725161E+00
    0.2700000000E+03    0.3840202361E+00    0.2560217728E+00    0.1498331392E-01    0.2892730636E-01    0.1670922497E+00
    0.2900000000E+03    0.3946274847E+00    0.2625387422E+00    0.1497115117E-01    0.2972789312E-01    0.1713942969E+00
    0.3100000000E+03    0.4043688192E+00    0.2684978690E+00    0.1493494334E-01    0.3046327681E-01    0.1753327493E+00
    0.3300000000E+03    0.4133468107E+00    0.2739686084E+00    0.1487994010E-01    0.3114117495E-01    0.1789526858E+00
    0.3500000000E+03    0.4216482925E+00    0.2790092905E+00    0.1481027388E-01    0.3176812142E-01    0.1822919799E+00
    0.3700000000E+03    0.4293472948E+00    0.2836692674E+00    0.1472921629E-01    0.3234968710E-01    0.1853826886E+00
    0.3900000000E+03    0.4365073402E+00    0.2879905803E+00    0.1463937038E-01    0.3289065248E-01    0.1882521310E+00
    0.4100000000E+03    0.4431832603E+00    0.2920092685E+00    0.1454281615E-01    0.3339514428E-01    0.1909237354E+00
    0.4300000000E+03    0.4494226437E+00    0.2957564064E+00    0.1444122169E-01    0.3386674436E-01    0.1934177106E+00
    0.4500000000E+03    0.4552670036E+00    0.2992589321E+00    0.1433592877E-01    0.3430857751E-01    0.1957515826E+00
    0.4700000000E+03    0.4607527233E+00    0.3025403155E+00    0.1422801910E-01    0.3472338258E-01    0.1979406267E+00
    0.4900000000E+03    0.4659118308E+00    0.3056211005E+00    0.1411836619E-01    0.3511357071E-01    0.1999982196E+00
    0.1000000000E+03    0.2319331674E+00    0.1592081765E+00    0.1231749678E-01    0.1746144559E-01    0.1035985794E+00
    0.3000000000E+03    0.3995995721E+00    0.2655834051E+00    0.1495569506E-01    0.3010322228E-01    0.1734059673E+00
    0.5000000000E+03    0.4683778816E+00    0.3070919992E+00    0.1406311227E-01    0.3530010926E-01    0.2009814544E+00
    0.7000000000E+03    0.5059478792E+00    0.3293896186E+00    0.1297910625E-01    0.3814481068E-01    0.2159685565E+00
    0.9000000000E+03    0.5296048323E+00    0.3433695389E+00    0.1203391692E-01    0.3993975489E-01    0.2254719401E+00
    0.1100000000E+04    0.5458533758E+00    0.3529801946E+00    0.1124169055E-01    0.4117513705E-01    0.2320776339E+00
    0.1300000000E+04    0.5576929084E+00    0.3600052992E+00    0.1057580136E-01    0.4207715651E-01    0.2369586327E+00
    0.1500000000E+04    0.5666982568E+00    0.3653708156E+00    0.1000957736E-01    0.4276466251E-01    0.2407262843E+00
    0.1700000000E+04    0.5737752086E+00    0.3696061567E+00    0.9521923673E-02    0.4330606097E-01    0.2437314889E+00
    0.1900000000E+04    0.5794813914E+00    0.3730363692E+00    0.9096903585E-02    0.4374349378E-01    0.2461905213E+00
    0.2100000000E+04    0.5841787175E+00    0.3758722836E+00    0.8722515436E-02    0.4410433089E-01    0.2482441950E+00
    0.2300000000E+04    0.5881122272E+00    0.3782567462E+00    0.8389632775E-02    0.4440711656E-01    0.2499882759E+00
    0.2500000000E+04    0.5914536871E+00    0.3802900430E+00    0.8091220292E-02    0.4466485879E-01    0.2514902478E+00
    0.2700000000E+04    0.5943270413E+00    0.3820446904E+00    0.7821776212E-02    0.4488695045E-01    0.2527990883E+00
    0.2900000000E+04    0.5968239523E+00    0.3835744490E+00    0.7576937850E-02    0.4508034279E-01    0.2539512401E+00
    0.3100000000E+04    0.5990136557E+00    0.3849200342E+00    0.7353200623E-02    0.4525028996E-01    0.2549744032E+00
    0.3300000000E+04    0.6009494165E+00    0.3861128568E+00    0.7147715467E-02    0.4540083693E-01    0.2558900244E+00
    0.3500000000E+04    0.6026728774E+00    0.3871775439E+00    0.6958140834E-02    0.4553514824E-01    0.2567149789E+00
    0.3700000000E+04    0.6042170617E+00    0.3881336811E+00    0.6782533034E-02    0.4565573515E-01    0.2574627349E+00
    0.3900000000E+04    0.6056084910E+00    0.3889970428E+00    0.6619263925E-02    0.4576461590E-01    0.2581441782E+00
    0.4100000000E+04    0.6068687090E+00    0.3897804789E+00    0.6466958322E-02    0.4586343106E-01    0.2587682074E+00
    0.4300000000E+04    0.6080153955E+00    0.3904945637E+00    0.6324445838E-02    0.4595352788E-01    0.2593421707E+00
    0.4500000000E+04    0.6090631947E+00    0.3911480798E+00    0.6190723418E-02    0.4603602306E-01    0.2598721925E+00
    0.4700000000E+04    0.6100243394E+00    0.3917483830E+00    0.6064925878E-02    0.4611185008E-01    0.2603634197E+00
    0.4900000000E+04    0.6109091273E+00    0.3923016813E+00    0.5946302528E-02    0.4618179527E-01    0.2608202112E+00
    0.1000000000E+04    0.5384202227E+00    0.3485807616E+00    0.1162018297E-01    0.4060967731E-01    0.2290448611E+00
    0.3000000000E+04    0.5979535605E+00    0.3842681162E+00    0.7462623070E-02    0.4516797033E-01    0.2544774810E+00
    0.5000000000E+04    0.6113256685E+00    0.3925623840E+00    0.5889473202E-02    0.4621477468E-01    0.2610368769E+00
    0.7000000000E+04    0.6172022215E+00    0.3962521934E+00    0.5007169948E-02    0.4668450105E-01    0.2642311782E+00
    0.9000000000E+04    0.6205009266E+00    0.3983249188E+00    0.4424440927E-02    0.4695357969E-01    0.2661829777E+00
    0.1100000000E+05    0.6226110064E+00    0.3996426246E+00    0.4003165109E-02    0.4712915730E-01    0.2675270919E+00
    0.1300000000E+05    0.6240758886E+00    0.4005474631E+00    0.3680526430E-02    0.4725345180E-01    0.2685239209E+00
    0.1500000000E+05    0.6251517053E+00    0.4012023642E+00    0.3423316857E-02    0.4734650326E-01    0.2693014049E+00
    0.1700000000E+05    0.6259749369E+00    0.4016947843E+00    0.3212117982E-02    0.4741906494E-01    0.2699303160E+00
    0.1900000000E+05    0.6266249544E+00    0.4020758480E+00    0.3034718845E-02    0.4747743384E-01    0.2704532498E+00
    0.2100000000E+05    0.6271510524E+00    0.4023774192E+00    0.2883006368E-02    0.4752554771E-01    0.2708975181E+00
    0.2300000000E+05    0.6275854570E+00    0.4026203747E+00    0.2751352242E-02    0.4756599838E-01    0.2712815188E+00
    0.2500000000E+05    0.6279501225E+00    0.4028189526E+00    0.2635713517E-02    0.4760056351E-01    0.2716181448E+00
    0.2700000000E+05    0.6282605197E+00    0.4029831885E+00    0.2533101454E-02    0.4763050422E-01    0.2719167290E+00
    0.2900000000E+05    0.6285278640E+00    0.4031203534E+00    0.2441252774E-02    0.4765674085E-01    0.2721842130E+00
    0.3100000000E+05    0.6287604834E+00    0.4032358395E+00    0.2358418075E-02    0.4767996134E-01    0.2724258795E+00
    0.3300000000E+05    0.6289646910E+00    0.4033337271E+00    0.2283221049E-02    0.4770069063E-01    0.2726458286E+00
    0.3500000000E+05    0.6291453593E+00    0.4034171578E+00    0.2214562134E-02    0.4771933653E-01    0.2728472979E+00
    0.3700000000E+05    0.6293063088E+00    0.4034885880E+00    0.2151550906E-02    0.4773622089E-01    0.2730328821E+00
    0.3900000000E+05    0.6294505771E+00    0.4035499640E+00    0.2093457618E-02    0.4775160125E-01    0.2732046887E+00
    0.4100000000E+05    0.6295806093E+00    0.4036028473E+00    0.2039677776E-02    0.4776568630E-01    0.2733644496E+00
    0.4300000000E+05    0.6296983961E+00    0.4036485034E+00    0.1989705822E-02    0.4777864698E-01    0.2735136029E+00
    0.4500000000E+05    0.6298055742E+00    0.4036879685E+00    0.1943115263E-02    0.4779062475E-01    0.2736533545E+00
    0.4700000000E+05    0.6299035017E+00    0.4037220985E+00    0.1899543468E-02    0.4780173776E-01    0.2737847242E+00
    0.4900000000E+05    0.6299933149E+00    0.4037516057E+00    0.1858679892E-02    0.4781208546E-01    0.2739085811E+00
    0.1000000000E+05    0.6216605266E+00    0.3990505192E+00    0.4198539856E-02    0.4704964282E-01    0.2669101439E+00
    0.3000000000E+05    0.6286480804E+00    0.4031805256E+00    0.2398802141E-02    0.4766869211E-01    0.2723079938E+00
    0.5000000000E+05    0.6300354840E+00    0.4037648162E+00    0.1839178569E-02    0.4781699920E-01    0.2739679295E+00
    0.7000000000E+05    0.6306219853E+00    0.4038906605E+00    0.1542271948E-02    0.4789016098E-01    0.2748964013E+00
    0.9000000000E+05    0.6309430216E+00    0.4038865418E+00    0.1351666676E-02    0.4793604209E-01    0.2755274067E+00
    0.1100000000E+06    0.6311441986E+00    0.4038349229E+00    0.1216280998E-02    0.4796854772E-01    0.2760004750E+00
    0.1300000000E+06    0.6312812939E+00    0.4037643512E+00    0.1113846783E-02    0.4799333455E-01    0.2763767175E+00
    0.1500000000E+06    0.6313802218E+00    0.4036865488E+00    0.1032911920E-02    0.4801318270E-01    0.2766879643E+00
    0.1700000000E+06    0.6314546378E+00    0.4036068290E+00    0.9669102000E-03    0.4802963727E-01    0.2769527665E+00
    0.1900000000E+06    0.6315124099E+00    0.4035277311E+00    0.9117734839E-03    0.4804363488E-01    0.2771828270E+00
    0.2100000000E+06    0.6315583851E+00    0.4034504850E+00    0.8648302693E-03    0.4805578124E-01    0.2773859768E+00
    0.2300000000E+06    0.6315957089E+00    0.4033756640E+00    0.8242447067E-03    0.4806648823E-01    0.2775677005E+00
    0.2500000000E+06    0.6316265092E+00    0.4033034997E+00    0.7887083613E-03    0.4807604736E-01    0.2777319813E+00
    0.2700000000E+06    0.6316522762E+00    0.4032340415E+00    0.7572603536E-03    0.4808467178E-01    0.2778817996E+00
    0.2900000000E+06    0.6316740833E+00    0.4031672419E+00    0.7291771499E-03    0.4809252163E-01    0.2780194407E+00
    0.3100000000E+06    0.6316927229E+00    0.4031030033E+00    0.7039022327E-03    0.4809972004E-01    0.2781466940E+00
    0.3300000000E+06    0.6317087922E+00    0.4030412036E+00    0.6809996537E-03    0.4810636355E-01    0.2782649858E+00
    0.3500000000E+06    0.6317227492E+00    0.4029817114E+00    0.6601224452E-03    0.4811252911E-01    0.2783754707E+00
    0.3700000000E+06    0.6317349515E+00    0.4029243943E+00    0.6409905843E-03    0.4811827904E-01    0.2784790957E+00
    0.3900000000E+06    0.6317456813E+00    0.4028691231E+00    0.6233752742E-03    0.4812366441E-01    0.2785766474E+00
    0.4100000000E+06    0.6317551650E+00    0.4028157751E+00    0.6070875091E-03    0.4812872759E-01    0.2786687855E+00
    0.4300000000E+06    0.6317635855E+00    0.4027642343E+00    0.5919696098E-03    0.4813350409E-01    0.2787560689E+00
    0.4500000000E+06    0.6317710927E+00    0.4027143926E+00    0.5778888585E-03    0.4813802395E-01    0.2788389750E+00
    0.4700000000E+06    0.6317778100E+00    0.4026661495E+00    0.5647326456E-03    0.4814231279E-01    0.2789179146E+00
    0.4900000000E+06    0.6317838403E+00    0.4026194115E+00    0.5524047199E-03    0.4814639262E-01    0.2789932439E+00
    0.1000000000E+06    0.6310540555E+00    0.4038642798E+00    0.1278830331E-02    0.4795351363E-01    0.2757788698E+00
    0.3000000000E+06    0.6316837579E+00    0.4031348098E+00    0.7162183012E-03    0.4809619571E-01    0.2780842694E+00
    0.5000000000E+06    0.6317866254E+00    0.4025965797E+00    0.5465250251E-03    0.4814836022E-01    0.2790296533E+00
    0.7000000000E+06    0.6318213306E+00    0.4022011991E+00    0.4572795634E-03    0.4818026379E-01    0.2796264823E+00
    0.9000000000E+06    0.6318354597E+00    0.4018898023E+00    0.4002397914E-03    0.4820322017E-01    0.2800621127E+00
    0.1100000000E+07    0.6318411858E+00    0.4016329972E+00    0.3598352970E-03    0.4822114105E-01    0.2804048285E+00
    0.1300000000E+07    0.6318428933E+00    0.4014144393E+00    0.3293220249E-03    0.4823583528E-01    0.2806871435E+00
    0.1500000000E+07    0.6318424916E+00    0.4012241574E+00    0.3052461030E-03    0.4824828632E-01    0.2809270680E+00
    0.1700000000E+07    0.6318409202E+00    0.4010556312E+00    0.2856330977E-03    0.4825908785E-01    0.2811356148E+00
    0.1900000000E+07    0.6318386815E+00    0.4009043650E+00    0.2692624765E-03    0.4826862555E-01    0.2813200059E+00
    0.2100000000E+07    0.6318360612E+00    0.4007671288E+00    0.2553341390E-03    0.4827716409E-01    0.2814852317E+00
    0.2300000000E+07    0.6318332290E+00    0.4006415236E+00    0.2432990412E-03    0.4828489293E-01    0.2816348841E+00
    0.2500000000E+07    0.6318302892E+00    0.4005257186E+00    0.2327663326E-03    0.4829195232E-01    0.2817716334E+00
    0.2700000000E+07    0.6318273071E+00    0.4004182849E+00    0.2234492683E-03    0.4829844901E-01    0.2818975188E+00
    0.2900000000E+07    0.6318243243E+00    0.4003180857E+00    0.2151321155E-03    0.4830446608E-01    0.2820141324E+00
    0.3100000000E+07    0.6318213674E+00    0.4002242016E+00    0.2076490621E-03    0.4831006949E-01    0.2821227410E+00
    0.3300000000E+07    0.6318184536E+00    0.4001358785E+00    0.2008703032E-03    0.4831531250E-01    0.2822243686E+00
    0.3500000000E+07    0.6318155933E+00    0.4000524901E+00    0.1946925870E-03    0.4832023866E-01    0.2823198551E+00
    0.3700000000E+07    0.6318127930E+00    0.3999735107E+00    0.1890326260E-03    0.4832488412E-01    0.2824098976E+00
    0.3900000000E+07    0.6318100561E+00    0.3998984943E+00    0.1838223999E-03    0.4832927914E-01    0.2824950812E+00
    0.4100000000E+07    0.6318073844E+00    0.3998270598E+00    0.1790057413E-03    0.4833344938E-01    0.2825759016E+00
    0.4300000000E+07    0.6318047779E+00    0.3997588786E+00    0.1745358099E-03    0.4833741670E-01    0.2826527824E+00
    0.4500000000E+07    0.6318022363E+00    0.3996936654E+00    0.1703731941E-03    0.4834119996E-01    0.2827260886E+00
    0.4700000000E+07    0.6317997582E+00    0.3996311710E+00    0.1664844637E-03    0.4834481549E-01    0.2827961367E+00
    0.4900000000E+07    0.6317973421E+00    0.3995711763E+00    0.1628410535E-03    0.4834827754E-01    0.2828632030E+00
    0.1000000000E+07    0.6318390107E+00    0.4017557977E+00    0.3784915455E-03    0.4821266942E-01    0.2802425727E+00
    0.3000000000E+07    0.6318228414E+00    0.4002704048E+00    0.2112951553E-03    0.4830731591E-01    0.2820693684E+00
    0.5000000000E+07    0.6317961568E+00    0.3995420551E+00    0.1611035282E-03    0.4834995498E-01    0.2828956950E+00
    0.7000000000E+07    0.6317752286E+00    0.3990538426E+00    0.1347432011E-03    0.4837781389E-01    0.2834349629E+00
    0.9000000000E+07    0.6317583964E+00    0.3986856984E+00    0.1179075249E-03    0.4839854501E-01    0.2838357261E+00
    0.1100000000E+08    0.6317443882E+00    0.3983899079E+00    0.1059872573E-03    0.4841506409E-01    0.2841546920E+00
    0.1300000000E+08    0.6317324128E+00    0.3981425683E+00    0.9698797642E-04    0.4842879798E-01    0.2844196137E+00
    0.1500000000E+08    0.6317219625E+00    0.3979299725E+00    0.8988893855E-04    0.4844055236E-01    0.2846461567E+00
    0.1700000000E+08    0.6317126961E+00    0.3977435230E+00    0.8410690337E-04    0.4845082705E-01    0.2848440334E+00
    0.1900000000E+08    0.6317043743E+00    0.3975774687E+00    0.7928146026E-04    0.4845995357E-01    0.2850196825E+00
    0.2100000000E+08    0.6316968232E+00    0.3974277718E+00    0.7517641557E-04    0.4846816314E-01    0.2851775920E+00
    0.2300000000E+08    0.6316899125E+00    0.3972914876E+00    0.7162972650E-04    0.4847562348E-01    0.2853210152E+00
    0.2500000000E+08    0.6316835424E+00    0.3971664024E+00    0.6852606157E-04    0.4848246011E-01    0.2854523854E+00
    0.2700000000E+08    0.6316776346E+00    0.3970508096E+00    0.6578082256E-04    0.4848876941E-01    0.2855735707E+00
