  Pressure (Pa) 22mC5-400 (mol/kg) 3mC6-400 (mol/kg) 33mC5-400 (mol/kg) 23mC5-400 (mol/kg) C7-400 (mol/kg)
    0.1000000000E+01    0.3707647655E-02    0.3164801493E-02    0.2586300620E-03    0.9300328740E-04    0.3423685947E-02
    0.3000000000E+01    0.1099448191E-01    0.9308780861E-02    0.7576974318E-03    0.2757903718E-03    0.1007118522E-01
    0.5000000000E+01    0.1811504246E-01    0.1521717139E-01    0.1233656534E-02    0.4544102703E-03    0.1646499106E-01
    0.7000000000E+01    0.2507509395E-01    0.2090331883E-01    0.1687799369E-02    0.6290074174E-03    0.2261945187E-01
    0.9000000000E+01    0.3188013596E-01    0.2637957858E-01    0.2121326961E-02    0.7997196071E-03    0.2854785224E-01
    0.1100000000E+02    0.3853541805E-01    0.3165740596E-01    0.2535357246E-02    0.9666783698E-03    0.3426250974E-01
    0.1300000000E+02    0.4504595375E-01    0.3674743671E-01    0.2930932148E-02    0.1130009323E-02    0.3977486142E-01
    0.1500000000E+02    0.5141653368E-01    0.4165955898E-01    0.3309023930E-02    0.1289832500E-02    0.4509554110E-01
    0.1700000000E+02    0.5765173780E-01    0.4640297795E-01    0.3670540922E-02    0.1446262657E-02    0.5023444876E-01
    0.1900000000E+02    0.6375594683E-01    0.5098627376E-01    0.4016332671E-02    0.1599409558E-02    0.5520081278E-01
    0.2100000000E+02    0.6973335297E-01    0.5541745373E-01    0.4347194612E-02    0.1749378243E-02    0.6000324599E-01
    0.2300000000E+02    0.7558796992E-01    0.5970399936E-01    0.4663872287E-02    0.1896269284E-02    0.6464979615E-01
    0.2500000000E+02    0.8132364230E-01    0.6385290885E-01    0.4967065171E-02    0.2040179012E-02    0.6914799162E-01
    0.2700000000E+02    0.8694405440E-01    0.6787073546E-01    0.5257430156E-02    0.2181199746E-02    0.7350488260E-01
    0.2900000000E+02    0.9245273853E-01    0.7176362240E-01    0.5535584712E-02    0.2319419994E-02    0.7772707852E-01
    0.3100000000E+02    0.9785308271E-01    0.7553733435E-01    0.5802109774E-02    0.2454924651E-02    0.8182078199E-01
    0.3300000000E+02    0.1031483380E+00    0.7919728625E-01    0.6057552376E-02    0.2587795179E-02    0.8579181967E-01
    0.3500000000E+02    0.1083416254E+00    0.8274856938E-01    0.6302428056E-02    0.2718109783E-02    0.8964567031E-01
    0.3700000000E+02    0.1134359421E+00    0.8619597524E-01    0.6537223064E-02    0.2845943567E-02    0.9338749039E-01
    0.3900000000E+02    0.1184341678E+00    0.8954401728E-01    0.6762396380E-02    0.2971368689E-02    0.9702213748E-01
    0.4100000000E+02    0.1233390703E+00    0.9279695080E-01    0.6978381568E-02    0.3094454507E-02    0.1005541916E+00
    0.4300000000E+02    0.1281533111E+00    0.9595879117E-01    0.7185588485E-02    0.3215267707E-02    0.1039879748E+00
    0.4500000000E+02    0.1328794499E+00    0.9903333046E-01    0.7384404846E-02    0.3333872438E-02    0.1073275691E+00
    0.4700000000E+02    0.1375199500E+00    0.1020241528E+00    0.7575197670E-02    0.3450330425E-02    0.1105768328E+00
    0.4900000000E+02    0.1420771828E+00    0.1049346485E+00    0.7758314618E-02    0.3564701089E-02    0.1137394159E+00
    0.1000000000E+02    0.3522617828E-01    0.2904261326E-01    0.2330712443E-02    0.8836601811E-03    0.3143116435E-01
    0.3000000000E+02    0.9516624680E-01    0.7366502894E-01    0.5670265975E-02    0.2387506601E-02    0.7978961917E-01
    0.5000000000E+02    0.1443252907E+00    0.1063607835E+00    0.7847098292E-02    0.3621121638E-02    0.1152892893E+00
    0.7000000000E+02    0.1854288440E+00    0.1313616655E+00    0.9291337631E-02    0.4652801841E-02    0.1424847618E+00
    0.9000000000E+02    0.2203475129E+00    0.1511072506E+00    0.1025422542E-01    0.5529424021E-02    0.1640034112E+00
    0.1100000000E+03    0.2504084894E+00    0.1671031704E+00    0.1089095792E-01    0.6284249345E-02    0.1814678174E+00
    0.1300000000E+03    0.2765801902E+00    0.1803292126E+00    0.1130153343E-01    0.6941549157E-02    0.1959345470E+00
    0.1500000000E+03    0.2995863920E+00    0.1914505886E+00    0.1155253976E-01    0.7519464569E-02    0.2081213941E+00
    0.1700000000E+03    0.3199793576E+00    0.2009348934E+00    0.1168949958E-01    0.8031838662E-02    0.2185332341E+00
    0.1900000000E+03    0.3381881607E+00    0.2091204771E+00    0.1174420880E-01    0.8489427340E-02    0.2275356224E+00
    0.2100000000E+03    0.3545514975E+00    0.2162582556E+00    0.1173927191E-01    0.8900721482E-02    0.2353998193E+00
    0.2300000000E+03    0.3693405014E+00    0.2225382691E+00    0.1169099677E-01    0.9272518658E-02    0.2423314017E+00
    0.2500000000E+03    0.3827749476E+00    0.2281071094E+00    0.1161129331E-01    0.9610329198E-02    0.2484890444E+00
    0.2700000000E+03    0.3950349829E+00    0.2330796804E+00    0.1150894818E-01    0.9918670131E-02    0.2539971993E+00
    0.2900000000E+03    0.4062697615E+00    0.2375473331E+00    0.1139049773E-01    0.1020128162E-01    0.2589548691E+00
    0.3100000000E+03    0.4166039027E+00    0.2415836142E+00    0.1126083662E-01    0.1046128881E-01    0.2634418102E+00
    0.3300000000E+03    0.4261423874E+00    0.2452484084E+00    0.1112364855E-01    0.1070132451E-01    0.2675230035E+00
    0.3500000000E+03    0.4349743181E+00    0.2485909753E+00    0.1098171546E-01    0.1092362350E-01    0.2712519328E+00
    0.3700000000E+03    0.4431758414E+00    0.2516522088E+00    0.1083714210E-01    0.1113009570E-01    0.2746730263E+00
    0.3900000000E+03    0.4508124417E+00    0.2544663440E+00    0.1069152096E-01    0.1132238373E-01    0.2778235007E+00
    0.4100000000E+03    0.4579407619E+00    0.2570622615E+00    0.1054605459E-01    0.1150190852E-01    0.2807347707E+00
    0.4300000000E+03    0.4646100597E+00    0.2594644970E+00    0.1040164713E-01    0.1166990582E-01    0.2834335410E+00
    0.4500000000E+03    0.4708633830E+00    0.2616940296E+00    0.1025897328E-01    0.1182745566E-01    0.2859426595E+00
    0.4700000000E+03    0.4767385267E+00    0.2637689054E+00    0.1011853077E-01    0.1197550633E-01    0.2882817915E+00
    0.4900000000E+03    0.4822688158E+00    0.2657047333E+00    0.9980680382E-02    0.1211489404E-01    0.2904679568E+00
    0.1000000000E+03    0.2359178686E+00    0.1595034559E+00    0.1060613443E-01    0.5920373488E-02    0.1731664256E+00
    0.3000000000E+03    0.4115424390E+00    0.2396153721E+00    0.1132681401E-01    0.1033393589E-01    0.2612528164E+00
    0.5000000000E+03    0.4849139933E+00    0.2666248155E+00    0.9912810274E-02    0.1218157401E-01    0.2915083802E+00
    0.7000000000E+03    0.5253516552E+00    0.2802421510E+00    0.8719174115E-02    0.1320189111E-01    0.3070339949E+00
    0.9000000000E+03    0.5509511512E+00    0.2884581677E+00    0.7809035975E-02    0.1384908325E-01    0.3165636013E+00
    0.1100000000E+04    0.5685967360E+00    0.2939550224E+00    0.7106897909E-02    0.1429606372E-01    0.3230475910E+00
    0.1300000000E+04    0.5814868554E+00    0.2978894155E+00    0.6551092861E-02    0.1462322337E-01    0.3277661699E+00
    0.1500000000E+04    0.5913098488E+00    0.3008428503E+00    0.6099980447E-02    0.1487302604E-01    0.3313667938E+00
    0.1700000000E+04    0.5990406649E+00    0.3031399077E+00    0.5725806727E-02    0.1507000923E-01    0.3342129881E+00
    0.1900000000E+04    0.6052813515E+00    0.3049761308E+00    0.5409701738E-02    0.1522933531E-01    0.3365250329E+00
    0.2100000000E+04    0.6104235998E+00    0.3064763964E+00    0.5138490013E-02    0.1536087540E-01    0.3384444123E+00
    0.2300000000E+04    0.6147331334E+00    0.3077242115E+00    0.4902725624E-02    0.1547133050E-01    0.3400662789E+00
    0.2500000000E+04    0.6183965183E+00    0.3087775431E+00    0.4695469436E-02    0.1556540851E-01    0.3414570575E+00
    0.2700000000E+04    0.6215485600E+00    0.3096778925E+00    0.4511511099E-02    0.1564651340E-01    0.3426645718E+00
    0.2900000000E+04    0.6242890673E+00    0.3104557554E+00    0.4346861407E-02    0.1571716712E-01    0.3437241595E+00
    0.3100000000E+04    0.6266935037E+00    0.3111340436E+00    0.4198412768E-02    0.1577927771E-01    0.3446625180E+00
    0.3300000000E+04    0.6288199746E+00    0.3117303044E+00    0.4063706771E-02    0.1583431529E-01    0.3455002065E+00
    0.3500000000E+04    0.6307139410E+00    0.3122582034E+00    0.3940771611E-02    0.1588343081E-01    0.3462533242E+00
    0.3700000000E+04    0.6324114778E+00    0.3127285413E+00    0.3828006132E-02    0.1592753820E-01    0.3469346646E+00
    0.3900000000E+04    0.6339415744E+00    0.3131499667E+00    0.3724095624E-02    0.1596737238E-01    0.3475545281E+00
    0.4100000000E+04    0.6353277912E+00    0.3135294862E+00    0.3627949685E-02    0.1600353100E-01    0.3481213046E+00
    0.4300000000E+04    0.6365894724E+00    0.3138728362E+00    0.3538655669E-02    0.1603650511E-01    0.3486419000E+00
    0.4500000000E+04    0.6377426475E+00    0.3141847578E+00    0.3455443343E-02    0.1606670187E-01    0.3491220529E+00
    0.4700000000E+04    0.6388007118E+00    0.3144692036E+00    0.3377657710E-02    0.1609446175E-01    0.3495665728E+00
    0.4900000000E+04    0.6397749455E+00    0.3147294944E+00    0.3304737881E-02    0.1612007166E-01    0.3499795223E+00
    0.1000000000E+04    0.5605180809E+00    0.2914546235E+00    0.7436353324E-02    0.1409131499E-01    0.3200847889E+00
    0.3000000000E+04    0.6255293199E+00    0.3108061441E+00    0.4270778643E-02    0.1574918977E-01    0.3442070864E+00
    0.5000000000E+04    0.6402336732E+00    0.3148514772E+00    0.3269948938E-02    0.1613214792E-01    0.3501752589E+00
    0.7000000000E+04    0.6467113059E+00    0.3165219753E+00    0.2741096179E-02    0.1630422537E-01    0.3530522115E+00
    0.9000000000E+04    0.6503534468E+00    0.3173956428E+00    0.2402269811E-02    0.1640285985E-01    0.3548042137E+00
    0.1100000000E+05    0.6526864701E+00    0.3179111745E+00    0.2161822587E-02    0.1646724383E-01    0.3560099250E+00
    0.1300000000E+05    0.6543081993E+00    0.3182376743E+00    0.1979967272E-02    0.1651283367E-01    0.3569046579E+00
    0.1500000000E+05    0.6555006537E+00    0.3184536163E+00    0.1836297725E-02    0.1654697014E-01    0.3576034077E+00
    0.1700000000E+05    0.6564142138E+00    0.3186001206E+00    0.1719134500E-02    0.1657359361E-01    0.3581695624E+00
    0.1900000000E+05    0.6571363871E+00    0.3187006740E+00    0.1621249850E-02    0.1659501214E-01    0.3586411825E+00
    0.2100000000E+05    0.6577215506E+00    0.3187695853E+00    0.1537900969E-02    0.1661266929E-01    0.3590426332E+00
    0.2300000000E+05    0.6582052711E+00    0.3188160199E+00    0.1465830213E-02    0.1662751540E-01    0.3593903102E+00
    0.2500000000E+05    0.6586117902E+00    0.3188460882E+00    0.1402716540E-02    0.1664020236E-01    0.3596956954E+00
    0.2700000000E+05    0.6589581981E+00    0.3188639998E+00    0.1346855760E-02    0.1665119266E-01    0.3599670979E+00
    0.2900000000E+05    0.6592568896E+00    0.3188727344E+00    0.1296964770E-02    0.1666082388E-01    0.3602106964E+00
    0.3100000000E+05    0.6595170724E+00    0.3188744499E+00    0.1252056691E-02    0.1666934836E-01    0.3604311935E+00
    0.3300000000E+05    0.6597457293E+00    0.3188707400E+00    0.1211358452E-02    0.1667695866E-01    0.3606322400E+00
    0.3500000000E+05    0.6599482520E+00    0.3188628017E+00    0.1174254754E-02    0.1668380440E-01    0.3608167192E+00
    0.3700000000E+05    0.6601288697E+00    0.3188515470E+00    0.1140248989E-02    0.1669000365E-01    0.3609869429E+00
    0.3900000000E+05    0.6602909462E+00    0.3188376798E+00    0.1108935368E-02    0.1669565092E-01    0.3611447896E+00
    0.4100000000E+05    0.6604371905E+00    0.3188217494E+00    0.1079978648E-02    0.1670082276E-01    0.3612918038E+00
    0.4300000000E+05    0.6605698088E+00    0.3188041887E+00    0.1053099127E-02    0.1670558191E-01    0.3614292689E+00
    0.4500000000E+05    0.6606906156E+00    0.3187853415E+00    0.1028061360E-02    0.1670998028E-01    0.3615582616E+00
    0.4700000000E+05    0.6608011173E+00    0.3187654836E+00    0.1004665555E-02    0.1671406121E-01    0.3616796928E+00
    0.4900000000E+05    0.6609025748E+00    0.3187448368E+00    0.9827409260E-03    0.1671786121E-01    0.3617943397E+00
    0.1000000000E+05    0.6516351863E+00    0.3176844242E+00    0.2272894335E-02    0.1643808372E-01    0.3554564813E+00
    0.3000000000E+05    0.6593913147E+00    0.3188743590E+00    0.1273940437E-02    0.1666521125E-01    0.3603235836E+00
    0.5000000000E+05    0.6609502509E+00    0.3187342753E+00    0.9722835628E-03    0.1671966573E-01    0.3618493312E+00
    0.7000000000E+05    0.6616167974E+00    0.3185110761E+00    0.8135077051E-03    0.1674653637E-01    0.3627147384E+00
    0.9000000000E+05    0.6619858078E+00    0.3182954230E+00    0.7119835750E-03    0.1676339018E-01    0.3633088433E+00
    0.1100000000E+06    0.6622197110E+00    0.3180993428E+00    0.6400493947E-03    0.1677533192E-01    0.3637576734E+00
    0.1300000000E+06    0.6623809714E+00    0.3179225711E+00    0.5857162783E-03    0.1678443861E-01    0.3641168077E+00
    0.1500000000E+06    0.6624987207E+00    0.3177626877E+00    0.5428414365E-03    0.1679173118E-01    0.3644153714E+00
    0.1700000000E+06    0.6625883678E+00    0.3176171868E+00    0.5079120761E-03    0.1679777709E-01    0.3646704302E+00
    0.1900000000E+06    0.6626588245E+00    0.3174839041E+00    0.4787561225E-03    0.1680292036E-01    0.3648928011E+00
    0.2100000000E+06    0.6627156011E+00    0.3173610552E+00    0.4539494116E-03    0.1680738348E-01    0.3650897529E+00
    0.2300000000E+06    0.6627622873E+00    0.3172471850E+00    0.4325144934E-03    0.1681131777E-01    0.3652663960E+00
    0.2500000000E+06    0.6628013208E+00    0.3171411050E+00    0.4137554543E-03    0.1681483029E-01    0.3654264545E+00
    0.2700000000E+06    0.6628344148E+00    0.3170418383E+00    0.3971616865E-03    0.1681799937E-01    0.3655727238E+00
    0.2900000000E+06    0.6628628084E+00    0.3169485749E+00    0.3823490002E-03    0.1682088383E-01    0.3657073534E+00
    0.3100000000E+06    0.6628874196E+00    0.3168606380E+00    0.3690220862E-03    0.1682352892E-01    0.3658320308E+00
    0.3300000000E+06    0.6629089430E+00    0.3167774569E+00    0.3569497495E-03    0.1682597011E-01    0.3659481042E+00
    0.3500000000E+06    0.6629279134E+00    0.3166985466E+00    0.3459480799E-03    0.1682823567E-01    0.3660566677E+00
    0.3700000000E+06    0.6629447498E+00    0.3166234919E+00    0.3358687213E-03    0.1683034850E-01    0.3661586204E+00
    0.3900000000E+06    0.6629597845E+00    0.3165519346E+00    0.3265905080E-03    0.1683232736E-01    0.3662547104E+00
    0.4100000000E+06    0.6629732846E+00    0.3164835640E+00    0.3180133858E-03    0.1683418782E-01    0.3663455666E+00
    0.4300000000E+06    0.6629854673E+00    0.3164181084E+00    0.3100539133E-03    0.1683594294E-01    0.3664317225E+00
    0.4500000000E+06    0.6629965109E+00    0.3163553297E+00    0.3026418811E-03    0.1683760374E-01    0.3665136344E+00
    0.4700000000E+06    0.6630065631E+00    0.3162950174E+00    0.2957177351E-03    0.1683917965E-01    0.3665916960E+00
    0.4900000000E+06    0.6630157473E+00    0.3162369848E+00    0.2892305867E-03    0.1684067875E-01    0.3666662486E+00
    0.1000000000E+06    0.6621145719E+00    0.3181948541E+00    0.6732658489E-03    0.1676980865E-01    0.3635470479E+00
    0.3000000000E+06    0.6628755391E+00    0.3169039785E+00    0.3755155466E-03    0.1682223389E-01    0.3657708450E+00
    0.5000000000E+06    0.6630200470E+00    0.3162087707E+00    0.2861369639E-03    0.1684140173E-01    0.3667023037E+00
    0.7000000000E+06    0.6630787698E+00    0.3157319234E+00    0.2392094930E-03    0.1685312408E-01    0.3672951880E+00
    0.9000000000E+06    0.6631096123E+00    0.3153684406E+00    0.2092462326E-03    0.1686155851E-01    0.3677299673E+00
    0.1100000000E+07    0.6631281030E+00    0.3150745399E+00    0.1880362474E-03    0.1686814252E-01    0.3680730734E+00
    0.1300000000E+07    0.6631401152E+00    0.3148277531E+00    0.1720270307E-03    0.1687354086E-01    0.3683563393E+00
    0.1500000000E+07    0.6631483438E+00    0.3146150044E+00    0.1594006284E-03    0.1687811493E-01    0.3685974791E+00
    0.1700000000E+07    0.6631541915E+00    0.3144280088E+00    0.1491184096E-03    0.1688208290E-01    0.3688073618E+00
    0.1900000000E+07    0.6631584562E+00    0.3142611837E+00    0.1405386323E-03    0.1688558651E-01    0.3689931347E+00
    0.2100000000E+07    0.6631616230E+00    0.3141105873E+00    0.1332407803E-03    0.1688872301E-01    0.3691597483E+00
    0.2300000000E+07    0.6631640028E+00    0.3139733325E+00    0.1269363857E-03    0.1689156201E-01    0.3693107720E+00
    0.2500000000E+07    0.6631658031E+00    0.3138472408E+00    0.1214201563E-03    0.1689415505E-01    0.3694488640E+00
    0.2700000000E+07    0.6631671671E+00    0.3137306278E+00    0.1165415206E-03    0.1689654135E-01    0.3695760571E+00
    0.2900000000E+07    0.6631681966E+00    0.3136221643E+00    0.1121872222E-03    0.1689875145E-01    0.3696939402E+00
    0.3100000000E+07    0.6631689657E+00    0.3135207825E+00    0.1082702309E-03    0.1690080957E-01    0.3698037790E+00
    0.3300000000E+07    0.6631695292E+00    0.3134256122E+00    0.1047224290E-03    0.1690273529E-01    0.3699065976E+00
    0.3500000000E+07    0.6631699288E+00    0.3133359342E+00    0.1014896426E-03    0.1690454461E-01    0.3700032368E+00
    0.3700000000E+07    0.6631701963E+00    0.3132511478E+00    0.9852817973E-04    0.1690625081E-01    0.3700943948E+00
    0.3900000000E+07    0.6631703565E+00    0.3131707457E+00    0.9580236291E-04    0.1690786501E-01    0.3701806583E+00
    0.4100000000E+07    0.6631704291E+00    0.3130942956E+00    0.9328273596E-04    0.1690939663E-01    0.3702625244E+00
    0.4300000000E+07    0.6631704294E+00    0.3130214266E+00    0.9094473735E-04    0.1691085371E-01    0.3703404183E+00
    0.4500000000E+07    0.6631703700E+00    0.3129518174E+00    0.8876770347E-04    0.1691224318E-01    0.3704147067E+00
    0.4700000000E+07    0.6631702611E+00    0.3128851882E+00    0.8673410900E-04    0.1691357103E-01    0.3704857074E+00
    0.4900000000E+07    0.6631701108E+00    0.3128212938E+00    0.8482898052E-04    0.1691484250E-01    0.3705536985E+00
    0.1000000000E+07    0.6631199223E+00    0.3152145004E+00    0.1978281277E-03    0.1686503013E-01    0.3679105234E+00
    0.3000000000E+07    0.6631686099E+00    0.3135706466E+00    0.1101786966E-03    0.1689979819E-01    0.3697497963E+00
    0.5000000000E+07    0.6631700224E+00    0.3127903036E+00    0.8392049485E-04    0.1691545855E-01    0.3705866427E+00
    0.7000000000E+07    0.6631672307E+00    0.3122728988E+00    0.7014280386E-04    0.1692568953E-01    0.3711337842E+00
    0.9000000000E+07    0.6631638095E+00    0.3118850858E+00    0.6134881832E-04    0.1693330239E-01    0.3715407746E+00
    0.1100000000E+08    0.6631604451E+00    0.3115747306E+00    0.5512526670E-04    0.1693936822E-01    0.3718648734E+00
    0.1300000000E+08    0.6631572942E+00    0.3113159609E+00    0.5042851454E-04    0.1694441112E-01    0.3721341531E+00
    0.1500000000E+08    0.6631543808E+00    0.3110940352E+00    0.4672466049E-04    0.1694872703E-01    0.3723644776E+00
    0.1700000000E+08    0.6631516918E+00    0.3108997504E+00    0.4370874658E-04    0.1695249953E-01    0.3725656910E+00
    0.1900000000E+08    0.6631492047E+00    0.3107269730E+00    0.4119238094E-04    0.1695585037E-01    0.3727443233E+00
    0.2100000000E+08    0.6631468962E+00    0.3105714096E+00    0.3905213313E-04    0.1695886448E-01    0.3729049284E+00
    0.2300000000E+08    0.6631447453E+00    0.3104299366E+00    0.3720334156E-04    0.1696160346E-01    0.3730508090E+00
    0.2500000000E+08    0.6631427336E+00    0.3103002107E+00    0.3558576169E-04    0.1696411340E-01    0.3731844360E+00
    0.2700000000E+08    0.6631408452E+00    0.3101804290E+00    0.3415521083E-04    0.1696642970E-01    0.3733077068E+00
