  Pressure (Pa) 22mC5-400 (mol/kg) 3mC6-400 (mol/kg) 33mC5-400 (mol/kg) 23mC5-400 (mol/kg) C7-400 (mol/kg)
    0.1000000000E+01    0.3705656746E-02    0.5294383473E-03    0.3889900196E-03    0.3718135498E-03    0.3436418996E-02
    0.3000000000E+01    0.1097702786E-01    0.1568644247E-02    0.1145625027E-02    0.1101411608E-02    0.1018215750E-01
    0.5000000000E+01    0.1806779964E-01    0.2582432703E-02    0.1874845507E-02    0.1812904655E-02    0.1676365784E-01
    0.7000000000E+01    0.2498483916E-01    0.3571734410E-02    0.2577847113E-02    0.2506980926E-02    0.2318692490E-01
    0.9000000000E+01    0.3173466687E-01    0.4537435054E-02    0.3255761984E-02    0.3184293920E-02    0.2945767343E-01
    0.1100000000E+02    0.3832347812E-01    0.5480378011E-02    0.3909662767E-02    0.3845464559E-02    0.3558134532E-01
    0.1300000000E+02    0.4475716317E-01    0.6401366835E-02    0.4540566331E-02    0.4491083191E-02    0.4156312575E-01
    0.1500000000E+02    0.5104132570E-01    0.7301167588E-02    0.5149437215E-02    0.5121711447E-02    0.4740795814E-01
    0.1700000000E+02    0.5718129996E-01    0.8180511005E-02    0.5737190832E-02    0.5737883958E-02    0.5312055811E-01
    0.1900000000E+02    0.6318216685E-01    0.9040094501E-02    0.6304696445E-02    0.6340109965E-02    0.5870542645E-01
    0.2100000000E+02    0.6904876867E-01    0.9880584058E-02    0.6852779922E-02    0.6928874799E-02    0.6416686124E-01
    0.2300000000E+02    0.7478572302E-01    0.1070261597E-01    0.7382226320E-02    0.7504641275E-02    0.6950896912E-01
    0.2500000000E+02    0.8039743564E-01    0.1150679849E-01    0.7893782268E-02    0.8067850976E-02    0.7473567590E-01
    0.2700000000E+02    0.8588811246E-01    0.1229371335E-01    0.8388158207E-02    0.8618925458E-02    0.7985073633E-01
    0.2900000000E+02    0.9126177077E-01    0.1306391719E-01    0.8866030467E-02    0.9158267377E-02    0.8485774342E-01
    0.3100000000E+02    0.9652224969E-01    0.1381794290E-01    0.9328043211E-02    0.9686261531E-02    0.8976013699E-01
    0.3300000000E+02    0.1016732200E+00    0.1455630091E-01    0.9774810247E-02    0.1020327584E-01    0.9456121181E-01
    0.3500000000E+02    0.1067181930E+00    0.1527948028E-01    0.1020691672E-01    0.1070966228E-01    0.9926412514E-01
    0.3700000000E+02    0.1116605297E+00    0.1598794989E-01    0.1062492071E-01    0.1120575771E-01    0.1038719039E+00
    0.3900000000E+02    0.1165034482E+00    0.1668215943E-01    0.1102935470E-01    0.1169188468E-01    0.1083874511E+00
    0.4100000000E+02    0.1212500312E+00    0.1736254037E-01    0.1142072697E-01    0.1216835221E-01    0.1128135526E+00
    0.4300000000E+02    0.1259032337E+00    0.1802950691E-01    0.1179952290E-01    0.1263545648E-01    0.1171528826E+00
    0.4500000000E+02    0.1304658888E+00    0.1868345679E-01    0.1216620619E-01    0.1309348149E-01    0.1214080090E+00
    0.4700000000E+02    0.1349407145E+00    0.1932477213E-01    0.1252122001E-01    0.1354269965E-01    0.1255813993E+00
    0.4900000000E+02    0.1393303191E+00    0.1995382018E-01    0.1286498806E-01    0.1398337244E-01    0.1296754248E+00
    0.1000000000E+02    0.3504882448E-01    0.5011700116E-02    0.3585649317E-02    0.3516859443E-02    0.3253756405E-01
    0.3000000000E+02    0.9390592440E-01    0.1344291990E-01    0.9098980225E-02    0.9423659544E-02    0.8732180767E-01
    0.5000000000E+02    0.1414939501E+00    0.2026385485E-01    0.1303278227E-01    0.1420058315E-01    0.1316933917E+00
    0.7000000000E+02    0.1808514681E+00    0.2589956811E-01    0.1588792456E-01    0.1815219932E-01    0.1683965943E+00
    0.9000000000E+02    0.2140026278E+00    0.3063724313E-01    0.1798540360E-01    0.2148141164E-01    0.1992862180E+00
    0.1100000000E+03    0.2423490872E+00    0.3467794050E-01    0.1953822764E-01    0.2432873385E-01    0.2256613197E+00
    0.1300000000E+03    0.2668933596E+00    0.3816666310E-01    0.2069189748E-01    0.2679467286E-01    0.2484591171E+00
    0.1500000000E+03    0.2883723876E+00    0.4121064414E-01    0.2154826151E-01    0.2895311580E-01    0.2683729640E+00
    0.1700000000E+03    0.3073407518E+00    0.4389091081E-01    0.2218011938E-01    0.3085966957E-01    0.2859269656E+00
    0.1900000000E+03    0.3242243481E+00    0.4626984225E-01    0.2264045721E-01    0.3255704093E-01    0.3015247565E+00
    0.2100000000E+03    0.3393560806E+00    0.4839625257E-01    0.2296845375E-01    0.3407861416E-01    0.3154823138E+00
    0.2300000000E+03    0.3530002352E+00    0.5030889583E-01    0.2319348306E-01    0.3545089414E-01    0.3280505883E+00
    0.2500000000E+03    0.3653695199E+00    0.5203893665E-01    0.2333783998E-01    0.3669521454E-01    0.3394314602E+00
    0.2700000000E+03    0.3766372290E+00    0.5361172600E-01    0.2341863173E-01    0.3782895720E-01    0.3497892107E+00
    0.2900000000E+03    0.3869460917E+00    0.5504810016E-01    0.2344911311E-01    0.3886643921E-01    0.3592589140E+00
    0.3100000000E+03    0.3964148181E+00    0.5636534573E-01    0.2343964372E-01    0.3981956914E-01    0.3679526748E+00
    0.3300000000E+03    0.4051430157E+00    0.5757792703E-01    0.2339838358E-01    0.4069833994E-01    0.3759643295E+00
    0.3500000000E+03    0.4132149341E+00    0.5869804131E-01    0.2333180510E-01    0.4151120440E-01    0.3833730362E+00
    0.3700000000E+03    0.4207023529E+00    0.5973604767E-01    0.2324507424E-01    0.4226536471E-01    0.3902460485E+00
    0.3900000000E+03    0.4276668351E+00    0.6070080201E-01    0.2314233726E-01    0.4296699837E-01    0.3966408820E+00
    0.4100000000E+03    0.4341615037E+00    0.6159992111E-01    0.2302693844E-01    0.4362143637E-01    0.4026070228E+00
    0.4300000000E+03    0.4402324566E+00    0.6243999290E-01    0.2290158708E-01    0.4423330501E-01    0.4081872884E+00
    0.4500000000E+03    0.4459199026E+00    0.6322674515E-01    0.2276848639E-01    0.4480663990E-01    0.4134189194E+00
    0.4700000000E+03    0.4512590824E+00    0.6396518200E-01    0.2262943395E-01    0.4534497823E-01    0.4183344635E+00
    0.4900000000E+03    0.4562810200E+00    0.6465969524E-01    0.2248590039E-01    0.4585143419E-01    0.4229624958E+00
    0.1000000000E+03    0.2287063135E+00    0.3273459360E-01    0.1881955914E-01    0.2295827813E-01    0.2129726795E+00
    0.3000000000E+03    0.3917788475E+00    0.5572065107E-01    0.2344881745E-01    0.3935288361E-01    0.3636965409E+00
    0.5000000000E+03    0.4586817193E+00    0.6499170831E-01    0.2241283894E-01    0.4609357927E-01    0.4251766863E+00
    0.7000000000E+03    0.4952701970E+00    0.7006016632E-01    0.2091473142E-01    0.4978772429E-01    0.4591482818E+00
    0.9000000000E+03    0.5183147125E+00    0.7327489354E-01    0.1954509855E-01    0.5211924816E-01    0.4809180581E+00
    0.1100000000E+04    0.5341377718E+00    0.7550335851E-01    0.1836615955E-01    0.5372347076E-01    0.4961607583E+00
    0.1300000000E+04    0.5456607560E+00    0.7714253476E-01    0.1735699850E-01    0.5489416098E-01    0.5074829307E+00
    0.1500000000E+04    0.5544194366E+00    0.7840054345E-01    0.1648710468E-01    0.5578586320E-01    0.5162560683E+00
    0.1700000000E+04    0.5612977000E+00    0.7939732921E-01    0.1572985547E-01    0.5648758554E-01    0.5232734062E+00
    0.1900000000E+04    0.5668398179E+00    0.8020702796E-01    0.1506411111E-01    0.5705417510E-01    0.5290269479E+00
    0.2100000000E+04    0.5713990252E+00    0.8087800063E-01    0.1447343482E-01    0.5752125282E-01    0.5338387496E+00
    0.2300000000E+04    0.5752144414E+00    0.8144317680E-01    0.1394503579E-01    0.5791294884E-01    0.5379288511E+00
    0.2500000000E+04    0.5784536332E+00    0.8192577612E-01    0.1346887632E-01    0.5824618458E-01    0.5414529322E+00
    0.2700000000E+04    0.5812374709E+00    0.8234265403E-01    0.1303699253E-01    0.5853317442E-01    0.5445243794E+00
    0.2900000000E+04    0.5836553085E+00    0.8270634997E-01    0.1264299291E-01    0.5878295419E-01    0.5472278239E+00
    0.3100000000E+04    0.5857746101E+00    0.8302639046E-01    0.1228169021E-01    0.5900235091E-01    0.5496277725E+00
    0.3300000000E+04    0.5876472557E+00    0.8331014584E-01    0.1194882988E-01    0.5919661825E-01    0.5517742935E+00
    0.3500000000E+04    0.5893137884E+00    0.8356340965E-01    0.1164088792E-01    0.5936986468E-01    0.5537068704E+00
    0.3700000000E+04    0.5908063457E+00    0.8379080028E-01    0.1135491887E-01    0.5952534920E-01    0.5554570781E+00
    0.3900000000E+04    0.5921507276E+00    0.8399604545E-01    0.1108844022E-01    0.5966568995E-01    0.5570504832E+00
    0.4100000000E+04    0.5933678831E+00    0.8418218777E-01    0.1083934352E-01    0.5979301427E-01    0.5585080188E+00
    0.4300000000E+04    0.5944749973E+00    0.8435173562E-01    0.1060582526E-01    0.5990906852E-01    0.5598469966E+00
    0.4500000000E+04    0.5954862994E+00    0.8450677582E-01    0.1038633274E-01    0.6001529971E-01    0.5610818639E+00
    0.4700000000E+04    0.5964136712E+00    0.8464905888E-01    0.1017952105E-01    0.6011291696E-01    0.5622247766E+00
    0.4900000000E+04    0.5972671115E+00    0.8478006428E-01    0.9984218794E-02    0.6020293847E-01    0.5632860403E+00
    0.1000000000E+04    0.5269002009E+00    0.7448128606E-01    0.1893253791E-01    0.5298927669E-01    0.4891511465E+00
    0.3000000000E+04    0.5847487262E+00    0.8287132381E-01    0.1245853956E-01    0.5889609101E-01    0.5484623197E+00
    0.5000000000E+04    0.5976688067E+00    0.8484173879E-01    0.9890558151E-02    0.6024537591E-01    0.5637888540E+00
    0.7000000000E+04    0.6033292646E+00    0.8570876095E-01    0.8428872607E-02    0.6084921739E-01    0.5711437290E+00
    0.9000000000E+04    0.6065002934E+00    0.8618664686E-01    0.7456406821E-02    0.6119457627E-01    0.5755560170E+00
    0.1100000000E+05    0.6085256791E+00    0.8648317123E-01    0.6750334232E-02    0.6141969086E-01    0.5785365011E+00
    0.1300000000E+05    0.6099300755E+00    0.8668102041E-01    0.6208055051E-02    0.6157893342E-01    0.5807046858E+00
    0.1500000000E+05    0.6109604179E+00    0.8681956264E-01    0.5774899425E-02    0.6169808064E-01    0.5823641305E+00
    0.1700000000E+05    0.6117481410E+00    0.8691988817E-01    0.5418722784E-02    0.6179095064E-01    0.5836820791E+00
    0.1900000000E+05    0.6123696121E+00    0.8699428575E-01    0.5119229403E-02    0.6186562903E-01    0.5847587020E+00
    0.2100000000E+05    0.6128722242E+00    0.8705038197E-01    0.4862892629E-02    0.6192716888E-01    0.5856578822E+00
    0.2300000000E+05    0.6132869403E+00    0.8709314860E-01    0.4640305519E-02    0.6197889448E-01    0.5864224057E+00
    0.2500000000E+05    0.6136348416E+00    0.8712595708E-01    0.4444697426E-02    0.6202308486E-01    0.5870820770E+00
    0.2700000000E+05    0.6139307762E+00    0.8715116883E-01    0.4271054994E-02    0.6206135624E-01    0.5876583394E+00
    0.2900000000E+05    0.6141855030E+00    0.8717048306E-01    0.4115576591E-02    0.6209488771E-01    0.5881670424E+00
    0.3100000000E+05    0.6144070074E+00    0.8718515076E-01    0.3975320353E-02    0.6212456037E-01    0.5886201723E+00
    0.3300000000E+05    0.6146013408E+00    0.8719611118E-01    0.3847969549E-02    0.6215104643E-01    0.5890269743E+00
    0.3500000000E+05    0.6147731717E+00    0.8720408162E-01    0.3731671719E-02    0.6217486795E-01    0.5893947022E+00
    0.3700000000E+05    0.6149261593E+00    0.8720961803E-01    0.3624925637E-02    0.6219643690E-01    0.5897291335E+00
    0.3900000000E+05    0.6150632123E+00    0.8721315701E-01    0.3526500174E-02    0.6221608285E-01    0.5900349313E+00
    0.4100000000E+05    0.6151866711E+00    0.8721504545E-01    0.3435374940E-02    0.6223407282E-01    0.5903159040E+00
    0.4300000000E+05    0.6152984405E+00    0.8721556178E-01    0.3350696115E-02    0.6225062551E-01    0.5905751951E+00
    0.4500000000E+05    0.6154000864E+00    0.8721493163E-01    0.3271743087E-02    0.6226592189E-01    0.5908154240E+00
    0.4700000000E+05    0.6154929077E+00    0.8721333932E-01    0.3197902905E-02    0.6228011304E-01    0.5910387926E+00
    0.4900000000E+05    0.6155779908E+00    0.8721093658E-01    0.3128650470E-02    0.6229332616E-01    0.5912471662E+00
    0.1000000000E+05    0.6076136769E+00    0.8635090330E-01    0.7078084393E-02    0.6131776649E-01    0.5771756012E+00
    0.3000000000E+05    0.6142999920E+00    0.8717833294E-01    0.4043702980E-02    0.6211016029E-01    0.5883999221E+00
    0.5000000000E+05    0.6156179224E+00    0.8720947147E-01    0.3095600694E-02    0.6229960033E-01    0.5913462367E+00
    0.7000000000E+05    0.6161718842E+00    0.8715909139E-01    0.2592437435E-02    0.6239299938E-01    0.5928273410E+00
    0.9000000000E+05    0.6164734298E+00    0.8709418219E-01    0.2269523089E-02    0.6245155445E-01    0.5937556119E+00
    0.1100000000E+06    0.6166613321E+00    0.8702877792E-01    0.2040264839E-02    0.6249303152E-01    0.5944077717E+00
    0.1300000000E+06    0.6167886423E+00    0.8696652130E-01    0.1866890724E-02    0.6252465517E-01    0.5948992065E+00
    0.1500000000E+06    0.6168799613E+00    0.8690825574E-01    0.1729971296E-02    0.6254997526E-01    0.5952874961E+00
    0.1700000000E+06    0.6169482286E+00    0.8685395977E-01    0.1618366308E-02    0.6257096439E-01    0.5956049463E+00
    0.1900000000E+06    0.6170008864E+00    0.8680334353E-01    0.1525174347E-02    0.6258881815E-01    0.5958712512E+00
    0.2100000000E+06    0.6170425111E+00    0.8675605258E-01    0.1445863980E-02    0.6260430969E-01    0.5960991856E+00
    0.2300000000E+06    0.6170760670E+00    0.8671173987E-01    0.1377321759E-02    0.6261796469E-01    0.5962974449E+00
    0.2500000000E+06    0.6171035565E+00    0.8667008958E-01    0.1317329110E-02    0.6263015516E-01    0.5964721812E+00
    0.2700000000E+06    0.6171263787E+00    0.8663082270E-01    0.1264257101E-02    0.6264115310E-01    0.5966278863E+00
    0.2900000000E+06    0.6171455399E+00    0.8659369565E-01    0.1216879410E-02    0.6265116290E-01    0.5967679276E+00
    0.3100000000E+06    0.6171617814E+00    0.8655849669E-01    0.1174252984E-02    0.6266034165E-01    0.5968948864E+00
    0.3300000000E+06    0.6171756610E+00    0.8652504169E-01    0.1135639237E-02    0.6266881252E-01    0.5970107796E+00
    0.3500000000E+06    0.6171876059E+00    0.8649317023E-01    0.1100450450E-02    0.6267667374E-01    0.5971172097E+00
    0.3700000000E+06    0.6171979484E+00    0.8646274207E-01    0.1068212394E-02    0.6268400477E-01    0.5972154682E+00
    0.3900000000E+06    0.6172069508E+00    0.8643363414E-01    0.1038537672E-02    0.6269087080E-01    0.5973066096E+00
    0.4100000000E+06    0.6172148228E+00    0.8640573803E-01    0.1011106318E-02    0.6269732588E-01    0.5973915047E+00
    0.4300000000E+06    0.6172217338E+00    0.8637895781E-01    0.9856514509E-03    0.6270341530E-01    0.5974708802E+00
    0.4500000000E+06    0.6172278219E+00    0.8635320831E-01    0.9619484791E-03    0.6270917739E-01    0.5975453477E+00
    0.4700000000E+06    0.6172332010E+00    0.8632841356E-01    0.9398068721E-03    0.6271464484E-01    0.5976154265E+00
    0.4900000000E+06    0.6172379656E+00    0.8630450561E-01    0.9190638060E-03    0.6271984573E-01    0.5976815610E+00
    0.1000000000E+06    0.6165772690E+00    0.8706120777E-01    0.2146170274E-02    0.6247384887E-01    0.5941070059E+00
    0.3000000000E+06    0.6171539872E+00    0.8657586727E-01    0.1195022518E-02    0.6265584778E-01    0.5968329050E+00
    0.5000000000E+06    0.6172401428E+00    0.8629286486E-01    0.9091721751E-03    0.6272235395E-01    0.5977132708E+00
    0.7000000000E+06    0.6172652014E+00    0.8609461115E-01    0.7591691047E-03    0.6276301958E-01    0.5982105153E+00
    0.9000000000E+06    0.6172726038E+00    0.8594189239E-01    0.6634519534E-03    0.6279227641E-01    0.5985487436E+00
    0.1100000000E+07    0.6172731809E+00    0.8581761197E-01    0.5957368454E-03    0.6281511325E-01    0.5988017648E+00
    0.1300000000E+07    0.6172707225E+00    0.8571279623E-01    0.5446530345E-03    0.6283383675E-01    0.5990023291E+00
    0.1500000000E+07    0.6172668248E+00    0.8562214858E-01    0.5043829338E-03    0.6284970088E-01    0.5991676249E+00
    0.1700000000E+07    0.6172622424E+00    0.8554227991E-01    0.4716036985E-03    0.6286346254E-01    0.5993077160E+00
    0.1900000000E+07    0.6172573600E+00    0.8547088978E-01    0.4442627799E-03    0.6287561344E-01    0.5994289678E+00
    0.2100000000E+07    0.6172523836E+00    0.8540634464E-01    0.4210155558E-03    0.6288649098E-01    0.5995356460E+00
    0.2300000000E+07    0.6172474264E+00    0.8534744251E-01    0.4009398727E-03    0.6289633664E-01    0.5996307398E+00
    0.2500000000E+07    0.6172425515E+00    0.8529327304E-01    0.3833796318E-03    0.6290532922E-01    0.5997164203E+00
    0.2700000000E+07    0.6172377930E+00    0.8524313013E-01    0.3678537318E-03    0.6291360474E-01    0.5997943111E+00
    0.2900000000E+07    0.6172331685E+00    0.8519645502E-01    0.3540003839E-03    0.6292126913E-01    0.5998656564E+00
    0.3100000000E+07    0.6172286856E+00    0.8515279791E-01    0.3415416377E-03    0.6292840645E-01    0.5999314296E+00
    0.3300000000E+07    0.6172243461E+00    0.8511179130E-01    0.3302599895E-03    0.6293508454E-01    0.5999924055E+00
    0.3500000000E+07    0.6172201482E+00    0.8507313111E-01    0.3199824945E-03    0.6294135895E-01    0.6000492108E+00
    0.3700000000E+07    0.6172160879E+00    0.8503656278E-01    0.3105696974E-03    0.6294727570E-01    0.6001023587E+00
    0.3900000000E+07    0.6172121604E+00    0.8500187114E-01    0.3019077451E-03    0.6295287340E-01    0.6001522750E+00
    0.4100000000E+07    0.6172083598E+00    0.8496887264E-01    0.2939026542E-03    0.6295818471E-01    0.6001993163E+00
    0.4300000000E+07    0.6172046805E+00    0.8493740941E-01    0.2864760720E-03    0.6296323752E-01    0.6002437843E+00
    0.4500000000E+07    0.6172011165E+00    0.8490734473E-01    0.2795620914E-03    0.6296805583E-01    0.6002859363E+00
    0.4700000000E+07    0.6171976620E+00    0.8487855939E-01    0.2731048239E-03    0.6297266045E-01    0.6003259934E+00
    0.4900000000E+07    0.6171943116E+00    0.8485094880E-01    0.2670565267E-03    0.6297706956E-01    0.6003641471E+00
    0.1000000000E+07    0.6172734297E+00    0.8587687621E-01    0.6269937569E-03    0.6280431800E-01    0.5986833322E+00
    0.3000000000E+07    0.6172309091E+00    0.8517427386E-01    0.3476114814E-03    0.6292489910E-01    0.5998991871E+00
    0.5000000000E+07    0.6171926737E+00    0.8483755478E-01    0.2641726830E-03    0.6297920585E-01    0.6003825631E+00
    0.7000000000E+07    0.6171642457E+00    0.8461374602E-01    0.2204690739E-03    0.6301468358E-01    0.6006821034E+00
    0.9000000000E+07    0.6171418467E+00    0.8444582398E-01    0.1926089709E-03    0.6304108224E-01    0.6008979690E+00
    0.1100000000E+08    0.6171234086E+00    0.8431137809E-01    0.1729115220E-03    0.6306211625E-01    0.6010661829E+00
    0.1300000000E+08    0.6171077528E+00    0.8419925546E-01    0.1580583442E-03    0.6307960314E-01    0.6012037142E+00
    0.1500000000E+08    0.6170941541E+00    0.8410309015E-01    0.1463531676E-03    0.6309456914E-01    0.6013198800E+00
    0.1700000000E+08    0.6170821364E+00    0.8401890298E-01    0.1368277513E-03    0.6310765081E-01    0.6014203347E+00
    0.1900000000E+08    0.6170713711E+00    0.8394403971E-01    0.1288842988E-03    0.6311927040E-01    0.6015087626E+00
    0.2100000000E+08    0.6170616223E+00    0.8387664104E-01    0.1221313472E-03    0.6312972238E-01    0.6015876956E+00
    0.2300000000E+08    0.6170527146E+00    0.8381535378E-01    0.1163005137E-03    0.6313922033E-01    0.6016589465E+00
    0.2500000000E+08    0.6170445147E+00    0.8375916228E-01    0.1112008990E-03    0.6314792409E-01    0.6017238574E+00
    0.2700000000E+08    0.6170369182E+00    0.8370728477E-01    0.1066925533E-03    0.6315595642E-01    0.6017834489E+00
