  Pressure (Pa) 22mC5-400 (mol/kg) 3mC6-400 (mol/kg) 33mC5-400 (mol/kg) 23mC5-400 (mol/kg) C7-400 (mol/kg)
    0.1000000000E+01    0.3706664212E-02    0.5267895458E-03    0.3874801865E-03    0.1859572718E-03    0.6838620485E-02
    0.3000000000E+01    0.1098586917E-01    0.1545619383E-02    0.1132543737E-02    0.5511489567E-03    0.2006686161E-01
    0.5000000000E+01    0.1809175489E-01    0.2520619647E-02    0.1839840963E-02    0.9076530450E-03    0.3272872411E-01
    0.7000000000E+01    0.2503065162E-01    0.3454571091E-02    0.2511710379E-02    0.1255786753E-02    0.4486008442E-01
    0.9000000000E+01    0.3180858242E-01    0.4350023845E-02    0.3150306487E-02    0.1595851905E-02    0.5649384594E-01
    0.1100000000E+02    0.3843128153E-01    0.5209320845E-02    0.3757617676E-02    0.1928135857E-02    0.6766024089E-01
    0.1300000000E+02    0.4490421150E-01    0.6034618460E-02    0.4335482038E-02    0.2252912349E-02    0.7838709617E-01
    0.1500000000E+02    0.5123257902E-01    0.6827904703E-02    0.4885601387E-02    0.2570442302E-02    0.8870006799E-01
    0.1700000000E+02    0.5742134968E-01    0.7591015355E-02    0.5409553722E-02    0.2880974559E-02    0.9862284966E-01
    0.1900000000E+02    0.6347526184E-01    0.8325648262E-02    0.5908804325E-02    0.3184746572E-02    0.1081773559E+00
    0.2100000000E+02    0.6939883935E-01    0.9033376061E-02    0.6384715671E-02    0.3481985050E-02    0.1173838866E+00
    0.2300000000E+02    0.7519640366E-01    0.9715657512E-02    0.6838556304E-02    0.3772906557E-02    0.1262612732E+00
    0.2500000000E+02    0.8087208491E-01    0.1037384763E-01    0.7271508792E-02    0.4057718074E-02    0.1348270093E+00
    0.2700000000E+02    0.8642983246E-01    0.1100920675E-01    0.7684676882E-02    0.4336617522E-02    0.1430973670E+00
    0.2900000000E+02    0.9187342466E-01    0.1162290865E-01    0.8079091941E-02    0.4609794252E-02    0.1510875023E+00
    0.3100000000E+02    0.9720647799E-01    0.1221604787E-01    0.8455718772E-02    0.4877429506E-02    0.1588115488E+00
    0.3300000000E+02    0.1024324557E+00    0.1278964629E-01    0.8815460875E-02    0.5139696846E-02    0.1662827031E+00
    0.3500000000E+02    0.1075546757E+00    0.1334465907E-01    0.9159165203E-02    0.5396762556E-02    0.1735133007E+00
    0.3700000000E+02    0.1125763183E+00    0.1388197998E-01    0.9487626488E-02    0.5648786020E-02    0.1805148854E+00
    0.3900000000E+02    0.1175004332E+00    0.1440244629E-01    0.9801591169E-02    0.5895920079E-02    0.1872982721E+00
    0.4100000000E+02    0.1223299461E+00    0.1490684317E-01    0.1010176097E-01    0.6138311361E-02    0.1938736030E+00
    0.4300000000E+02    0.1270676650E+00    0.1539590764E-01    0.1038879614E-01    0.6376100595E-02    0.2002503997E+00
    0.4500000000E+02    0.1317162860E+00    0.1587033227E-01    0.1066331848E-01    0.6609422906E-02    0.2064376096E+00
    0.4700000000E+02    0.1362783990E+00    0.1633076842E-01    0.1092591400E-01    0.6838408092E-02    0.2124436486E+00
    0.4900000000E+02    0.1407564928E+00    0.1677782931E-01    0.1117713547E-01    0.7063180883E-02    0.2182764404E+00
    0.1000000000E+02    0.3513898835E-01    0.4784052893E-02    0.3457754466E-02    0.1762949113E-02    0.6213367157E-01
    0.3000000000E+02    0.9455354874E-01    0.1192198309E-01    0.8269571038E-02    0.4744293540E-02    0.1549819408E+00
    0.5000000000E+02    0.1429647837E+00    0.1699652592E-01    0.1129864515E-01    0.7174025285E-02    0.2211302189E+00
    0.7000000000E+02    0.1832550878E+00    0.2079226863E-01    0.1324404569E-01    0.9196601522E-02    0.2707130706E+00
    0.9000000000E+02    0.2173694299E+00    0.2374030954E-01    0.1449702665E-01    0.1090950484E-01    0.3093031168E+00
    0.1100000000E+03    0.2466688548E+00    0.2609726492E-01    0.1529165088E-01    0.1238095574E-01    0.3402199377E+00
    0.1300000000E+03    0.2721353462E+00    0.2802548416E-01    0.1577495995E-01    0.1366017798E-01    0.3655651937E+00
    0.1500000000E+03    0.2944960690E+00    0.2963272736E-01    0.1604283890E-01    0.1478362435E-01    0.3867348692E+00
    0.1700000000E+03    0.3143016790E+00    0.3099335147E-01    0.1615967190E-01    0.1577890100E-01    0.4046929113E+00
    0.1900000000E+03    0.3319773479E+00    0.3216033602E-01    0.1616971651E-01    0.1666732452E-01    0.4201266211E+00
    0.2100000000E+03    0.3478569852E+00    0.3317245971E-01    0.1610397892E-01    0.1746563700E-01    0.4335394277E+00
    0.2300000000E+03    0.3622067819E+00    0.3405876600E-01    0.1598452063E-01    0.1818718602E-01    0.4453086408E+00
    0.2500000000E+03    0.3752417768E+00    0.3484144211E-01    0.1582723797E-01    0.1884275494E-01    0.4557227013E+00
    0.2700000000E+03    0.3871377507E+00    0.3553773261E-01    0.1564370160E-01    0.1944115905E-01    0.4650059499E+00
    0.2900000000E+03    0.3980399218E+00    0.3616124539E-01    0.1544240077E-01    0.1998968144E-01    0.4733355403E+00
    0.3100000000E+03    0.4080694069E+00    0.3672286401E-01    0.1522960066E-01    0.2049439684E-01    0.4808532573E+00
    0.3300000000E+03    0.4173280940E+00    0.3723139818E-01    0.1500994305E-01    0.2096041588E-01    0.4876739482E+00
    0.3500000000E+03    0.4259023669E+00    0.3769405616E-01    0.1478687315E-01    0.2139207179E-01    0.4938916482E+00
    0.3700000000E+03    0.4338659870E+00    0.3811679358E-01    0.1456294680E-01    0.2179306489E-01    0.4995841045E+00
    0.3900000000E+03    0.4412823489E+00    0.3850457470E-01    0.1434005420E-01    0.2216657564E-01    0.5048161673E+00
    0.4100000000E+03    0.4482062629E+00    0.3886157087E-01    0.1411958428E-01    0.2251535402E-01    0.5096423658E+00
    0.4300000000E+03    0.4546853789E+00    0.3919131309E-01    0.1390254677E-01    0.2284179092E-01    0.5141088901E+00
    0.4500000000E+03    0.4607613325E+00    0.3949681058E-01    0.1368966344E-01    0.2314797558E-01    0.5182551315E+00
    0.4700000000E+03    0.4664706752E+00    0.3978064397E-01    0.1348143681E-01    0.2343574227E-01    0.5221148938E+00
    0.4900000000E+03    0.4718456359E+00    0.4004503906E-01    0.1327820231E-01    0.2370670843E-01    0.5257173529E+00
    0.1000000000E+03    0.2325524906E+00    0.2498090568E-01    0.1494093140E-01    0.1167197740E-01    0.3255683845E+00
    0.3000000000E+03    0.4031569798E+00    0.3644919851E-01    0.1533711566E-01    0.2024717543E-01    0.4771881547E+00
    0.5000000000E+03    0.4744167690E+00    0.4017056059E-01    0.1317852618E-01    0.2383634533E-01    0.5274301384E+00
    0.7000000000E+03    0.5137398951E+00    0.4201677588E-01    0.1145822221E-01    0.2582090194E-01    0.5528569433E+00
    0.9000000000E+03    0.5386427570E+00    0.4311866499E-01    0.1017847108E-01    0.2708018497E-01    0.5683308128E+00
    0.1100000000E+04    0.5558044306E+00    0.4384929648E-01    0.9206393286E-02    0.2794972840E-01    0.5787903178E+00
    0.1300000000E+04    0.5683347204E+00    0.4436799421E-01    0.8445532338E-02    0.2858586600E-01    0.5863591046E+00
    0.1500000000E+04    0.5778774543E+00    0.4475432940E-01    0.7833395175E-02    0.2907129115E-01    0.5921049264E+00
    0.1700000000E+04    0.5853826056E+00    0.4505249816E-01    0.7329277225E-02    0.2945382472E-01    0.5966247673E+00
    0.1900000000E+04    0.5914369975E+00    0.4528902025E-01    0.6905930747E-02    0.2976302666E-01    0.6002791863E+00
    0.2100000000E+04    0.5964224373E+00    0.4548077384E-01    0.6544551575E-02    0.3001814248E-01    0.6032991417E+00
    0.2300000000E+04    0.6005979099E+00    0.4563901133E-01    0.6231783539E-02    0.3023223536E-01    0.6058395987E+00
    0.2500000000E+04    0.6041452050E+00    0.4577152187E-01    0.5957890811E-02    0.3041448085E-01    0.6080085122E+00
    0.2700000000E+04    0.6071956341E+00    0.4588386745E-01    0.5715611433E-02    0.3057151109E-01    0.6098834590E+00
    0.2900000000E+04    0.6098463838E+00    0.4598012487E-01    0.5499417505E-02    0.3070823793E-01    0.6115216608E+00
    0.3100000000E+04    0.6121709054E+00    0.4606334967E-01    0.5305024786E-02    0.3082837613E-01    0.6129662752E+00
    0.3300000000E+04    0.6142257322E+00    0.4613587644E-01    0.5129059518E-02    0.3093478668E-01    0.6142504843E+00
    0.3500000000E+04    0.6160550767E+00    0.4619951910E-01    0.4968826907E-02    0.3102970858E-01    0.6154002312E+00
    0.3700000000E+04    0.6176940088E+00    0.4625570799E-01    0.4822146930E-02    0.3111491900E-01    0.6164361012E+00
    0.3900000000E+04    0.6191706988E+00    0.4630558583E-01    0.4687235731E-02    0.3119184642E-01    0.6173746430E+00
    0.4100000000E+04    0.6205080324E+00    0.4635007630E-01    0.4562618482E-02    0.3126165211E-01    0.6182293167E+00
    0.4300000000E+04    0.6217247922E+00    0.4638993389E-01    0.4447064391E-02    0.3132528980E-01    0.6190111855E+00
    0.4500000000E+04    0.6228365370E+00    0.4642578079E-01    0.4339537536E-02    0.3138355003E-01    0.6197294293E+00
    0.4700000000E+04    0.6238562636E+00    0.4645813449E-01    0.4239159207E-02    0.3143709361E-01    0.6203917312E+00
    0.4900000000E+04    0.6247949129E+00    0.4648742881E-01    0.4145178717E-02    0.3148647720E-01    0.6210045721E+00
    0.1000000000E+04    0.5479481869E+00    0.4351770860E-01    0.9660955828E-02    0.2755145776E-01    0.5740186656E+00
    0.3000000000E+04    0.6110455556E+00    0.4602320626E-01    0.5399725085E-02    0.3077018493E-01    0.6122658960E+00
    0.5000000000E+04    0.6252367883E+00    0.4650104545E-01    0.4100382345E-02    0.3150975941E-01    0.6212941983E+00
    0.7000000000E+04    0.6314691517E+00    0.4667751671E-01    0.3422542585E-02    0.3184118407E-01    0.6254746151E+00
    0.9000000000E+04    0.6349664373E+00    0.4675709827E-01    0.2991265003E-02    0.3203085621E-01    0.6279285205E+00
    0.1100000000E+05    0.6372034209E+00    0.4679513861E-01    0.2686569433E-02    0.3215453690E-01    0.6295608913E+00
    0.1300000000E+05    0.6387566004E+00    0.4681238698E-01    0.2456846609E-02    0.3224205022E-01    0.6307345982E+00
    0.1500000000E+05    0.6398975471E+00    0.4681818990E-01    0.2275791561E-02    0.3230754229E-01    0.6316245844E+00
    0.1700000000E+05    0.6407709095E+00    0.4681729022E-01    0.2128416993E-02    0.3235859907E-01    0.6323260214E+00
    0.1900000000E+05    0.6414607833E+00    0.4681230422E-01    0.2005480465E-02    0.3239966056E-01    0.6328953274E+00
    0.2100000000E+05    0.6420193864E+00    0.4680476651E-01    0.1900934007E-02    0.3243350207E-01    0.6333681724E+00
    0.2300000000E+05    0.6424808514E+00    0.4679562004E-01    0.1810632974E-02    0.3246194970E-01    0.6337682692E+00
    0.2500000000E+05    0.6428684286E+00    0.4678546538E-01    0.1731629980E-02    0.3248625554E-01    0.6341120295E+00
    0.2700000000E+05    0.6431985020E+00    0.4677469578E-01    0.1661764481E-02    0.3250730763E-01    0.6344111929E+00
    0.2900000000E+05    0.6434829482E+00    0.4676357433E-01    0.1599412064E-02    0.3252575389E-01    0.6346743920E+00
    0.3100000000E+05    0.6437305865E+00    0.4675227980E-01    0.1543324888E-02    0.3254207856E-01    0.6349081249E+00
    0.3300000000E+05    0.6439481030E+00    0.4674093504E-01    0.1492526521E-02    0.3255665108E-01    0.6351173827E+00
    0.3500000000E+05    0.6441406580E+00    0.4672962497E-01    0.1446240567E-02    0.3256975841E-01    0.6353060662E+00
    0.3700000000E+05    0.6443122982E+00    0.4671840832E-01    0.1403840950E-02    0.3258162699E-01    0.6354772711E+00
    0.3900000000E+05    0.6444662410E+00    0.4670732553E-01    0.1364816497E-02    0.3259243802E-01    0.6356334878E+00
    0.4100000000E+05    0.6446050771E+00    0.4669640406E-01    0.1328745212E-02    0.3260233826E-01    0.6357767441E+00
    0.4300000000E+05    0.6447309153E+00    0.4668566207E-01    0.1295275245E-02    0.3261144798E-01    0.6359087089E+00
    0.4500000000E+05    0.6448454901E+00    0.4667511106E-01    0.1264110605E-02    0.3261986667E-01    0.6360307691E+00
    0.4700000000E+05    0.6449502408E+00    0.4666475765E-01    0.1235000263E-02    0.3262767740E-01    0.6361440876E+00
    0.4900000000E+05    0.6450463717E+00    0.4665460500E-01    0.1207729753E-02    0.3263495011E-01    0.6362496473E+00
    0.1000000000E+05    0.6361957627E+00    0.4677961113E-01    0.2827182554E-02    0.3209853370E-01    0.6288181856E+00
    0.3000000000E+05    0.6436109088E+00    0.4675793996E-01    0.1570651744E-02    0.3253415609E-01    0.6347946001E+00
    0.5000000000E+05    0.6450915285E+00    0.4664960421E-01    0.1194725766E-02    0.3263840361E-01    0.6362997841E+00
    0.7000000000E+05    0.6457214591E+00    0.4655955900E-01    0.9975445393E-03    0.3268982099E-01    0.6370454773E+00
    0.9000000000E+05    0.6460685513E+00    0.4648530806E-01    0.8717323412E-03    0.3272206349E-01    0.6375093685E+00
    0.1100000000E+06    0.6462875262E+00    0.4642260806E-01    0.7827263344E-03    0.3274490527E-01    0.6378339037E+00
    0.1300000000E+06    0.6464377783E+00    0.4636848086E-01    0.7155795900E-03    0.3276232208E-01    0.6380778546E+00
    0.1500000000E+06    0.6465469621E+00    0.4632091134E-01    0.6626458238E-03    0.3277626786E-01    0.6382703326E+00
    0.1700000000E+06    0.6466296819E+00    0.4627850179E-01    0.6195578597E-03    0.3278782853E-01    0.6384275807E+00
    0.1900000000E+06    0.6466943715E+00    0.4624025126E-01    0.5836180614E-03    0.3279766237E-01    0.6385594585E+00
    0.2100000000E+06    0.6467462376E+00    0.4620542120E-01    0.5530591838E-03    0.3280619512E-01    0.6386723400E+00
    0.2300000000E+06    0.6467886670E+00    0.4617345231E-01    0.5266692086E-03    0.3281371625E-01    0.6387705519E+00
    0.2500000000E+06    0.6468239560E+00    0.4614391137E-01    0.5035857813E-03    0.3282043064E-01    0.6388571485E+00
    0.2700000000E+06    0.6468537164E+00    0.4611645621E-01    0.4831765432E-03    0.3282648813E-01    0.6389343556E+00
    0.2900000000E+06    0.6468791117E+00    0.4609081204E-01    0.4649659487E-03    0.3283200126E-01    0.6390038395E+00
    0.3100000000E+06    0.6469010029E+00    0.4606675490E-01    0.4485886441E-03    0.3283705657E-01    0.6390668759E+00
    0.3300000000E+06    0.6469200403E+00    0.4604409986E-01    0.4337587242E-03    0.3284172193E-01    0.6391244604E+00
    0.3500000000E+06    0.6469367241E+00    0.4602269250E-01    0.4202488521E-03    0.3284605142E-01    0.6391773834E+00
    0.3700000000E+06    0.6469514451E+00    0.4600240258E-01    0.4078757101E-03    0.3285008883E-01    0.6392262813E+00
    0.3900000000E+06    0.6469645133E+00    0.4598311919E-01    0.3964896327E-03    0.3285387007E-01    0.6392716737E+00
    0.4100000000E+06    0.6469761772E+00    0.4596474718E-01    0.3859670731E-03    0.3285742491E-01    0.6393139893E+00
    0.4300000000E+06    0.6469866384E+00    0.4594720425E-01    0.3762050303E-03    0.3286077832E-01    0.6393535856E+00
    0.4500000000E+06    0.6469960626E+00    0.4593041877E-01    0.3671168635E-03    0.3286395140E-01    0.6393907636E+00
    0.4700000000E+06    0.6470045863E+00    0.4591432803E-01    0.3586291016E-03    0.3286696215E-01    0.6394257788E+00
    0.4900000000E+06    0.6470123238E+00    0.4589887677E-01    0.3506789812E-03    0.3286982607E-01    0.6394588495E+00
    0.1000000000E+06    0.6461892249E+00    0.4645272785E-01    0.8238111701E-03    0.3273434093E-01    0.6376843592E+00
    0.3000000000E+06    0.6468904506E+00    0.4607859745E-01    0.4565675840E-03    0.3283458153E-01    0.6390360959E+00
    0.5000000000E+06    0.6470159283E+00    0.4589137544E-01    0.3468883689E-03    0.3287120722E-01    0.6394747156E+00
    0.7000000000E+06    0.6470635826E+00    0.4576553395E-01    0.2894456015E-03    0.3289359758E-01    0.6397244344E+00
    0.9000000000E+06    0.6470866635E+00    0.4567061007E-01    0.2528305635E-03    0.3290970353E-01    0.6398954741E+00
    0.1100000000E+07    0.6470991874E+00    0.4559436917E-01    0.2269455825E-03    0.3292227349E-01    0.6400241755E+00
    0.1300000000E+07    0.6471063556E+00    0.4553065388E-01    0.2074282022E-03    0.3293257817E-01    0.6401267036E+00
    0.1500000000E+07    0.6471105077E+00    0.4547592494E-01    0.1920485175E-03    0.3294130831E-01    0.6402115665E+00
    0.1700000000E+07    0.6471128363E+00    0.4542795935E-01    0.1795337315E-03    0.3294888081E-01    0.6402837600E+00
    0.1900000000E+07    0.6471140048E+00    0.4538526902E-01    0.1690980428E-03    0.3295556648E-01    0.6403464527E+00
    0.2100000000E+07    0.6471144075E+00    0.4534680870E-01    0.1602268946E-03    0.3296155113E-01    0.6404017739E+00
    0.2300000000E+07    0.6471142906E+00    0.4531181598E-01    0.1525675257E-03    0.3296696774E-01    0.6404512192E+00
    0.2500000000E+07    0.6471138142E+00    0.4527971766E-01    0.1458690279E-03    0.3297191476E-01    0.6404958777E+00
    0.2700000000E+07    0.6471130858E+00    0.4525007187E-01    0.1399474650E-03    0.3297646710E-01    0.6405365656E+00
    0.2900000000E+07    0.6471121793E+00    0.4522253077E-01    0.1346645488E-03    0.3298068307E-01    0.6405739098E+00
    0.3100000000E+07    0.6471111470E+00    0.4519681563E-01    0.1299140590E-03    0.3298460895E-01    0.6406084015E+00
    0.3300000000E+07    0.6471100262E+00    0.4517269969E-01    0.1256128906E-03    0.3298828210E-01    0.6406404327E+00
    0.3500000000E+07    0.6471088442E+00    0.4514999593E-01    0.1216949750E-03    0.3299173310E-01    0.6406703209E+00
    0.3700000000E+07    0.6471076208E+00    0.4512854835E-01    0.1181070454E-03    0.3299498727E-01    0.6406983267E+00
    0.3900000000E+07    0.6471063711E+00    0.4510822543E-01    0.1148056202E-03    0.3299806587E-01    0.6407246664E+00
    0.4100000000E+07    0.6471051061E+00    0.4508891529E-01    0.1117548108E-03    0.3300098688E-01    0.6407495217E+00
    0.4300000000E+07    0.6471038343E+00    0.4507052193E-01    0.1089247010E-03    0.3300376565E-01    0.6407730463E+00
    0.4500000000E+07    0.6471025621E+00    0.4505296241E-01    0.1062901292E-03    0.3300641540E-01    0.6407953718E+00
    0.4700000000E+07    0.6471012942E+00    0.4503616453E-01    0.1038297610E-03    0.3300894757E-01    0.6408166111E+00
    0.4900000000E+07    0.6471000344E+00    0.4502006509E-01    0.1015253731E-03    0.3301137216E-01    0.6408368623E+00
    0.1000000000E+07    0.6470938185E+00    0.4563062426E-01    0.2388920562E-03    0.3291633171E-01    0.6399638481E+00
    0.3000000000E+07    0.6471116763E+00    0.4520946018E-01    0.1322284042E-03    0.3298267975E-01    0.6405914857E+00
    0.5000000000E+07    0.6470994084E+00    0.4501225963E-01    0.1004266876E-03    0.3301254690E-01    0.6408466446E+00
    0.7000000000E+07    0.6470876894E+00    0.4488222948E-01    0.8378079978E-04    0.3303205417E-01    0.6410064190E+00
    0.9000000000E+07    0.6470776223E+00    0.4478510244E-01    0.7317384253E-04    0.3304656718E-01    0.6411223165E+00
    0.1100000000E+08    0.6470689582E+00    0.4470756687E-01    0.6567684094E-04    0.3305812963E-01    0.6412130483E+00
    0.1300000000E+08    0.6470613977E+00    0.4464304315E-01    0.6002492475E-04    0.3306774137E-01    0.6412874905E+00
    0.1500000000E+08    0.6470547074E+00    0.4458779320E-01    0.5557172850E-04    0.3307596689E-01    0.6413505426E+00
    0.1700000000E+08    0.6470487147E+00    0.4453948853E-01    0.5194839385E-04    0.3308315632E-01    0.6414051909E+00
    0.1900000000E+08    0.6470432911E+00    0.4449658018E-01    0.4892723181E-04    0.3308954186E-01    0.6414533880E+00
    0.2100000000E+08    0.6470383398E+00    0.4445798544E-01    0.4635916728E-04    0.3309528546E-01    0.6414964798E+00
    0.2300000000E+08    0.6470337860E+00    0.4442291779E-01    0.4414201107E-04    0.3310050458E-01    0.6415354325E+00
    0.2500000000E+08    0.6470295712E+00    0.4439078780E-01    0.4220308593E-04    0.3310528709E-01    0.6415709629E+00
    0.2700000000E+08    0.6470256487E+00    0.4436114237E-01    0.4048911770E-04    0.3310970051E-01    0.6416036174E+00
