  Pressure (Pa) 22mC5-400 (mol/kg) 3mC6-400 (mol/kg) 33mC5-400 (mol/kg) 23mC5-400 (mol/kg) C7-400 (mol/kg)
    0.1000000000E+01    0.3705116905E-02    0.5295202931E-03    0.2593278149E-03    0.5576391796E-03    0.3436948685E-02
    0.3000000000E+01    0.1097226439E-01    0.1569362214E-02    0.7637594927E-03    0.1651401393E-02    0.1018679857E-01
    0.5000000000E+01    0.1805482330E-01    0.2584374817E-02    0.1249921420E-02    0.2717406434E-02    0.1677621256E-01
    0.7000000000E+01    0.2495989024E-01    0.3575442384E-02    0.1718609156E-02    0.3756721141E-02    0.2321089602E-01
    0.9000000000E+01    0.3169420060E-01    0.4543407634E-02    0.2170576165E-02    0.4770358056E-02    0.2949628632E-01
    0.1100000000E+02    0.3826415122E-01    0.5489074137E-02    0.2606536469E-02    0.5759278836E-02    0.3563756843E-01
    0.1300000000E+02    0.4467582136E-01    0.6413208561E-02    0.3027167096E-02    0.6724397402E-02    0.4163968940E-01
    0.1500000000E+02    0.5093499214E-01    0.7316542769E-02    0.3433110357E-02    0.7666582861E-02    0.4750737184E-01
    0.1700000000E+02    0.5704716460E-01    0.8199775770E-02    0.3824975960E-02    0.8586662219E-02    0.5324512655E-01
    0.1900000000E+02    0.6301757642E-01    0.9063575543E-02    0.4203342971E-02    0.9485422895E-02    0.5885726424E-01
    0.2100000000E+02    0.6885121749E-01    0.9908580745E-02    0.4568761643E-02    0.1036361507E-01    0.6434790652E-01
    0.2300000000E+02    0.7455284441E-01    0.1073540230E-01    0.4921755110E-02    0.1122195383E-01    0.6972099618E-01
    0.2500000000E+02    0.8012699391E-01    0.1154462488E-01    0.5262820979E-02    0.1206112126E-01    0.7498030674E-01
    0.2700000000E+02    0.8557799547E-01    0.1233680831E-01    0.5592432799E-02    0.1288176824E-01    0.8012945153E-01
    0.2900000000E+02    0.9090998299E-01    0.1311248890E-01    0.5911041438E-02    0.1368451629E-01    0.8517189202E-01
    0.3100000000E+02    0.9612690571E-01    0.1387218060E-01    0.6219076372E-02    0.1446995915E-01    0.9011094577E-01
    0.3300000000E+02    0.1012325384E+00    0.1461637622E-01    0.6516946886E-02    0.1523866434E-01    0.9494979383E-01
    0.3500000000E+02    0.1062304910E+00    0.1534554849E-01    0.6805043193E-02    0.1599117459E-01    0.9969148770E-01
    0.3700000000E+02    0.1111242174E+00    0.1606015103E-01    0.7083737485E-02    0.1672800919E-01    0.1043389558E+00
    0.3900000000E+02    0.1159170237E+00    0.1676061939E-01    0.7353384922E-02    0.1744966523E-01    0.1088950098E+00
    0.4100000000E+02    0.1206120764E+00    0.1744737184E-01    0.7614324545E-02    0.1815661878E-01    0.1133623502E+00
    0.4300000000E+02    0.1252124095E+00    0.1812081031E-01    0.7866880146E-02    0.1884932598E-01    0.1177435717E+00
    0.4500000000E+02    0.1297209311E+00    0.1878132112E-01    0.8111361073E-02    0.1952822409E-01    0.1220411688E+00
    0.4700000000E+02    0.1341404303E+00    0.1942927577E-01    0.8348062993E-02    0.2019373247E-01    0.1262575399E+00
    0.4900000000E+02    0.1384735830E+00    0.2006503162E-01    0.8577268605E-02    0.2084625345E-01    0.1303949924E+00
    0.1000000000E+02    0.3499933372E-01    0.5018979473E-02    0.2390514001E-02    0.5267849760E-02    0.3258462630E-01
    0.3000000000E+02    0.9353258755E-01    0.1349430207E-01    0.6066354578E-02    0.1407936480E-01    0.8765414031E-01
    0.5000000000E+02    0.1406085862E+00    0.2037844297E-01    0.8689145259E-02    0.2116776496E-01    0.1324348215E+00
    0.7000000000E+02    0.1793484336E+00    0.2608337070E-01    0.1059295102E-01    0.2700230758E-01    0.1695863083E+00
    0.9000000000E+02    0.2118253966E+00    0.3088991260E-01    0.1199196811E-01    0.3189473096E-01    0.2009222657E+00
    0.1100000000E+03    0.2394715212E+00    0.3499611592E-01    0.1302832404E-01    0.3606037445E-01    0.2277222092E+00
    0.1300000000E+03    0.2633085946E+00    0.3854567510E-01    0.1379905958E-01    0.3965289726E-01    0.2509148396E+00
    0.1500000000E+03    0.2840859387E+00    0.4164539499E-01    0.1437205520E-01    0.4278499257E-01    0.2711906923E+00
    0.1700000000E+03    0.3023660855E+00    0.4437632578E-01    0.1479579092E-01    0.4554126772E-01    0.2890739804E+00
    0.1900000000E+03    0.3185799641E+00    0.4680109286E-01    0.1510552123E-01    0.4798654107E-01    0.3049698981E+00
    0.2100000000E+03    0.3330635516E+00    0.4896885712E-01    0.1532729115E-01    0.5017135243E-01    0.3191966391E+00
    0.2300000000E+03    0.3460828734E+00    0.5091875377E-01    0.1548061186E-01    0.5213572192E-01    0.3320075985E+00
    0.2500000000E+03    0.3578514629E+00    0.5268232789E-01    0.1558028159E-01    0.5391177529E-01    0.3436071012E+00
    0.2700000000E+03    0.3685428127E+00    0.5428529235E-01    0.1563764834E-01    0.5552561612E-01    0.3541617561E+00
    0.2900000000E+03    0.3782994219E+00    0.5574881842E-01    0.1566150046E-01    0.5699868635E-01    0.3638087947E+00
    0.3100000000E+03    0.3872394816E+00    0.5709049793E-01    0.1565870448E-01    0.5834877154E-01    0.3726622884E+00
    0.3300000000E+03    0.3954618899E+00    0.5832507051E-01    0.1563466811E-01    0.5959075517E-01    0.3808178486E+00
    0.3500000000E+03    0.4030500669E+00    0.5946498031E-01    0.1559368068E-01    0.6073719228E-01    0.3883562263E+00
    0.3700000000E+03    0.4100748925E+00    0.6052080705E-01    0.1553916637E-01    0.6179875139E-01    0.3953460992E+00
    0.3900000000E+03    0.4165969953E+00    0.6150160337E-01    0.1547387440E-01    0.6278455869E-01    0.4018462532E+00
    0.4100000000E+03    0.4226685546E+00    0.6241516142E-01    0.1540002351E-01    0.6370246913E-01    0.4079073076E+00
    0.4300000000E+03    0.4283347325E+00    0.6326822536E-01    0.1531941245E-01    0.6455928182E-01    0.4135730893E+00
    0.4500000000E+03    0.4336348225E+00    0.6406666225E-01    0.1523350538E-01    0.6536091281E-01    0.4188817397E+00
    0.4700000000E+03    0.4386031788E+00    0.6481560054E-01    0.1514349824E-01    0.6611253484E-01    0.4238666105E+00
    0.4900000000E+03    0.4432699724E+00    0.6551954303E-01    0.1505037084E-01    0.6681869114E-01    0.4285569952E+00
    0.1000000000E+03    0.2261807778E+00    0.3302054562E-01    0.1254858229E-01    0.3405764267E-01    0.2148245459E+00
    0.3000000000E+03    0.3828649368E+00    0.5643390815E-01    0.1566306580E-01    0.5768811131E-01    0.3683283730E+00
    0.5000000000E+03    0.4454987230E+00    0.6585590010E-01    0.1500289440E-01    0.6715599064E-01    0.4307999501E+00
    0.7000000000E+03    0.4792944706E+00    0.7097412861E-01    0.1402245062E-01    0.7227605846E-01    0.4651049210E+00
    0.9000000000E+03    0.5004206966E+00    0.7419834476E-01    0.1311848222E-01    0.7548379054E-01    0.4869445851E+00
    0.1100000000E+04    0.5148618451E+00    0.7641876477E-01    0.1233615866E-01    0.7768133961E-01    0.5021416545E+00
    0.1300000000E+04    0.5253490699E+00    0.7804199664E-01    0.1166390324E-01    0.7928074232E-01    0.5133655940E+00
    0.1500000000E+04    0.5333059906E+00    0.7928062549E-01    0.1108275471E-01    0.8049693616E-01    0.5220171799E+00
    0.1700000000E+04    0.5395470535E+00    0.8025679017E-01    0.1057575781E-01    0.8145297815E-01    0.5289041216E+00
    0.1900000000E+04    0.5445716043E+00    0.8104574168E-01    0.1012927832E-01    0.8222437225E-01    0.5345258327E+00
    0.2100000000E+04    0.5487026865E+00    0.8169641179E-01    0.9732626259E-02    0.8286000084E-01    0.5392082034E+00
    0.2300000000E+04    0.5521584571E+00    0.8224201449E-01    0.9377431330E-02    0.8339289958E-01    0.5431732166E+00
    0.2500000000E+04    0.5550915127E+00    0.8270589870E-01    0.9057093147E-02    0.8384619349E-01    0.5465774648E+00
    0.2700000000E+04    0.5576117698E+00    0.8310496374E-01    0.8766354605E-02    0.8423655202E-01    0.5495346771E+00
    0.2900000000E+04    0.5598003949E+00    0.8345174591E-01    0.8500983069E-02    0.8457629366E-01    0.5521295092E+00
    0.3100000000E+04    0.5617186173E+00    0.8375574320E-01    0.8257534223E-02    0.8487471795E-01    0.5544263182E+00
    0.3300000000E+04    0.5634134899E+00    0.8402428442E-01    0.8033176687E-02    0.8513897666E-01    0.5564749315E+00
    0.3500000000E+04    0.5649217638E+00    0.8426311573E-01    0.7825560770E-02    0.8537465981E-01    0.5583145479E+00
    0.3700000000E+04    0.5662725578E+00    0.8447680641E-01    0.7632719309E-02    0.8558619987E-01    0.5599764427E+00
    0.3900000000E+04    0.5674892406E+00    0.8466903581E-01    0.7452991967E-02    0.8577715662E-01    0.5614858838E+00
    0.4100000000E+04    0.5685907816E+00    0.8484280004E-01    0.7284966838E-02    0.8595042185E-01    0.5628635156E+00
    0.4300000000E+04    0.5695927387E+00    0.8500056367E-01    0.7127434946E-02    0.8610836905E-01    0.5641263760E+00
    0.4500000000E+04    0.5705079917E+00    0.8514437262E-01    0.6979354442E-02    0.8625296458E-01    0.5652886558E+00
    0.4700000000E+04    0.5713472939E+00    0.8527593948E-01    0.6839822179E-02    0.8638585139E-01    0.5663622724E+00
    0.4900000000E+04    0.5721196936E+00    0.8539670870E-01    0.6708050941E-02    0.8650841292E-01    0.5673573106E+00
    0.1000000000E+04    0.5082624942E+00    0.7540212869E-01    0.1271243511E-01    0.7667649751E-01    0.4951642240E+00
    0.3000000000E+04    0.5607900859E+00    0.8360859172E-01    0.8376707917E-02    0.8473018110E-01    0.5533117646E+00
    0.5000000000E+04    0.5724832478E+00    0.8545343494E-01    0.6644856804E-02    0.8656619545E-01    0.5678280988E+00
    0.7000000000E+04    0.5776063652E+00    0.8624015490E-01    0.5658711716E-02    0.8738882527E-01    0.5746622251E+00
    0.9000000000E+04    0.5804761160E+00    0.8666173533E-01    0.5002918646E-02    0.8785978858E-01    0.5787082448E+00
    0.1100000000E+05    0.5823085242E+00    0.8691613169E-01    0.4527043160E-02    0.8816701300E-01    0.5814140636E+00
    0.1300000000E+05    0.5835785294E+00    0.8708098996E-01    0.4161762307E-02    0.8838447003E-01    0.5833667684E+00
    0.1500000000E+05    0.5845097406E+00    0.8719281883E-01    0.3870133815E-02    0.8854725256E-01    0.5848514749E+00
    0.1700000000E+05    0.5852212055E+00    0.8727095660E-01    0.3630440119E-02    0.8867418440E-01    0.5860241031E+00
    0.1900000000E+05    0.5857821054E+00    0.8732655313E-01    0.3428972774E-02    0.8877628599E-01    0.5869774497E+00
    0.2100000000E+05    0.5862353778E+00    0.8736645924E-01    0.3256598301E-02    0.8886044767E-01    0.5877703679E+00
    0.2300000000E+05    0.5866090760E+00    0.8739509797E-01    0.3106967018E-02    0.8893120421E-01    0.5884420816E+00
    0.2500000000E+05    0.5869222998E+00    0.8741544048E-01    0.2975510219E-02    0.8899166557E-01    0.5890197941E+00
    0.2700000000E+05    0.5871885013E+00    0.8742954846E-01    0.2858846038E-02    0.8904403794E-01    0.5895229992E+00
    0.2900000000E+05    0.5874174270E+00    0.8743889177E-01    0.2754410767E-02    0.8908993124E-01    0.5899660531E+00
    0.3100000000E+05    0.5876163101E+00    0.8744454253E-01    0.2660221056E-02    0.8913054883E-01    0.5903597770E+00
    0.3300000000E+05    0.5877906313E+00    0.8744729817E-01    0.2574715427E-02    0.8916680895E-01    0.5907124912E+00
    0.3500000000E+05    0.5879446182E+00    0.8744776193E-01    0.2496645635E-02    0.8919942492E-01    0.5910307056E+00
    0.3700000000E+05    0.5880815839E+00    0.8744639689E-01    0.2425000344E-02    0.8922895969E-01    0.5913195914E+00
    0.3900000000E+05    0.5882041614E+00    0.8744356312E-01    0.2358950365E-02    0.8925586374E-01    0.5915833118E+00
    0.4100000000E+05    0.5883144689E+00    0.8743954385E-01    0.2297808589E-02    0.8928050207E-01    0.5918252591E+00
    0.4300000000E+05    0.5884142302E+00    0.8743456406E-01    0.2241000186E-02    0.8930317370E-01    0.5920482272E+00
    0.4500000000E+05    0.5885048617E+00    0.8742880408E-01    0.2188040102E-02    0.8932412605E-01    0.5922545394E+00
    0.4700000000E+05    0.5885875382E+00    0.8742240963E-01    0.2138515825E-02    0.8934356575E-01    0.5924461448E+00
    0.4900000000E+05    0.5886632423E+00    0.8741549930E-01    0.2092074025E-02    0.8936166678E-01    0.5926246917E+00
    0.1000000000E+05    0.5814835053E+00    0.8680354092E-01    0.4747904897E-02    0.8802788651E-01    0.5801815220E+00
    0.3000000000E+05    0.5875202471E+00    0.8744212354E-01    0.2706141231E-02    0.8911083652E-01    0.5901685121E+00
    0.5000000000E+05    0.5886987435E+00    0.8741188173E-01    0.2069912199E-02    0.8937026230E-01    0.5927095153E+00
    0.7000000000E+05    0.5891887231E+00    0.8732863993E-01    0.1732664842E-02    0.8949824381E-01    0.5939727631E+00
    0.9000000000E+05    0.5894523405E+00    0.8724256478E-01    0.1516385469E-02    0.8957850278E-01    0.5947603311E+00
    0.1100000000E+06    0.5896145793E+00    0.8716210623E-01    0.1362910256E-02    0.8963536264E-01    0.5953122065E+00
    0.1300000000E+06    0.5897230606E+00    0.8708845383E-01    0.1246888807E-02    0.8967871882E-01    0.5957275989E+00
    0.1500000000E+06    0.5897997910E+00    0.8702118376E-01    0.1155288942E-02    0.8971343488E-01    0.5960557166E+00
    0.1700000000E+06    0.5898563042E+00    0.8695954597E-01    0.1080641850E-02    0.8974221392E-01    0.5963240448E+00
    0.1900000000E+06    0.5898992097E+00    0.8690279839E-01    0.1018322296E-02    0.8976669456E-01    0.5965492819E+00
    0.2100000000E+06    0.5899325565E+00    0.8685028925E-01    0.9652943038E-03    0.8978793653E-01    0.5967422306E+00
    0.2300000000E+06    0.5899589576E+00    0.8680146699E-01    0.9194724616E-03    0.8980666044E-01    0.5969102288E+00
    0.2500000000E+06    0.5899801708E+00    0.8675586997E-01    0.8793710849E-03    0.8982337626E-01    0.5970584593E+00
    0.2700000000E+06    0.5899974197E+00    0.8671311203E-01    0.8438995577E-03    0.8983845693E-01    0.5971907016E+00
    0.2900000000E+06    0.5900115808E+00    0.8667286892E-01    0.8122369653E-03    0.8985218264E-01    0.5973097859E+00
    0.3100000000E+06    0.5900232970E+00    0.8663486680E-01    0.7837521147E-03    0.8986476879E-01    0.5974178802E+00
    0.3300000000E+06    0.5900330500E+00    0.8659887292E-01    0.7579507293E-03    0.8987638427E-01    0.5975166773E+00
    0.3500000000E+06    0.5900412072E+00    0.8656468816E-01    0.7344395476E-03    0.8988716374E-01    0.5976075214E+00
    0.3700000000E+06    0.5900480531E+00    0.8653214104E-01    0.7129012837E-03    0.8989721619E-01    0.5976914958E+00
    0.3900000000E+06    0.5900538114E+00    0.8650108297E-01    0.6930767720E-03    0.8990663098E-01    0.5977694846E+00
    0.4100000000E+06    0.5900586599E+00    0.8647138445E-01    0.6747519812E-03    0.8991548223E-01    0.5978422178E+00
    0.4300000000E+06    0.5900627416E+00    0.8644293199E-01    0.6577484032E-03    0.8992383207E-01    0.5979103045E+00
    0.4500000000E+06    0.5900661728E+00    0.8641562560E-01    0.6419158291E-03    0.8993173304E-01    0.5979742574E+00
    0.4700000000E+06    0.5900690485E+00    0.8638937678E-01    0.6271268399E-03    0.8993922996E-01    0.5980345119E+00
    0.4900000000E+06    0.5900714476E+00    0.8636410683E-01    0.6132725536E-03    0.8994636135E-01    0.5980914407E+00
    0.1000000000E+06    0.5895422533E+00    0.8720149275E-01    0.1433799943E-02    0.8960906480E-01    0.5950578058E+00
    0.3000000000E+06    0.5900177112E+00    0.8665360315E-01    0.7976309383E-03    0.8985860668E-01    0.5973650916E+00
    0.5000000000E+06    0.5900724892E+00    0.8635181666E-01    0.6066661343E-03    0.8994980058E-01    0.5981187599E+00
    0.7000000000E+06    0.5900795953E+00    0.8614372254E-01    0.5064977962E-03    0.9000555943E-01    0.5985493672E+00
    0.9000000000E+06    0.5900745554E+00    0.8598473378E-01    0.4425956714E-03    0.9004567356E-01    0.5988450203E+00
    0.1100000000E+07    0.5900656521E+00    0.8585602315E-01    0.3973953953E-03    0.9007698425E-01    0.5990678960E+00
    0.1300000000E+07    0.5900555517E+00    0.8574786885E-01    0.3633006268E-03    0.9010265465E-01    0.5992457042E+00
    0.1500000000E+07    0.5900452601E+00    0.8565459183E-01    0.3364256669E-03    0.9012440433E-01    0.5993930523E+00
    0.1700000000E+07    0.5900351849E+00    0.8557258467E-01    0.3145514551E-03    0.9014327118E-01    0.5995185281E+00
    0.1900000000E+07    0.5900254900E+00    0.8549941217E-01    0.2963074274E-03    0.9015992946E-01    0.5996275853E+00
    0.2100000000E+07    0.5900162325E+00    0.8543335256E-01    0.2807958185E-03    0.9017484181E-01    0.5997238917E+00
    0.2300000000E+07    0.5900074208E+00    0.8537314337E-01    0.2674009849E-03    0.9018833938E-01    0.5998100262E+00
    0.2500000000E+07    0.5899990409E+00    0.8531783127E-01    0.2556849366E-03    0.9020066729E-01    0.5998878682E+00
    0.2700000000E+07    0.5899910691E+00    0.8526667864E-01    0.2453265258E-03    0.9021201208E-01    0.5999588271E+00
    0.2900000000E+07    0.5899834785E+00    0.8521910302E-01    0.2360842623E-03    0.9022251899E-01    0.6000239861E+00
    0.3100000000E+07    0.5899762415E+00    0.8517463642E-01    0.2277726262E-03    0.9023230326E-01    0.6000841948E+00
    0.3300000000E+07    0.5899693316E+00    0.8513289712E-01    0.2202464491E-03    0.9024145793E-01    0.6001401311E+00
    0.3500000000E+07    0.5899627241E+00    0.8509356972E-01    0.2133903074E-03    0.9025005915E-01    0.6001923446E+00
    0.3700000000E+07    0.5899563963E+00    0.8505639055E-01    0.2071111314E-03    0.9025817003E-01    0.6002412865E+00
    0.3900000000E+07    0.5899503274E+00    0.8502113701E-01    0.2013329404E-03    0.9026584349E-01    0.6002873317E+00
    0.4100000000E+07    0.5899444984E+00    0.8498761939E-01    0.1959930158E-03    0.9027312431E-01    0.6003307950E+00
    0.4300000000E+07    0.5899388923E+00    0.8495567471E-01    0.1910390713E-03    0.9028005074E-01    0.6003719432E+00
    0.4500000000E+07    0.5899334935E+00    0.8492516196E-01    0.1864271268E-03    0.9028665568E-01    0.6004110041E+00
    0.4700000000E+07    0.5899282878E+00    0.8489595827E-01    0.1821198889E-03    0.9029296768E-01    0.6004481741E+00
    0.4900000000E+07    0.5899232625E+00    0.8486795593E-01    0.1780854999E-03    0.9029901163E-01    0.6004836232E+00
    0.1000000000E+07    0.5900703592E+00    0.8591733171E-01    0.4182588356E-03    0.9006218341E-01    0.5989633810E+00
    0.3000000000E+07    0.5899798175E+00    0.8519650670E-01    0.2318219911E-03    0.9022749519E-01    0.6000546634E+00
    0.5000000000E+07    0.5899208138E+00    0.8485437517E-01    0.1761619100E-03    0.9030194002E-01    0.6005007496E+00
    0.7000000000E+07    0.5898789768E+00    0.8462773964E-01    0.1470119628E-03    0.9035057141E-01    0.6007807372E+00
    0.9000000000E+07    0.5898466589E+00    0.8445801914E-01    0.1284308384E-03    0.9038675653E-01    0.6009841290E+00
    0.1100000000E+08    0.5898203459E+00    0.8432230358E-01    0.1152943736E-03    0.9041558763E-01    0.6011435184E+00
    0.1300000000E+08    0.5897981593E+00    0.8420922468E-01    0.1053889554E-03    0.9043955634E-01    0.6012743921E+00
    0.1500000000E+08    0.5897789813E+00    0.8411230648E-01    0.9758311250E-04    0.9046006947E-01    0.6013853088E+00
    0.1700000000E+08    0.5897620934E+00    0.8402750714E-01    0.9123102429E-04    0.9047799968E-01    0.6014814902E+00
    0.1900000000E+08    0.5897470071E+00    0.8395213371E-01    0.8593397247E-04    0.9049392575E-01    0.6015663531E+00
    0.2100000000E+08    0.5897333749E+00    0.8388430161E-01    0.8143086687E-04    0.9050825136E-01    0.6016422542E+00
    0.2300000000E+08    0.5897209411E+00    0.8382264030E-01    0.7754271135E-04    0.9052126928E-01    0.6017108864E+00
    0.2500000000E+08    0.5897095118E+00    0.8376612181E-01    0.7414218953E-04    0.9053319861E-01    0.6017735062E+00
    0.2700000000E+08    0.5896989368E+00    0.8371395534E-01    0.7113596640E-04    0.9054420761E-01    0.6018310717E+00
