  Pressure (Pa) 22mC5-400 (mol/kg) 3mC6-400 (mol/kg) 33mC5-400 (mol/kg) 23mC5-400 (mol/kg) C7-400 (mol/kg)
    0.1000000000E+01    0.3706401135E-02    0.2118295926E-02    0.3242660490E-03    0.2789161362E-03    0.1718647663E-02
    0.3000000000E+01    0.1098354541E-01    0.6279340119E-02    0.9556283073E-03    0.8265487927E-03    0.5094925697E-02
    0.5000000000E+01    0.1808541827E-01    0.1034264131E-01    0.1564908554E-02    0.1361003334E-02    0.8392256469E-02
    0.7000000000E+01    0.2501845651E-01    0.1431163671E-01    0.2153036033E-02    0.1882763588E-02    0.1161341211E-01
    0.9000000000E+01    0.3178878330E-01    0.1818960387E-01    0.2720892403E-02    0.2392289813E-02    0.1476103608E-01
    0.1100000000E+02    0.3840222699E-01    0.2197966979E-01    0.3269314630E-02    0.2890020113E-02    0.1783765051E-01
    0.1300000000E+02    0.4486433867E-01    0.2568481955E-01    0.3799097688E-02    0.3376371748E-02    0.2084566313E-01
    0.1500000000E+02    0.5118040840E-01    0.2930790419E-01    0.4310997057E-02    0.3851742363E-02    0.2378737366E-01
    0.1700000000E+02    0.5735548035E-01    0.3285164824E-01    0.4805731061E-02    0.4316511125E-02    0.2666497985E-01
    0.1900000000E+02    0.6339436694E-01    0.3631865659E-01    0.5283983035E-02    0.4771039777E-02    0.2948058300E-01
    0.2100000000E+02    0.6930166195E-01    0.3971142104E-01    0.5746403349E-02    0.5215673636E-02    0.3223619327E-01
    0.2300000000E+02    0.7508175281E-01    0.4303232635E-01    0.6193611298E-02    0.5650742506E-02    0.3493373454E-01
    0.2500000000E+02    0.8073883207E-01    0.4628365595E-01    0.6626196859E-02    0.6076561543E-02    0.3757504900E-01
    0.2700000000E+02    0.8627690805E-01    0.4946759724E-01    0.7044722346E-02    0.6493432062E-02    0.4016190145E-01
    0.2900000000E+02    0.9169981489E-01    0.5258624663E-01    0.7449723938E-02    0.6901642280E-02    0.4269598331E-01
    0.3100000000E+02    0.9701122191E-01    0.5564161420E-01    0.7841713126E-02    0.7301468031E-02    0.4517891641E-01
    0.3300000000E+02    0.1022146424E+00    0.5863562808E-01    0.8221178058E-02    0.7693173416E-02    0.4761225656E-01
    0.3500000000E+02    0.1073134416E+00    0.6157013866E-01    0.8588584798E-02    0.8077011423E-02    0.4999749682E-01
    0.3700000000E+02    0.1123108450E+00    0.6444692239E-01    0.8944378514E-02    0.8453224510E-02    0.5233607071E-01
    0.3900000000E+02    0.1172099448E+00    0.6726768549E-01    0.9288984583E-02    0.8822045143E-02    0.5462935508E-01
    0.4100000000E+02    0.1220137073E+00    0.7003406739E-01    0.9622809634E-02    0.9183696307E-02    0.5687867294E-01
    0.4300000000E+02    0.1267249790E+00    0.7274764392E-01    0.9946242525E-02    0.9538391987E-02    0.5908529606E-01
    0.4500000000E+02    0.1313464925E+00    0.7540993045E-01    0.1025965526E-01    0.9886337620E-02    0.6125044739E-01
    0.4700000000E+02    0.1358808724E+00    0.7802238468E-01    0.1056340386E-01    0.1022773051E-01    0.6337530345E-01
    0.4900000000E+02    0.1403306406E+00    0.8058640942E-01    0.1085782915E-01    0.1056276025E-01    0.6546099645E-01
    0.1000000000E+02    0.3511476228E-01    0.2009543469E-01    0.2997482145E-02    0.2642602901E-02    0.1630806640E-01
    0.3000000000E+02    0.9436923274E-01    0.5412171826E-01    0.7647314042E-02    0.7102586441E-02    0.4394374471E-01
    0.5000000000E+02    0.1425245565E+00    0.8185068473E-01    0.1100164811E-01    0.1072794615E-01    0.6648949903E-01
    0.7000000000E+02    0.1825031403E+00    0.1048968093E+00    0.1346097741E-01    0.1373837420E-01    0.8524820867E-01
    0.9000000000E+02    0.2162742909E+00    0.1243648370E+00    0.1528539675E-01    0.1628192347E-01    0.1011117237E+00
    0.1100000000E+03    0.2452144304E+00    0.1410363863E+00    0.1664943676E-01    0.1846208062E-01    0.1147112640E+00
    0.1300000000E+03    0.2703155138E+00    0.1554801495E+00    0.1767346008E-01    0.2035343099E-01    0.1265062600E+00
    0.1500000000E+03    0.2923112720E+00    0.1681198590E+00    0.1844242373E-01    0.2201114768E-01    0.1368391554E+00
    0.1700000000E+03    0.3117567083E+00    0.1792777702E+00    0.1901750343E-01    0.2347696704E-01    0.1459704777E+00
    0.1900000000E+03    0.3290798569E+00    0.1892033697E+00    0.1944352121E-01    0.2478307947E-01    0.1541019963E+00
    0.2100000000E+03    0.3446164755E+00    0.1980928535E+00    0.1975382002E-01    0.2595473739E-01    0.1613924392E+00
    0.2300000000E+03    0.3586339002E+00    0.2061026614E+00    0.1997353831E-01    0.2701204855E-01    0.1679684155E+00
    0.2500000000E+03    0.3713478227E+00    0.2133590829E+00    0.2012185585E-01    0.2797123737E-01    0.1739321697E+00
    0.2700000000E+03    0.3829343303E+00    0.2199652032E+00    0.2021356228E-01    0.2884555006E-01    0.1793671897E+00
    0.2900000000E+03    0.3935387035E+00    0.2260060118E+00    0.2026017086E-01    0.2964591618E-01    0.1843423322E+00
    0.3100000000E+03    0.4032819503E+00    0.2315522164E+00    0.2027072118E-01    0.3038143982E-01    0.1889149033E+00
    0.3300000000E+03    0.4122657314E+00    0.2366631304E+00    0.2025236524E-01    0.3105977003E-01    0.1931329918E+00
    0.3500000000E+03    0.4205761224E+00    0.2413888859E+00    0.2021080093E-01    0.3168738366E-01    0.1970372568E+00
    0.3700000000E+03    0.4282865240E+00    0.2457721495E+00    0.2015059594E-01    0.3226980418E-01    0.2006623149E+00
    0.3900000000E+03    0.4354599369E+00    0.2498494664E+00    0.2007543252E-01    0.3281177280E-01    0.2040378267E+00
    0.4100000000E+03    0.4421507598E+00    0.2536523240E+00    0.1998829402E-01    0.3331738366E-01    0.2071893570E+00
    0.4300000000E+03    0.4484062240E+00    0.2572080007E+00    0.1989160838E-01    0.3379019170E-01    0.2101390608E+00
    0.4500000000E+03    0.4542675464E+00    0.2605402489E+00    0.1978735938E-01    0.3423329941E-01    0.2129062364E+00
    0.4700000000E+03    0.4597708665E+00    0.2636698489E+00    0.1967717351E-01    0.3464942725E-01    0.2155077733E+00
    0.4900000000E+03    0.4649480108E+00    0.2666150617E+00    0.1956238837E-01    0.3504097122E-01    0.2179585184E+00
    0.1000000000E+03    0.2312789994E+00    0.1330105856E+00    0.1601643640E-01    0.1741222018E-01    0.1081625142E+00
    0.3000000000E+03    0.3985112093E+00    0.2288369941E+00    0.2026946776E-01    0.3002127482E-01    0.1866757408E+00
    0.5000000000E+03    0.4674231909E+00    0.2680236335E+00    0.1950362362E-01    0.3522819609E-01    0.2191315004E+00
    0.7000000000E+03    0.5051717788E+00    0.2895772044E+00    0.1827030938E-01    0.3808633080E-01    0.2371670861E+00
    0.9000000000E+03    0.5289756584E+00    0.3033016580E+00    0.1711805972E-01    0.3989233330E-01    0.2487655570E+00
    0.1100000000E+04    0.5453368821E+00    0.3128455506E+00    0.1611600986E-01    0.4113619944E-01    0.2569088168E+00
    0.1300000000E+04    0.5572624120E+00    0.3198856166E+00    0.1525290267E-01    0.4204469570E-01    0.2629721366E+00
    0.1500000000E+04    0.5663341621E+00    0.3253032634E+00    0.1450571763E-01    0.4273720386E-01    0.2676809816E+00
    0.1700000000E+04    0.5734631992E+00    0.3296074061E+00    0.1385322858E-01    0.4328252679E-01    0.2714556647E+00
    0.1900000000E+04    0.5792108970E+00    0.3331130334E+00    0.1327817630E-01    0.4372308818E-01    0.2745572139E+00
    0.2100000000E+04    0.5839418140E+00    0.3360258497E+00    0.1276695779E-01    0.4408645712E-01    0.2771566618E+00
    0.2300000000E+04    0.5879028779E+00    0.3384860532E+00    0.1230889218E-01    0.4439131992E-01    0.2793709591E+00
    0.2500000000E+04    0.5912672207E+00    0.3405925839E+00    0.1189554347E-01    0.4465078737E-01    0.2812829081E+00
    0.2700000000E+04    0.5941597904E+00    0.3424173187E+00    0.1152018578E-01    0.4487432792E-01    0.2829528549E+00
    0.2900000000E+04    0.5966729984E+00    0.3440137681E+00    0.1117740029E-01    0.4506894925E-01    0.2844258687E+00
    0.3100000000E+04    0.5988766483E+00    0.3454226137E+00    0.1086277531E-01    0.4523994826E-01    0.2857363213E+00
    0.3300000000E+04    0.6008244409E+00    0.3466753509E+00    0.1057268289E-01    0.4539140276E-01    0.2869109058E+00
    0.3500000000E+04    0.6025583583E+00    0.3477967536E+00    0.1030411137E-01    0.4552650285E-01    0.2879706840E+00
    0.3700000000E+04    0.6041116907E+00    0.3488065840E+00    0.1005453869E-01    0.4564777992E-01    0.2889325081E+00
    0.3900000000E+04    0.6055111726E+00    0.3497208040E+00    0.9821835624E-02    0.4575726822E-01    0.2898100309E+00
    0.4100000000E+04    0.6067785181E+00    0.3505524505E+00    0.9604191095E-02    0.4585662119E-01    0.2906144372E+00
    0.4300000000E+04    0.6079315458E+00    0.3513122791E+00    0.9400053960E-02    0.4594719653E-01    0.2913549817E+00
    0.4500000000E+04    0.6089850134E+00    0.3520092437E+00    0.9208087184E-02    0.4603011949E-01    0.2920393924E+00
    0.4700000000E+04    0.6099512471E+00    0.3526508607E+00    0.9027131456E-02    0.4610633059E-01    0.2926741751E+00
    0.4900000000E+04    0.6108406224E+00    0.3532434871E+00    0.8856176036E-02    0.4617662203E-01    0.2932648487E+00
    0.1000000000E+04    0.5378512280E+00    0.3084648321E+00    0.1659836107E-01    0.4056678642E-01    0.2531614656E+00
    0.3000000000E+04    0.5978098439E+00    0.3447394910E+00    0.1101681066E-01    0.4515712260E-01    0.2850995946E+00
    0.5000000000E+04    0.6112592899E+00    0.3535231527E+00    0.8774167322E-02    0.4620976194E-01    0.2935451448E+00
    0.7000000000E+04    0.6171633187E+00    0.3575159066E+00    0.7492341836E-02    0.4668156289E-01    0.2976856317E+00
    0.9000000000E+04    0.6204750712E+00    0.3597951956E+00    0.6637500092E-02    0.4695162729E-01    0.3002201018E+00
    0.1100000000E+05    0.6225924347E+00    0.3612640230E+00    0.6015803232E-02    0.4712775547E-01    0.3019648805E+00
    0.1300000000E+05    0.6240618265E+00    0.3622850306E+00    0.5537724712E-02    0.4725239103E-01    0.3032570126E+00
    0.1500000000E+05    0.6251406439E+00    0.3630325218E+00    0.5155462390E-02    0.4734566954E-01    0.3042627929E+00
    0.1700000000E+05    0.6259659815E+00    0.3636007944E+00    0.4840866796E-02    0.4741839064E-01    0.3050744698E+00
    0.1900000000E+05    0.6266175386E+00    0.3640453518E+00    0.4576143260E-02    0.4747687615E-01    0.3057476705E+00
    0.2100000000E+05    0.6271447990E+00    0.3644010003E+00    0.4349420293E-02    0.4752507811E-01    0.3063181088E+00
    0.2300000000E+05    0.6275801049E+00    0.3646906734E+00    0.4152435103E-02    0.4756559711E-01    0.3068098613E+00
    0.2500000000E+05    0.6279454844E+00    0.3649300939E+00    0.3979236238E-02    0.4760021641E-01    0.3072398084E+00
    0.2700000000E+05    0.6282564579E+00    0.3651303984E+00    0.3825414109E-02    0.4763020086E-01    0.3076201718E+00
    0.2900000000E+05    0.6285242746E+00    0.3652996932E+00    0.3687623022E-02    0.4765647337E-01    0.3079600414E+00
    0.3100000000E+05    0.6287572865E+00    0.3654440169E+00    0.3563272602E-02    0.4767972368E-01    0.3082663335E+00
    0.3300000000E+05    0.6289618240E+00    0.3655679584E+00    0.3450321967E-02    0.4770047807E-01    0.3085444147E+00
    0.3500000000E+05    0.6291427728E+00    0.3656750655E+00    0.3347138523E-02    0.4771914530E-01    0.3087985204E+00
    0.3700000000E+05    0.6293039627E+00    0.3657681233E+00    0.3252398697E-02    0.4773604797E-01    0.3090320434E+00
    0.3900000000E+05    0.6294484388E+00    0.3658493476E+00    0.3165016651E-02    0.4775144418E-01    0.3092477378E+00
    0.4100000000E+05    0.6295786521E+00    0.3659205223E+00    0.3084092105E-02    0.4776554303E-01    0.3094478652E+00
    0.4300000000E+05    0.6296965976E+00    0.3659830993E+00    0.3008871496E-02    0.4777851583E-01    0.3096343025E+00
    0.4500000000E+05    0.6298039157E+00    0.3660382715E+00    0.2938718637E-02    0.4779050430E-01    0.3098086223E+00
    0.4700000000E+05    0.6299019675E+00    0.3660870276E+00    0.2873092232E-02    0.4780162681E-01    0.3099721533E+00
    0.4900000000E+05    0.6299918915E+00    0.3661301939E+00    0.2811528438E-02    0.4781198298E-01    0.3101260270E+00
    0.1000000000E+05    0.6216387842E+00    0.3606017099E+00    0.6304495970E-02    0.4704800130E-01    0.3011642490E+00
    0.3000000000E+05    0.6286446960E+00    0.3653746613E+00    0.3623906260E-02    0.4766844020E-01    0.3081170186E+00
    0.5000000000E+05    0.6300341115E+00    0.3661499026E+00    0.2782142822E-02    0.4781690062E-01    0.3101996511E+00
    0.7000000000E+05    0.6306212484E+00    0.3663728207E+00    0.2334327287E-02    0.4789011131E-01    0.3113416677E+00
    0.9000000000E+05    0.6309425713E+00    0.3664287984E+00    0.2046455939E-02    0.4793601477E-01    0.3121062404E+00
    0.1100000000E+06    0.6311439041E+00    0.3664185191E+00    0.1841817153E-02    0.4796853275E-01    0.3126727067E+00
    0.1300000000E+06    0.6312810944E+00    0.3663783288E+00    0.1686901334E-02    0.4799332726E-01    0.3131189154E+00
    0.1500000000E+06    0.6313800850E+00    0.3663238942E+00    0.1564452404E-02    0.4801318060E-01    0.3134850889E+00
    0.1700000000E+06    0.6314545450E+00    0.3662627560E+00    0.1464567217E-02    0.4802963889E-01    0.3137944993E+00
    0.1900000000E+06    0.6315123492E+00    0.3661988142E+00    0.1381105973E-02    0.4804363930E-01    0.3140617314E+00
    0.2100000000E+06    0.6315583488E+00    0.3661341805E+00    0.1310034566E-02    0.4805578784E-01    0.3142964862E+00
    0.2300000000E+06    0.6315956915E+00    0.3660700270E+00    0.1248579577E-02    0.4806649660E-01    0.3145055211E+00
    0.2500000000E+06    0.6316265070E+00    0.3660070069E+00    0.1194763654E-02    0.4807605717E-01    0.3146937191E+00
    0.2700000000E+06    0.6316522863E+00    0.3659454758E+00    0.1147134257E-02    0.4808468280E-01    0.3148647169E+00
    0.2900000000E+06    0.6316741036E+00    0.3658856145E+00    0.1104597361E-02    0.4809253370E-01    0.3150212912E+00
    0.3100000000E+06    0.6316927518E+00    0.3658274990E+00    0.1066311300E-02    0.4809973302E-01    0.3151656074E+00
    0.3300000000E+06    0.6317088283E+00    0.3657711421E+00    0.1031616631E-02    0.4810637732E-01    0.3152993854E+00
    0.3500000000E+06    0.6317227917E+00    0.3657165186E+00    0.9999884244E-03    0.4811254360E-01    0.3154240122E+00
    0.3700000000E+06    0.6317349993E+00    0.3656635809E+00    0.9710029689E-03    0.4811829418E-01    0.3155406222E+00
    0.3900000000E+06    0.6317457340E+00    0.3656122689E+00    0.9443140217E-03    0.4812368013E-01    0.3156501545E+00
    0.4100000000E+06    0.6317552219E+00    0.3655625160E+00    0.9196355237E-03    0.4812874384E-01    0.3157533946E+00
    0.4300000000E+06    0.6317636462E+00    0.3655142531E+00    0.8967288039E-03    0.4813352084E-01    0.3158510060E+00
    0.4500000000E+06    0.6317711567E+00    0.3654674107E+00    0.8753929555E-03    0.4813804115E-01    0.3159435539E+00
    0.4700000000E+06    0.6317778771E+00    0.3654219212E+00    0.8554574962E-03    0.4814233041E-01    0.3160315239E+00
    0.4900000000E+06    0.6317839102E+00    0.3653777189E+00    0.8367766987E-03    0.4814641064E-01    0.3161153356E+00
    0.1000000000E+06    0.6310536935E+00    0.3664289319E+00    0.1936378271E-02    0.4795349329E-01    0.3124080913E+00
    0.3000000000E+06    0.6316837827E+00    0.3658563366E+00    0.1084967818E-02    0.4809620825E-01    0.3150948651E+00
    0.5000000000E+06    0.6317866965E+00    0.3653560807E+00    0.8278669165E-03    0.4814837843E-01    0.3161557981E+00
    0.7000000000E+06    0.6318214193E+00    0.3649774065E+00    0.6926194628E-03    0.4818028496E-01    0.3168149023E+00
    0.9000000000E+06    0.6318355581E+00    0.3646750042E+00    0.6061715526E-03    0.4820324343E-01    0.3172913606E+00
    0.1100000000E+07    0.6318412907E+00    0.3644235432E+00    0.5449342554E-03    0.4822116595E-01    0.3176637071E+00
    0.1300000000E+07    0.6318430030E+00    0.3642083295E+00    0.4986882511E-03    0.4823586157E-01    0.3179689134E+00
    0.1500000000E+07    0.6318426052E+00    0.3640201894E+00    0.4621992230E-03    0.4824831383E-01    0.3182272878E+00
    0.1700000000E+07    0.6318410370E+00    0.3638530338E+00    0.4324747076E-03    0.4825911644E-01    0.3184511669E+00
    0.1900000000E+07    0.6318388011E+00    0.3637026199E+00    0.4076647707E-03    0.4826865513E-01    0.3186485974E+00
    0.2100000000E+07    0.6318361832E+00    0.3635658752E+00    0.3865566811E-03    0.4827719459E-01    0.3188251150E+00
    0.2300000000E+07    0.6318333532E+00    0.3634405034E+00    0.3683182229E-03    0.4828492428E-01    0.3189846889E+00
    0.2500000000E+07    0.6318304154E+00    0.3633247431E+00    0.3523569568E-03    0.4829198446E-01    0.3191302602E+00
    0.2700000000E+07    0.6318274350E+00    0.3632172141E+00    0.3382382407E-03    0.4829848189E-01    0.3192640683E+00
    0.2900000000E+07    0.6318244539E+00    0.3631168141E+00    0.3256350708E-03    0.4830449967E-01    0.3193878573E+00
    0.3100000000E+07    0.6318214987E+00    0.3630226493E+00    0.3142961126E-03    0.4831010376E-01    0.3195030115E+00
    0.3300000000E+07    0.6318185863E+00    0.3629339843E+00    0.3040246109E-03    0.4831534741E-01    0.3196106478E+00
    0.3500000000E+07    0.6318157274E+00    0.3628502071E+00    0.2946640603E-03    0.4832027419E-01    0.3197116805E+00
    0.3700000000E+07    0.6318129284E+00    0.3627708028E+00    0.2860882171E-03    0.4832492023E-01    0.3198068671E+00
    0.3900000000E+07    0.6318101928E+00    0.3626953340E+00    0.2781939799E-03    0.4832931582E-01    0.3198968424E+00
    0.4100000000E+07    0.6318075222E+00    0.3626234262E+00    0.2708962141E-03    0.4833348660E-01    0.3199821434E+00
    0.4300000000E+07    0.6318049169E+00    0.3625547558E+00    0.2641239229E-03    0.4833745446E-01    0.3200632285E+00
    0.4500000000E+07    0.6318023764E+00    0.3624890417E+00    0.2578173698E-03    0.4834123823E-01    0.3201404920E+00
    0.4700000000E+07    0.6317998993E+00    0.3624260381E+00    0.2519258854E-03    0.4834485425E-01    0.3202142756E+00
    0.4900000000E+07    0.6317974842E+00    0.3623655286E+00    0.2464061738E-03    0.4834831678E-01    0.3202848772E+00
    0.1000000000E+07    0.6318391126E+00    0.3645439952E+00    0.5732098268E-03    0.4821269354E-01    0.3174876836E+00
    0.3000000000E+07    0.6318229718E+00    0.3630690015E+00    0.3198209480E-03    0.4830734984E-01    0.3194464385E+00
    0.5000000000E+07    0.6317962994E+00    0.3623361485E+00    0.2437738877E-03    0.4834999446E-01    0.3203190676E+00
    0.7000000000E+07    0.6317753795E+00    0.3618428008E+00    0.2038423882E-03    0.4837785749E-01    0.3208852456E+00
    0.9000000000E+07    0.6317585537E+00    0.3614699249E+00    0.1783431080E-03    0.4839859197E-01    0.3213045836E+00
    0.1100000000E+08    0.6317445508E+00    0.3611698899E+00    0.1602909942E-03    0.4841511392E-01    0.3216375659E+00
    0.1300000000E+08    0.6317325799E+00    0.3609187396E+00    0.1466639090E-03    0.4842885033E-01    0.3219136595E+00
    0.1500000000E+08    0.6317221336E+00    0.3607027004E+00    0.1359152590E-03    0.4844060698E-01    0.3221494433E+00
    0.1700000000E+08    0.6317128707E+00    0.3605131158E+00    0.1271614085E-03    0.4845088373E-01    0.3223551709E+00
    0.1900000000E+08    0.6317045521E+00    0.3603441868E+00    0.1198563571E-03    0.4846001215E-01    0.3225376264E+00
    0.2100000000E+08    0.6316970039E+00    0.3601918370E+00    0.1136423083E-03    0.4846822349E-01    0.3227015307E+00
    0.2300000000E+08    0.6316900959E+00    0.3600530906E+00    0.1082738070E-03    0.4847568548E-01    0.3228503013E+00
    0.2500000000E+08    0.6316837283E+00    0.3599257089E+00    0.1035761635E-03    0.4848252366E-01    0.3229864915E+00
    0.2700000000E+08    0.6316778229E+00    0.3598079646E+00    0.9942124571E-04    0.4848883443E-01    0.3231120593E+00
