  Pressure (Pa) 22mC5-400 (mol/kg) 3mC6-400 (mol/kg) 33mC5-400 (mol/kg) 23mC5-400 (mol/kg) C7-400 (mol/kg)
    0.1000000000E+01    0.3706830193E-02    0.1574595617E-02    0.6438694180E-04    0.3719312321E-03    0.8517204222E-02
    0.3000000000E+01    0.1098725632E-01    0.4587484469E-02    0.1871122676E-03    0.1102437408E-02    0.2481781838E-01
    0.5000000000E+01    0.1809532597E-01    0.7431358363E-02    0.3023087084E-03    0.1815665267E-02    0.4020841833E-01
    0.7000000000E+01    0.2503712433E-01    0.1012002843E-01    0.4105605763E-03    0.2512224656E-02    0.5476324488E-01
    0.9000000000E+01    0.3181845301E-01    0.1266584148E-01    0.5123929195E-03    0.3192697000E-02    0.6854867400E-01
    0.1100000000E+02    0.3844484633E-01    0.1507986908E-01    0.6082790082E-03    0.3857636947E-02    0.8162423157E-01
    0.1300000000E+02    0.4492158657E-01    0.1737206795E-01    0.6986466991E-03    0.4507573885E-02    0.9404345490E-01
    0.1500000000E+02    0.5125371812E-01    0.1955141688E-01    0.7838838695E-03    0.5143013369E-02    0.1058546275E+00
    0.1700000000E+02    0.5744606073E-01    0.2162603383E-01    0.8643430784E-03    0.5764438440E-02    0.1171014082E+00
    0.1900000000E+02    0.6350322190E-01    0.2360327673E-01    0.9403455803E-03    0.6372310870E-02    0.1278233718E+00
    0.2100000000E+02    0.6942960839E-01    0.2548983031E-01    0.1012184795E-02    0.6967072318E-02    0.1380564761E+00
    0.2300000000E+02    0.7522943705E-01    0.2729178138E-01    0.1080129319E-02    0.7549145413E-02    0.1478334659E+00
    0.2500000000E+02    0.8090674495E-01    0.2901468423E-01    0.1144425546E-02    0.8118934767E-02    0.1571842236E+00
    0.2700000000E+02    0.8646539885E-01    0.3066361757E-01    0.1205299956E-02    0.8676827926E-02    0.1661360762E+00
    0.2900000000E+02    0.9190910409E-01    0.3224323436E-01    0.1262961128E-02    0.9223196260E-02    0.1747140620E+00
    0.3100000000E+02    0.9724141292E-01    0.3375780553E-01    0.1317601500E-02    0.9758395799E-02    0.1829411657E+00
    0.3300000000E+02    0.1024657323E+00    0.3521125837E-01    0.1369398927E-02    0.1028276802E-01    0.1908385249E+00
    0.3500000000E+02    0.1075853314E+00    0.3660721037E-01    0.1418518057E-02    0.1079664057E-01    0.1984256116E+00
    0.3700000000E+02    0.1126033483E+00    0.3794899924E-01    0.1465111554E-02    0.1130032798E-01    0.2057203936E+00
    0.3900000000E+02    0.1175227966E+00    0.3923970938E-01    0.1509321181E-02    0.1179413230E-01    0.2127394765E+00
    0.4100000000E+02    0.1223465714E+00    0.4048219550E-01    0.1551278764E-02    0.1227834372E-01    0.2194982311E+00
    0.4300000000E+02    0.1270774553E+00    0.4167910356E-01    0.1591107063E-02    0.1275324114E-01    0.2260109053E+00
    0.4500000000E+02    0.1317181238E+00    0.4283288956E-01    0.1628920540E-02    0.1321909272E-01    0.2322907255E+00
    0.4700000000E+02    0.1362711502E+00    0.4394583624E-01    0.1664826053E-02    0.1367615637E-01    0.2383499864E+00
    0.4900000000E+02    0.1407390104E+00    0.4502006808E-01    0.1698923486E-02    0.1412468030E-01    0.2442001312E+00
    0.1000000000E+02    0.3515068071E-01    0.1388868175E-01    0.5610515080E-03    0.3527074861E-02    0.7517170946E-01
    0.3000000000E+02    0.9458896681E-01    0.3300839756E-01    0.1290647473E-02    0.9492170455E-02    0.1788701120E+00
    0.5000000000E+02    0.1429417515E+00    0.4554328993E-01    0.1715323617E-02    0.1434581486E-01    0.2470501465E+00
    0.7000000000E+02    0.1830602448E+00    0.5439074991E-01    0.1968184854E-02    0.1837378516E-01    0.2953108739E+00
    0.9000000000E+02    0.2168929732E+00    0.6096621852E-01    0.2117094634E-02    0.2177139654E-01    0.3312804385E+00
    0.1100000000E+03    0.2458170288E+00    0.6604314798E-01    0.2200213606E-02    0.2467669507E-01    0.3591313048E+00
    0.1300000000E+03    0.2708334451E+00    0.7007986097E-01    0.2240459580E-02    0.2719003618E-01    0.3813383839E+00
    0.1500000000E+03    0.2926875341E+00    0.7336518017E-01    0.2252252048E-02    0.2938614417E-01    0.3994628318E+00
    0.1700000000E+03    0.3119457775E+00    0.7609013799E-01    0.2244979081E-02    0.3132181802E-01    0.4145382346E+00
    0.1900000000E+03    0.3290465294E+00    0.7838612428E-01    0.2224912282E-02    0.3304101307E-01    0.4272761729E+00
    0.2100000000E+03    0.3443343797E+00    0.8034647080E-01    0.2196324162E-02    0.3457828501E-01    0.4381826025E+00
    0.2300000000E+03    0.3580840081E+00    0.8203929595E-01    0.2162168795E-02    0.3596118090E-01    0.4476271534E+00
    0.2500000000E+03    0.3705170990E+00    0.8351547706E-01    0.2124511009E-02    0.3721193463E-01    0.4558861663E+00
    0.2700000000E+03    0.3818145652E+00    0.8481377813E-01    0.2084804747E-02    0.3834869220E-01    0.4631703903E+00
    0.2900000000E+03    0.3921255316E+00    0.8596425062E-01    0.2044077903E-02    0.3938641226E-01    0.4696433631E+00
    0.3100000000E+03    0.4015740396E+00    0.8699054963E-01    0.2003057510E-02    0.4033753827E-01    0.4754339372E+00
    0.3300000000E+03    0.4102641209E+00    0.8791154873E-01    0.1962255955E-02    0.4121250712E-01    0.4806450169E+00
    0.3500000000E+03    0.4182836848E+00    0.8874248916E-01    0.1922031235E-02    0.4202013889E-01    0.4853597812E+00
    0.3700000000E+03    0.4257075320E+00    0.8949581291E-01    0.1882629588E-02    0.4276793897E-01    0.4896461966E+00
    0.3900000000E+03    0.4325997152E+00    0.9018177667E-01    0.1844215988E-02    0.4346233479E-01    0.4935603449E+00
    0.4100000000E+03    0.4390154063E+00    0.9080891099E-01    0.1806896150E-02    0.4410886304E-01    0.4971489139E+00
    0.4300000000E+03    0.4450023871E+00    0.9138436841E-01    0.1770732557E-02    0.4471231912E-01    0.5004510865E+00
    0.4500000000E+03    0.4506022486E+00    0.9191419064E-01    0.1735756190E-02    0.4527687742E-01    0.5034999914E+00
    0.4700000000E+03    0.4558513640E+00    0.9240351594E-01    0.1701975180E-02    0.4580618891E-01    0.5063238298E+00
    0.4900000000E+03    0.4607816831E+00    0.9285674168E-01    0.1669381201E-02    0.4630346078E-01    0.5089467594E+00
    0.1000000000E+03    0.2318988855E+00    0.6365818897E-01    0.2165189797E-02    0.2327859757E-01    0.3460381833E+00
    0.3000000000E+03    0.3969506724E+00    0.8649164545E-01    0.2023568154E-02    0.3987210524E-01    0.4726169932E+00
    0.5000000000E+03    0.4631362321E+00    0.9307102105E-01    0.1653523443E-02    0.4654097914E-01    0.5101895024E+00
    0.7000000000E+03    0.4988406745E+00    0.9615160938E-01    0.1390887470E-02    0.5014645357E-01    0.5282987979E+00
    0.9000000000E+03    0.5211745219E+00    0.9791791759E-01    0.1206666720E-02    0.5240665438E-01    0.5389885733E+00
    0.1100000000E+04    0.5364596071E+00    0.9905223056E-01    0.1072179437E-02    0.5395686532E-01    0.5460586285E+00
    0.1300000000E+04    0.5475756605E+00    0.9983565742E-01    0.9700096442E-03    0.5508668856E-01    0.5510898944E+00
    0.1500000000E+04    0.5560222629E+00    0.1004048694E+00    0.8897406399E-03    0.5594704208E-01    0.5548584362E+00
    0.1700000000E+04    0.5626570847E+00    0.1008341515E+00    0.8249176609E-03    0.5662430529E-01    0.5577901261E+00
    0.1900000000E+04    0.5680060817E+00    0.1011672709E+00    0.7713725467E-03    0.5717148795E-01    0.5601382905E+00
    0.2100000000E+04    0.5724096840E+00    0.1014316430E+00    0.7263084483E-03    0.5762292616E-01    0.5620631353E+00
    0.2300000000E+04    0.5760979476E+00    0.1016452877E+00    0.6877840667E-03    0.5800184041E-01    0.5636709761E+00
    0.2500000000E+04    0.5792319196E+00    0.1018205189E+00    0.6544116673E-03    0.5832449760E-01    0.5650351669E+00
    0.2700000000E+04    0.5819277004E+00    0.1019660262E+00    0.6251735106E-03    0.5860263322E-01    0.5662079720E+00
    0.2900000000E+04    0.5842710974E+00    0.1020881086E+00    0.5993063556E-03    0.5884492696E-01    0.5672276483E+00
    0.3100000000E+04    0.5863268965E+00    0.1021914386E+00    0.5762265084E-03    0.5905793687E-01    0.5681228506E+00
    0.3300000000E+04    0.5881449268E+00    0.1022795511E+00    0.5554798161E-03    0.5924671060E-01    0.5689154717E+00
    0.3500000000E+04    0.5897641394E+00    0.1023551672E+00    0.5367074702E-03    0.5941519672E-01    0.5696225298E+00
    0.3700000000E+04    0.5912154221E+00    0.1024204131E+00    0.5196220959E-03    0.5956652865E-01    0.5702574563E+00
    0.3900000000E+04    0.5925235821E+00    0.1024769731E+00    0.5039906993E-03    0.5970322478E-01    0.5708309955E+00
    0.4100000000E+04    0.5937087718E+00    0.1025261969E+00    0.4896222845E-03    0.5982733241E-01    0.5713518462E+00
    0.4300000000E+04    0.5947875317E+00    0.1025691783E+00    0.4763587157E-03    0.5994053313E-01    0.5718271275E+00
    0.4500000000E+04    0.5957735641E+00    0.1026068119E+00    0.4640678725E-03    0.6004422098E-01    0.5722627231E+00
    0.4700000000E+04    0.5966783174E+00    0.1026398362E+00    0.4526384546E-03    0.6013956151E-01    0.5726635381E+00
    0.4900000000E+04    0.5975114303E+00    0.1026688655E+00    0.4419759894E-03    0.6022753676E-01    0.5730336959E+00
    0.1000000000E+04    0.5294720002E+00    0.9854152406E-01    0.1134506899E-02    0.5324776936E-01    0.5428495771E+00
    0.3000000000E+04    0.5853315372E+00    0.1021418745E+00    0.5874489776E-03    0.5895474710E-01    0.5676893076E+00
    0.5000000000E+04    0.5979037253E+00    0.1026820463E+00    0.4369066646E-03    0.6026902784E-01    0.5732083907E+00
    0.7000000000E+04    0.6034444283E+00    0.1028257367E+00    0.3611957973E-03    0.6086080879E-01    0.5757136292E+00
    0.9000000000E+04    0.6065604790E+00    0.1028557702E+00    0.3139489584E-03    0.6120062646E-01    0.5771724260E+00
    0.1100000000E+05    0.6085562932E+00    0.1028429459E+00    0.2809687872E-03    0.6142275829E-01    0.5781405887E+00
    0.1300000000E+05    0.6099431140E+00    0.1028118696E+00    0.2563070119E-03    0.6158022666E-01    0.5788374002E+00
    0.1500000000E+05    0.6109622738E+00    0.1027727639E+00    0.2369854186E-03    0.6169824409E-01    0.5793673922E+00
    0.1700000000E+05    0.6117425255E+00    0.1027303639E+00    0.2213290184E-03    0.6179035853E-01    0.5797869632E+00
    0.1900000000E+05    0.6123588210E+00    0.1026870155E+00    0.2083150196E-03    0.6186451296E-01    0.5801293398E+00
    0.2100000000E+05    0.6128577490E+00    0.1026439245E+00    0.1972793253E-03    0.6192567938E-01    0.5804154308E+00
    0.2300000000E+05    0.6132697883E+00    0.1026017162E+00    0.1877696884E-03    0.6197713327E-01    0.5806590870E+00
    0.2500000000E+05    0.6136157150E+00    0.1025607056E+00    0.1794661688E-03    0.6202112288E-01    0.5808698686E+00
    0.2700000000E+05    0.6139101774E+00    0.1025210369E+00    0.1721352594E-03    0.6205924426E-01    0.5810546015E+00
    0.2900000000E+05    0.6141637992E+00    0.1024827583E+00    0.1656020489E-03    0.6209266287E-01    0.5812182980E+00
    0.3100000000E+05    0.6143844722E+00    0.1024458634E+00    0.1597326032E-03    0.6212225034E-01    0.5813647282E+00
    0.3300000000E+05    0.6145781809E+00    0.1024103159E+00    0.1544224120E-03    0.6214867214E-01    0.5814967864E+00
    0.3500000000E+05    0.6147495456E+00    0.1023760633E+00    0.1495885784E-03    0.6217244547E-01    0.5816167344E+00
    0.3700000000E+05    0.6149021900E+00    0.1023430449E+00    0.1451644005E-03    0.6219397866E-01    0.5817263678E+00
    0.3900000000E+05    0.6150389956E+00    0.1023111976E+00    0.1410955236E-03    0.6221359862E-01    0.5818271317E+00
    0.4100000000E+05    0.6151622830E+00    0.1022804580E+00    0.1373371533E-03    0.6223157029E-01    0.5819202037E+00
    0.4300000000E+05    0.6152739413E+00    0.1022507646E+00    0.1338519997E-03    0.6224811081E-01    0.5820065536E+00
    0.4500000000E+05    0.6153755242E+00    0.1022220585E+00    0.1306087373E-03    0.6226339990E-01    0.5820869887E+00
    0.4700000000E+05    0.6154683211E+00    0.1021942840E+00    0.1275808338E-03    0.6227758771E-01    0.5821621862E+00
    0.4900000000E+05    0.6155534109E+00    0.1021673888E+00    0.1247456479E-03    0.6229080067E-01    0.5822327197E+00
    0.1000000000E+05    0.6076570227E+00    0.1028526595E+00    0.2961493207E-03    0.6132211839E-01    0.5777001241E+00
    0.3000000000E+05    0.6142778430E+00    0.1024641396E+00    0.1625914712E-03    0.6210788987E-01    0.5812934733E+00
    0.5000000000E+05    0.6155933557E+00    0.1021542555E+00    0.1233941363E-03    0.6229707575E-01    0.5822663931E+00
    0.7000000000E+05    0.6161482569E+00    0.1019275460E+00    0.1029345870E-03    0.6239056263E-01    0.5827830904E+00
    0.9000000000E+05    0.6164510678E+00    0.1017501824E+00    0.8991021885E-04    0.6244924000E-01    0.5831241682E+00
    0.1100000000E+06    0.6166401461E+00    0.1016047990E+00    0.8070837807E-04    0.6249083130E-01    0.5833751779E+00
    0.1300000000E+06    0.6167684868E+00    0.1014817144E+00    0.7377245597E-04    0.6252255511E-01    0.5835722909E+00
    0.1500000000E+06    0.6168607006E+00    0.1013750361E+00    0.6830796890E-04    0.6254796214E-01    0.5837338673E+00
    0.1700000000E+06    0.6169297483E+00    0.1012809239E+00    0.6386186120E-04    0.6256902696E-01    0.5838703972E+00
    0.1900000000E+06    0.6169830917E+00    0.1011967406E+00    0.6015459953E-04    0.6258694713E-01    0.5839883943E+00
    0.2100000000E+06    0.6170253238E+00    0.1011205980E+00    0.5700322039E-04    0.6260249740E-01    0.5840921614E+00
    0.2300000000E+06    0.6170594222E+00    0.1010510988E+00    0.5428233029E-04    0.6261620474E-01    0.5841846799E+00
    0.2500000000E+06    0.6170873997E+00    0.1009871801E+00    0.5190276159E-04    0.6262844220E-01    0.5842680958E+00
    0.2700000000E+06    0.6171106638E+00    0.1009280147E+00    0.4979915851E-04    0.6263948261E-01    0.5843440024E+00
    0.2900000000E+06    0.6171302276E+00    0.1008729466E+00    0.4792239140E-04    0.6264953102E-01    0.5844136134E+00
    0.3100000000E+06    0.6171468379E+00    0.1008214465E+00    0.4623472720E-04    0.6265874507E-01    0.5844778737E+00
    0.3300000000E+06    0.6171610569E+00    0.1007730814E+00    0.4470664655E-04    0.6266724836E-01    0.5845375327E+00
    0.3500000000E+06    0.6171733155E+00    0.1007274924E+00    0.4331468293E-04    0.6267513948E-01    0.5845931943E+00
    0.3700000000E+06    0.6171839492E+00    0.1006843790E+00    0.4203991769E-04    0.6268249821E-01    0.5846453520E+00
    0.3900000000E+06    0.6171932229E+00    0.1006434868E+00    0.4086690810E-04    0.6268938999E-01    0.5846944140E+00
    0.4100000000E+06    0.6172013484E+00    0.1006045988E+00    0.3978290848E-04    0.6269586908E-01    0.5847407220E+00
    0.4300000000E+06    0.6172084969E+00    0.1005675282E+00    0.3877729441E-04    0.6270198096E-01    0.5847845645E+00
    0.4500000000E+06    0.6172148084E+00    0.1005321130E+00    0.3784113016E-04    0.6270776412E-01    0.5848261870E+00
    0.4700000000E+06    0.6172203979E+00    0.1004982123E+00    0.3696683918E-04    0.6271325138E-01    0.5848658008E+00
    0.4900000000E+06    0.6172253613E+00    0.1004657019E+00    0.3614794984E-04    0.6271847094E-01    0.5849035884E+00
    0.1000000000E+06    0.6165555124E+00    0.1016742172E+00    0.8495473163E-04    0.6247159321E-01    0.5832580602E+00
    0.3000000000E+06    0.6171388632E+00    0.1008467796E+00    0.4705692968E-04    0.6265423394E-01    0.5844463617E+00
    0.5000000000E+06    0.6172276338E+00    0.1004499335E+00    0.3575751076E-04    0.6272098810E-01    0.5849218478E+00
    0.7000000000E+06    0.6172541834E+00    0.1001867072E+00    0.2984123070E-04    0.6276179224E-01    0.5852208410E+00
    0.9000000000E+06    0.6172625844E+00    0.9998954527E-01    0.2607030521E-04    0.6279114004E-01    0.5854388754E+00
    0.1100000000E+07    0.6172638925E+00    0.9983189919E-01    0.2340442543E-04    0.6281404220E-01    0.5856103890E+00
    0.1300000000E+07    0.6172620002E+00    0.9970056945E-01    0.2139426900E-04    0.6283281536E-01    0.5857517001E+00
    0.1500000000E+07    0.6172585585E+00    0.9958802995E-01    0.1981019249E-04    0.6284871875E-01    0.5858718254E+00
    0.1700000000E+07    0.6172543539E+00    0.9948958117E-01    0.1852112850E-04    0.6286251237E-01    0.5859762710E+00
    0.1900000000E+07    0.6172497914E+00    0.9940209126E-01    0.1744616168E-04    0.6287468986E-01    0.5860686449E+00
    0.2100000000E+07    0.6172450907E+00    0.9932336826E-01    0.1653230820E-04    0.6288558991E-01    0.5861514396E+00
    0.2300000000E+07    0.6172403746E+00    0.9925181802E-01    0.1574324448E-04    0.6289545490E-01    0.5862264486E+00
    0.2500000000E+07    0.6172357128E+00    0.9918624493E-01    0.1505313461E-04    0.6290446427E-01    0.5862950053E+00
    0.2700000000E+07    0.6172311445E+00    0.9912572925E-01    0.1444303856E-04    0.6291275453E-01    0.5863581282E+00
    0.2900000000E+07    0.6172266913E+00    0.9906954829E-01    0.1389871653E-04    0.6292043196E-01    0.5864166122E+00
    0.3100000000E+07    0.6172223638E+00    0.9901712388E-01    0.1340923062E-04    0.6292758089E-01    0.5864710902E+00
    0.3300000000E+07    0.6172181660E+00    0.9896798625E-01    0.1296602305E-04    0.6293426940E-01    0.5865220738E+00
    0.3500000000E+07    0.6172140981E+00    0.9892174851E-01    0.1256229024E-04    0.6294055319E-01    0.5865699828E+00
    0.3700000000E+07    0.6172101578E+00    0.9887808826E-01    0.1219254678E-04    0.6294647845E-01    0.5866151655E+00
    0.3900000000E+07    0.6172063412E+00    0.9883673398E-01    0.1185231486E-04    0.6295208389E-01    0.5866579143E+00
    0.4100000000E+07    0.6172026439E+00    0.9879745491E-01    0.1153789852E-04    0.6295740226E-01    0.5866984773E+00
    0.4300000000E+07    0.6171990608E+00    0.9876005325E-01    0.1124621680E-04    0.6296246153E-01    0.5867370661E+00
    0.4500000000E+07    0.6171955869E+00    0.9872435815E-01    0.1097467835E-04    0.6296728579E-01    0.5867738634E+00
    0.4700000000E+07    0.6171922170E+00    0.9869022109E-01    0.1072108590E-04    0.6297189590E-01    0.5868090276E+00
    0.4900000000E+07    0.6171889462E+00    0.9865751208E-01    0.1048356257E-04    0.6297631006E-01    0.5868426968E+00
    0.1000000000E+07    0.6172638013E+00    0.9990679301E-01    0.2463479517E-04    0.6280321671E-01    0.5855291853E+00
    0.3000000000E+07    0.6172245114E+00    0.9904289808E-01    0.1364770124E-04    0.6292406790E-01    0.5864443175E+00
    0.5000000000E+07    0.6171873464E+00    0.9864165682E-01    0.1037031349E-04    0.6297844874E-01    0.5868590094E+00
    0.7000000000E+07    0.6171595064E+00    0.9837778594E-01    0.8654264778E-05    0.6301396010E-01    0.5871297936E+00
    0.9000000000E+07    0.6171374940E+00    0.9818096091E-01    0.7560502392E-05    0.6304037658E-01    0.5873310540E+00
    0.1100000000E+08    0.6171193353E+00    0.9802397519E-01    0.6787273972E-05    0.6306142057E-01    0.5874912254E+00
    0.1300000000E+08    0.6171038940E+00    0.9789341341E-01    0.6204245675E-05    0.6307891298E-01    0.5876242370E+00
    0.1500000000E+08    0.6170904667E+00    0.9778166621E-01    0.5744805244E-05    0.6309388172E-01    0.5877379562E+00
    0.1700000000E+08    0.6170785900E+00    0.9768399927E-01    0.5370934432E-05    0.6310696434E-01    0.5878372631E+00
    0.1900000000E+08    0.6170679436E+00    0.9759726604E-01    0.5059162623E-05    0.6311858363E-01    0.5879253938E+00
    0.2100000000E+08    0.6170582965E+00    0.9751926878E-01    0.4794121275E-05    0.6312903444E-01    0.5880046047E+00
    0.2300000000E+08    0.6170494774E+00    0.9744841183E-01    0.4565274447E-05    0.6313853059E-01    0.5880765316E+00
    0.2500000000E+08    0.6170413554E+00    0.9738350005E-01    0.4365128300E-05    0.6314723208E-01    0.5881423982E+00
    0.2700000000E+08    0.6170338282E+00    0.9732361507E-01    0.4188189235E-05    0.6315526180E-01    0.5882031440E+00
