  Pressure (Pa) 22mC5-400 (mol/kg) 3mC6-400 (mol/kg) 33mC5-400 (mol/kg) 23mC5-400 (mol/kg) C7-400 (mol/kg)
    0.1000000000E+01    0.4232323021E-02    0.1060717683E-02    0.3893733671E-03    0.2786816671E-03    0.1721181967E-02
    0.3000000000E+01    0.1252140659E-01    0.3153503365E-02    0.1149011238E-02    0.8244950785E-03    0.5117260214E-02
    0.5000000000E+01    0.2058462777E-01    0.5208954977E-02    0.1884078514E-02    0.1355449284E-02    0.8453020789E-02
    0.7000000000E+01    0.2843136986E-01    0.7228078352E-02    0.2595612877E-02    0.1872161430E-02    0.1173008672E-01
    0.9000000000E+01    0.3607049956E-01    0.9211843376E-02    0.3284596349E-02    0.2375214689E-02    0.1495002304E-01
    0.1100000000E+02    0.4351040195E-01    0.1116118558E-01    0.3951958940E-02    0.2865160564E-02    0.1811433938E-01
    0.1300000000E+02    0.5075901274E-01    0.1307700765E-01    0.4598582007E-02    0.3342521004E-02    0.2122449240E-01
    0.1500000000E+02    0.5782384790E-01    0.1496018086E-01    0.5225301353E-02    0.3807790355E-02    0.2428188808E-01
    0.1700000000E+02    0.6471203104E-01    0.1681154642E-01    0.5832910106E-02    0.4261437160E-02    0.2728788390E-01
    0.1900000000E+02    0.7143031864E-01    0.1863191677E-01    0.6422161365E-02    0.4703905821E-02    0.3024379096E-01
    0.2100000000E+02    0.7798512341E-01    0.2042207680E-01    0.6993770667E-02    0.5135618129E-02    0.3315087589E-01
    0.2300000000E+02    0.8438253585E-01    0.2218278500E-01    0.7548418266E-02    0.5556974685E-02    0.3601036278E-01
    0.2500000000E+02    0.9062834424E-01    0.2391477458E-01    0.8086751252E-02    0.5968356217E-02    0.3882343490E-01
    0.2700000000E+02    0.9672805317E-01    0.2561875450E-01    0.8609385519E-02    0.6370124793E-02    0.4159123644E-01
    0.2900000000E+02    0.1026869007E+00    0.2729541047E-01    0.9116907594E-02    0.6762624955E-02    0.4431487407E-01
    0.3100000000E+02    0.1085098743E+00    0.2894540589E-01    0.9609876342E-02    0.7146184764E-02    0.4699541849E-01
    0.3300000000E+02    0.1142017257E+00    0.3056938279E-01    0.1008882455E-01    0.7521116777E-02    0.4963390588E-01
    0.3500000000E+02    0.1197669847E+00    0.3216796261E-01    0.1055426041E-01    0.7887718954E-02    0.5223133929E-01
    0.3700000000E+02    0.1252099719E+00    0.3374174709E-01    0.1100666890E-01    0.8246275500E-02    0.5478868992E-01
    0.3900000000E+02    0.1305348108E+00    0.3529131902E-01    0.1144651306E-01    0.8597057650E-02    0.5730689844E-01
    0.4100000000E+02    0.1357454388E+00    0.3681724296E-01    0.1187423521E-01    0.8940324405E-02    0.5978687611E-01
    0.4300000000E+02    0.1408456176E+00    0.3832006599E-01    0.1229025808E-01    0.9276323217E-02    0.6222950597E-01
    0.4500000000E+02    0.1458389431E+00    0.3980031834E-01    0.1269498584E-01    0.9605290620E-02    0.6463564393E-01
    0.4700000000E+02    0.1507288544E+00    0.4125851407E-01    0.1308880512E-01    0.9927452838E-02    0.6700611976E-01
    0.4900000000E+02    0.1555186419E+00    0.4269515167E-01    0.1347208592E-01    0.1024302633E-01    0.6934173815E-01
    0.1000000000E+02    0.3981484801E-01    0.1019076016E-01    0.3620924067E-02    0.2621792759E-02    0.1653904145E-01
    0.3000000000E+02    0.1056150694E+00    0.2812370013E-01    0.9365177241E-02    0.6955502516E-02    0.4566046738E-01
    0.5000000000E+02    0.1578769791E+00    0.4340553783E-01    0.1365988567E-01    0.1039840741E-01    0.7049672062E-01
    0.7000000000E+02    0.2004860409E+00    0.5659179922E-01    0.1694117438E-01    0.1320609101E-01    0.9194448144E-01
    0.9000000000E+02    0.2359554619E+00    0.6809235397E-01    0.1949130856E-01    0.1554388335E-01    0.1106654661E+00
    0.1100000000E+03    0.2659846564E+00    0.7821627113E-01    0.2150020585E-01    0.1752358797E-01    0.1271587664E+00
    0.1300000000E+03    0.2917655572E+00    0.8720105466E-01    0.2309978365E-01    0.1922362735E-01    0.1418080002E+00
    0.1500000000E+03    0.3141601360E+00    0.9523225707E-01    0.2438414692E-01    0.2070071866E-01    0.1549129459E+00
    0.1700000000E+03    0.3338081250E+00    0.1024569741E+00    0.2542196600E-01    0.2199695898E-01    0.1667113100E+00
    0.1900000000E+03    0.3511949845E+00    0.1089933380E+00    0.2626434052E-01    0.2314429607E-01    0.1773940417E+00
    0.2100000000E+03    0.3666962519E+00    0.1149373281E+00    0.2694994928E-01    0.2416744562E-01    0.1871163217E+00
    0.2300000000E+03    0.3806073384E+00    0.1203677449E+00    0.2750851237E-01    0.2508585134E-01    0.1960055878E+00
    0.2500000000E+03    0.3931640678E+00    0.1253498996E+00    0.2796317263E-01    0.2591503618E-01    0.2041674893E+00
    0.2700000000E+03    0.4045571596E+00    0.1299383906E+00    0.2833216732E-01    0.2666755506E-01    0.2116903696E+00
    0.2900000000E+03    0.4149426495E+00    0.1341792213E+00    0.2863002273E-01    0.2735368050E-01    0.2186486829E+00
    0.3100000000E+03    0.4244495242E+00    0.1381114324E+00    0.2886842188E-01    0.2798190491E-01    0.2251056319E+00
    0.3300000000E+03    0.4331854062E+00    0.1417683771E+00    0.2905684405E-01    0.2855931468E-01    0.2311152247E+00
    0.3500000000E+03    0.4412408506E+00    0.1451787234E+00    0.2920304230E-01    0.2909187283E-01    0.2367238957E+00
    0.3700000000E+03    0.4486926351E+00    0.1483672532E+00    0.2931340443E-01    0.2958463555E-01    0.2419717945E+00
    0.3900000000E+03    0.4556063103E+00    0.1513555015E+00    0.2939322889E-01    0.3004192001E-01    0.2468938196E+00
    0.4100000000E+03    0.4620381986E+00    0.1541622738E+00    0.2944693778E-01    0.3046743591E-01    0.2515204541E+00
    0.4300000000E+03    0.4680369777E+00    0.1568040675E+00    0.2947824282E-01    0.3086438966E-01    0.2558784465E+00
    0.4500000000E+03    0.4736449452E+00    0.1592954171E+00    0.2949027594E-01    0.3123556765E-01    0.2599913688E+00
    0.4700000000E+03    0.4788990387E+00    0.1616491790E+00    0.2948569264E-01    0.3158340335E-01    0.2638800772E+00
    0.4900000000E+03    0.4838316648E+00    0.1638767687E+00    0.2946675468E-01    0.3191003191E-01    0.2675630944E+00
    0.1000000000E+03    0.2515662200E+00    0.7331013732E-01    0.2055409334E-01    0.1657297875E-01    0.1191643239E+00
    0.3000000000E+03    0.4197987427E+00    0.1361816993E+00    0.2875601649E-01    0.2767455817E-01    0.2219362578E+00
    0.5000000000E+03    0.4861864852E+00    0.1649464714E+00    0.2945251844E-01    0.3206599032E-01    0.2693326988E+00
    0.7000000000E+03    0.5218197444E+00    0.1816824864E+00    0.2876050188E-01    0.3442856532E-01    0.2971185709E+00
    0.9000000000E+03    0.5440160995E+00    0.1927297107E+00    0.2775236281E-01    0.3590364910E-01    0.3155932019E+00
    0.1100000000E+04    0.5591479576E+00    0.2006144323E+00    0.2670765127E-01    0.3691158154E-01    0.3288716448E+00
    0.1300000000E+04    0.5701131880E+00    0.2065494895E+00    0.2571038094E-01    0.3764366694E-01    0.3389346675E+00
    0.1500000000E+04    0.5784181655E+00    0.2111927085E+00    0.2478438491E-01    0.3819942805E-01    0.3468593703E+00
    0.1700000000E+04    0.5849227006E+00    0.2149331579E+00    0.2393282919E-01    0.3863571516E-01    0.3532844066E+00
    0.1900000000E+04    0.5901529068E+00    0.2180163612E+00    0.2315163253E-01    0.3898734184E-01    0.3586138003E+00
    0.2100000000E+04    0.5944485526E+00    0.2206052680E+00    0.2243445053E-01    0.3927680846E-01    0.3631163501E+00
    0.2300000000E+04    0.5980387359E+00    0.2228124804E+00    0.2177460151E-01    0.3951929832E-01    0.3669782491E+00
    0.2500000000E+04    0.6010834866E+00    0.2247184246E+00    0.2116579667E-01    0.3972542551E-01    0.3703328016E+00
    0.2700000000E+04    0.6036979330E+00    0.2263821527E+00    0.2060238170E-01    0.3990283194E-01    0.3732781138E+00
    0.2900000000E+04    0.6059669957E+00    0.2278480484E+00    0.2007937671E-01    0.4005715880E-01    0.3758880930E+00
    0.3100000000E+04    0.6079546717E+00    0.2291501465E+00    0.1959243580E-01    0.4019266062E-01    0.3782195432E+00
    0.3300000000E+04    0.6097100956E+00    0.2303150049E+00    0.1913777899E-01    0.4031260645E-01    0.3803168893E+00
    0.3500000000E+04    0.6112716120E+00    0.2313636652E+00    0.1871211914E-01    0.4041954943E-01    0.3822154073E+00
    0.3700000000E+04    0.6126695794E+00    0.2323130250E+00    0.1831259318E-01    0.4051551250E-01    0.3839434884E+00
    0.3900000000E+04    0.6139283438E+00    0.2331768173E+00    0.1793670104E-01    0.4060211926E-01    0.3855242571E+00
    0.4100000000E+04    0.6150676553E+00    0.2339663241E+00    0.1758225281E-01    0.4068068781E-01    0.3869767518E+00
    0.4300000000E+04    0.6161037023E+00    0.2346909037E+00    0.1724732382E-01    0.4075229940E-01    0.3883167984E+00
    0.4500000000E+04    0.6170498789E+00    0.2353583871E+00    0.1693021659E-01    0.4081784933E-01    0.3895576680E+00
    0.4700000000E+04    0.6179173623E+00    0.2359753796E+00    0.1662942877E-01    0.4087808531E-01    0.3907105782E+00
    0.4900000000E+04    0.6187155526E+00    0.2365474935E+00    0.1634362616E-01    0.4093363666E-01    0.3917850800E+00
    0.1000000000E+04    0.5522374035E+00    0.1969733108E+00    0.2722711473E-01    0.3645098166E-01    0.3227284214E+00
    0.3000000000E+04    0.6069926431E+00    0.2285177635E+00    0.1983164690E-01    0.4012703909E-01    0.3770856111E+00
    0.5000000000E+04    0.6190911996E+00    0.2368182487E+00    0.1620596764E-01    0.4095982554E-01    0.3922955325E+00
    0.7000000000E+04    0.6243820953E+00    0.2407448483E+00    0.1400974620E-01    0.4133265692E-01    0.3998733371E+00
    0.9000000000E+04    0.6273447267E+00    0.2430493399E+00    0.1250199661E-01    0.4154623147E-01    0.4045366867E+00
    0.1100000000E+05    0.6292369665E+00    0.2445674601E+00    0.1138592504E-01    0.4168571241E-01    0.4077490610E+00
    0.1300000000E+05    0.6305492652E+00    0.2456427709E+00    0.1051733799E-01    0.4178457765E-01    0.4101237289E+00
    0.1500000000E+05    0.6315123009E+00    0.2464433851E+00    0.9816767645E-02    0.4185869943E-01    0.4119662148E+00
    0.1700000000E+05    0.6322488087E+00    0.2470615887E+00    0.9236379973E-02    0.4191658944E-01    0.4134471299E+00
    0.1900000000E+05    0.6328300864E+00    0.2475523793E+00    0.8745443215E-02    0.4196323078E-01    0.4146698332E+00
    0.2100000000E+05    0.6333003760E+00    0.2479506218E+00    0.8323197288E-02    0.4200173950E-01    0.4157008980E+00
    0.2300000000E+05    0.6336885806E+00    0.2482795118E+00    0.7955048070E-02    0.4203416687E-01    0.4165853050E+00
    0.2500000000E+05    0.6340143791E+00    0.2485550921E+00    0.7630397832E-02    0.4206192015E-01    0.4173546365E+00
    0.2700000000E+05    0.6342916322E+00    0.2487888181E+00    0.7341340868E-02    0.4208599802E-01    0.4180317782E+00
    0.2900000000E+05    0.6345303838E+00    0.2489890907E+00    0.7081844181E-02    0.4210712956E-01    0.4186337582E+00
    0.3100000000E+05    0.6347380896E+00    0.2491622124E+00    0.6847213568E-02    0.4212586000E-01    0.4191735329E+00
    0.3300000000E+05    0.6349203995E+00    0.2493130041E+00    0.6633734627E-02    0.4214260557E-01    0.4196611531E+00
    0.3500000000E+05    0.6350816730E+00    0.2494452171E+00    0.6438424765E-02    0.4215768981E-01    0.4201045466E+00
    0.3700000000E+05    0.6352253276E+00    0.2495618136E+00    0.6258857826E-02    0.4217136817E-01    0.4205100597E+00
    0.3900000000E+05    0.6353540796E+00    0.2496651640E+00    0.6093037463E-02    0.4218384518E-01    0.4208828390E+00
    0.4100000000E+05    0.6354701155E+00    0.2497571877E+00    0.5939304025E-02    0.4219528665E-01    0.4212271068E+00
    0.4300000000E+05    0.6355752147E+00    0.2498394550E+00    0.5796264962E-02    0.4220582849E-01    0.4215463630E+00
    0.4500000000E+05    0.6356708402E+00    0.2499132628E+00    0.5662742029E-02    0.4221558324E-01    0.4218435362E+00
    0.4700000000E+05    0.6357582057E+00    0.2499796920E+00    0.5537730700E-02    0.4222464492E-01    0.4221210979E+00
    0.4900000000E+05    0.6358383266E+00    0.2500396499E+00    0.5420368603E-02    0.4223309274E-01    0.4223811495E+00
    0.1000000000E+05    0.6283848936E+00    0.2438791693E+00    0.1190613826E-01    0.4162252589E-01    0.4062753501E+00
    0.3000000000E+05    0.6346377290E+00    0.2490787150E+00    0.6961672395E-02    0.4211676637E-01    0.4189107356E+00
    0.5000000000E+05    0.6358759431E+00    0.2500674466E+00    0.5364319170E-02    0.4223710786E-01    0.4225051817E+00
    0.7000000000E+05    0.6363990009E+00    0.2504196932E+00    0.4507866836E-02    0.4229720043E-01    0.4243930056E+00
    0.9000000000E+05    0.6366852069E+00    0.2505652849E+00    0.3955197655E-02    0.4233523979E-01    0.4256138362E+00
    0.1100000000E+06    0.6368645178E+00    0.2506222074E+00    0.3561420899E-02    0.4236239052E-01    0.4264928490E+00
    0.1300000000E+06    0.6369866934E+00    0.2506350770E+00    0.3262868379E-02    0.4238321935E-01    0.4271687390E+00
    0.1500000000E+06    0.6370748454E+00    0.2506240795E+00    0.3026629142E-02    0.4239998178E-01    0.4277119956E+00
    0.1700000000E+06    0.6371411497E+00    0.2505994650E+00    0.2833765566E-02    0.4241393694E-01    0.4281627853E+00
    0.1900000000E+06    0.6371926209E+00    0.2505668726E+00    0.2672513368E-02    0.4242585120E-01    0.4285459273E+00
    0.2100000000E+06    0.6372335795E+00    0.2505295894E+00    0.2535131072E-02    0.4243622198E-01    0.4288777148E+00
    0.2300000000E+06    0.6372668290E+00    0.2504896155E+00    0.2416289947E-02    0.4244538869E-01    0.4291693590E+00
    0.2500000000E+06    0.6372942661E+00    0.2504482072E+00    0.2312186989E-02    0.4245359228E-01    0.4294288699E+00
    0.2700000000E+06    0.6373172186E+00    0.2504061716E+00    0.2220026221E-02    0.4246100943E-01    0.4296621493E+00
    0.2900000000E+06    0.6373366433E+00    0.2503640354E+00    0.2137700285E-02    0.4246777327E-01    0.4298736586E+00
    0.3100000000E+06    0.6373532460E+00    0.2503221448E+00    0.2063586944E-02    0.4247398639E-01    0.4300668446E+00
    0.3300000000E+06    0.6373675589E+00    0.2502807273E+00    0.1996414517E-02    0.4247972939E-01    0.4302444200E+00
    0.3500000000E+06    0.6373799902E+00    0.2502399310E+00    0.1935170255E-02    0.4248506671E-01    0.4304085547E+00
    0.3700000000E+06    0.6373908584E+00    0.2501998500E+00    0.1879036367E-02    0.4249005059E-01    0.4305610091E+00
    0.3900000000E+06    0.6374004149E+00    0.2501605412E+00    0.1827344336E-02    0.4249472394E-01    0.4307032291E+00
    0.4100000000E+06    0.6374088615E+00    0.2501220359E+00    0.1779541673E-02    0.4249912243E-01    0.4308364158E+00
    0.4300000000E+06    0.6374163610E+00    0.2500843472E+00    0.1735167283E-02    0.4250327599E-01    0.4309615767E+00
    0.4500000000E+06    0.6374230470E+00    0.2500474760E+00    0.1693832925E-02    0.4250721000E-01    0.4310795646E+00
    0.4700000000E+06    0.6374290295E+00    0.2500114146E+00    0.1655209078E-02    0.4251094610E-01    0.4311911069E+00
    0.4900000000E+06    0.6374344001E+00    0.2499761492E+00    0.1619014009E-02    0.4251450297E-01    0.4312968292E+00
    0.1000000000E+06    0.6367841763E+00    0.2506011800E+00    0.3743468680E-02    0.4234981085E-01    0.4260850701E+00
    0.3000000000E+06    0.6373452607E+00    0.2503430430E+00    0.2099703498E-02    0.4247094320E-01    0.4299723578E+00
    0.5000000000E+06    0.6374368805E+00    0.2499588096E+00    0.1601750149E-02    0.4251621932E-01    0.4313476798E+00
    0.7000000000E+06    0.6374677880E+00    0.2496486633E+00    0.1339647776E-02    0.4254413118E-01    0.4321590837E+00
    0.9000000000E+06    0.6374803712E+00    0.2493940409E+00    0.1172090120E-02    0.4256430079E-01    0.4327267756E+00
    0.1100000000E+07    0.6374854716E+00    0.2491789128E+00    0.1053395457E-02    0.4258008818E-01    0.4331602119E+00
    0.1300000000E+07    0.6374869936E+00    0.2489928456E+00    0.9637622737E-03    0.4259305683E-01    0.4335092473E+00
    0.1500000000E+07    0.6374866377E+00    0.2488289509E+00    0.8930451767E-03    0.4260406049E-01    0.4338005823E+00
    0.1700000000E+07    0.6374852403E+00    0.2486824992E+00    0.8354430037E-03    0.4261361620E-01    0.4340501085E+00
    0.1900000000E+07    0.6374832487E+00    0.2485501186E+00    0.7873691130E-03    0.4262206071E-01    0.4342680176E+00
    0.2100000000E+07    0.6374809174E+00    0.2484293259E+00    0.7464721276E-03    0.4262962558E-01    0.4344612203E+00
    0.2300000000E+07    0.6374783974E+00    0.2483182414E+00    0.7111384073E-03    0.4263647683E-01    0.4346346099E+00
    0.2500000000E+07    0.6374757816E+00    0.2482154085E+00    0.6802192188E-03    0.4264273753E-01    0.4347917729E+00
    0.2700000000E+07    0.6374731281E+00    0.2481196761E+00    0.6528717992E-03    0.4264850145E-01    0.4349354135E+00
    0.2900000000E+07    0.6374704740E+00    0.2480301187E+00    0.6284621027E-03    0.4265384168E-01    0.4350676194E+00
    0.3100000000E+07    0.6374678430E+00    0.2479459810E+00    0.6065028134E-03    0.4265881628E-01    0.4351900345E+00
    0.3300000000E+07    0.6374652503E+00    0.2478666388E+00    0.5866124496E-03    0.4266347213E-01    0.4353039761E+00
    0.3500000000E+07    0.6374627052E+00    0.2477915703E+00    0.5684875780E-03    0.4266784766E-01    0.4354105149E+00
    0.3700000000E+07    0.6374602135E+00    0.2477203344E+00    0.5518834444E-03    0.4267197471E-01    0.4355105329E+00
    0.3900000000E+07    0.6374577783E+00    0.2476525555E+00    0.5366001689E-03    0.4267588003E-01    0.4356047650E+00
    0.4100000000E+07    0.6374554010E+00    0.2475879107E+00    0.5224727092E-03    0.4267958624E-01    0.4356938298E+00
    0.4300000000E+07    0.6374530819E+00    0.2475261205E+00    0.5093634358E-03    0.4268311267E-01    0.4357782526E+00
    0.4500000000E+07    0.6374508205E+00    0.2474669413E+00    0.4971565522E-03    0.4268647597E-01    0.4358584834E+00
    0.4700000000E+07    0.6374486156E+00    0.2474101595E+00    0.4857538414E-03    0.4268969059E-01    0.4359349104E+00
    0.4900000000E+07    0.6374464659E+00    0.2473555868E+00    0.4750713829E-03    0.4269276911E-01    0.4360078706E+00
    0.1000000000E+07    0.6374835340E+00    0.2492822968E+00    0.1108200863E-02    0.4257262088E-01    0.4329563830E+00
    0.3000000000E+07    0.6374691545E+00    0.2479874141E+00    0.6172021046E-03    0.4265637153E-01    0.4351299619E+00
    0.5000000000E+07    0.6374454112E+00    0.2473290760E+00    0.4699772895E-03    0.4269426086E-01    0.4360431442E+00
    0.7000000000E+07    0.6374267913E+00    0.2468827464E+00    0.3927221955E-03    0.4271904674E-01    0.4366219735E+00
    0.9000000000E+07    0.6374118165E+00    0.2465441712E+00    0.3434139767E-03    0.4273750260E-01    0.4370448126E+00
    0.1100000000E+08    0.6373993548E+00    0.2462711163E+00    0.3085207822E-03    0.4275221447E-01    0.4373774209E+00
    0.1300000000E+08    0.6373887020E+00    0.2460421940E+00    0.2821899258E-03    0.4276444922E-01    0.4376512788E+00
    0.1500000000E+08    0.6373794063E+00    0.2458450512E+00    0.2614271409E-03    0.4277492271E-01    0.4378838755E+00
    0.1700000000E+08    0.6373711640E+00    0.2456718994E+00    0.2445221129E-03    0.4278407924E-01    0.4380859227E+00
    0.1900000000E+08    0.6373637622E+00    0.2455175078E+00    0.2304182776E-03    0.4279221365E-01    0.4382644523E+00
    0.2100000000E+08    0.6373570460E+00    0.2453781924E+00    0.2184234073E-03    0.4279953162E-01    0.4384243259E+00
    0.2300000000E+08    0.6373508996E+00    0.2452512596E+00    0.2080627108E-03    0.4280618237E-01    0.4385690436E+00
    0.2500000000E+08    0.6373452342E+00    0.2451346802E+00    0.1989983399E-03    0.4281227761E-01    0.4387012083E+00
    0.2700000000E+08    0.6373399802E+00    0.2450268868E+00    0.1909825277E-03    0.4281790314E-01    0.4388228073E+00
