  Pressure (Pa) 22mC5-400 (mol/kg) 3mC6-400 (mol/kg) 33mC5-400 (mol/kg) 23mC5-400 (mol/kg) C7-400 (mol/kg)
    0.1000000000E+01    0.4234006606E-02    0.1050299652E-02    0.2575730493E-03    0.9293081275E-04    0.8521797354E-02
    0.3000000000E+01    0.1253611338E-01    0.3063170364E-02    0.7486440891E-03    0.2751542391E-03    0.2485693441E-01
    0.5000000000E+01    0.2062429471E-01    0.4966999073E-02    0.1209696734E-02    0.4526864019E-03    0.4031139465E-01
    0.7000000000E+01    0.2850689059E-01    0.6770421657E-02    0.1643009237E-02    0.6257101415E-03    0.5495481282E-01
    0.9000000000E+01    0.3619181068E-01    0.8481185254E-02    0.2050636903E-02    0.7943988641E-03    0.6884966318E-01
    0.1100000000E+02    0.4368656161E-01    0.1010625972E-01    0.2434439165E-02    0.9589171421E-03    0.8205215710E-01
    0.1300000000E+02    0.5099827234E-01    0.1165193271E-01    0.2796102762E-02    0.1119421269E-02    0.9461300891E-01
    0.1500000000E+02    0.5813371754E-01    0.1312389120E-01    0.3137161645E-02    0.1276059772E-02    0.1065780920E+00
    0.1700000000E+02    0.6509933936E-01    0.1452729149E-01    0.3459014149E-02    0.1428973889E-02    0.1179890033E+00
    0.1900000000E+02    0.7190126753E-01    0.1586681973E-01    0.3762937872E-02    0.1578298011E-02    0.1288835504E+00
    0.2100000000E+02    0.7854533809E-01    0.1714674430E-01    0.4050102596E-02    0.1724160089E-02    0.1392961734E+00
    0.2300000000E+02    0.8503711074E-01    0.1837096137E-01    0.4321581565E-02    0.1866682017E-02    0.1492583123E+00
    0.2500000000E+02    0.9138188500E-01    0.1954303459E-01    0.4578361350E-02    0.2005979985E-02    0.1587987263E+00
    0.2700000000E+02    0.9758471530E-01    0.2066622983E-01    0.4821350513E-02    0.2142164812E-02    0.1679437741E+00
    0.2900000000E+02    0.1036504249E+00    0.2174354566E-01    0.5051387230E-02    0.2275342249E-02    0.1767176594E+00
    0.3100000000E+02    0.1095836191E+00    0.2277774017E-01    0.5269246029E-02    0.2405613267E-02    0.1851426464E+00
    0.3300000000E+02    0.1153886973E+00    0.2377135454E-01    0.5475643754E-02    0.2533074325E-02    0.1932392508E+00
    0.3500000000E+02    0.1210698644E+00    0.2472673405E-01    0.5671244860E-02    0.2657817617E-02    0.2010264082E+00
    0.3700000000E+02    0.1266311414E+00    0.2564604652E-01    0.5856666126E-02    0.2779931310E-02    0.2085216230E+00
    0.3900000000E+02    0.1320763756E+00    0.2653129884E-01    0.6032480866E-02    0.2899499756E-02    0.2157411019E+00
    0.4100000000E+02    0.1374092497E+00    0.2738435162E-01    0.6199222687E-02    0.3016603702E-02    0.2226998713E+00
    0.4300000000E+02    0.1426332903E+00    0.2820693225E-01    0.6357388866E-02    0.3131320476E-02    0.2294118835E+00
    0.4500000000E+02    0.1477518767E+00    0.2900064667E-01    0.6507443376E-02    0.3243724170E-02    0.2358901107E+00
    0.4700000000E+02    0.1527682479E+00    0.2976698985E-01    0.6649819619E-02    0.3353885807E-02    0.2421466299E+00
    0.4900000000E+02    0.1576855102E+00    0.3050735516E-01    0.6784922885E-02    0.3461873497E-02    0.2481926985E+00
    0.1000000000E+02    0.3996250316E-01    0.9304025674E-02    0.2245406988E-02    0.8771693525E-03    0.7553416439E-01
    0.3000000000E+02    0.1066333068E+00    0.2226586943E-01    0.5161792780E-02    0.2340834929E-02    0.1809724440E+00
    0.5000000000E+02    0.1601079116E+00    0.3086820589E-01    0.6849866669E-02    0.3515072637E-02    0.2511401247E+00
    0.7000000000E+02    0.2040168903E+00    0.3699510443E-01    0.7847243970E-02    0.4479486616E-02    0.3012520941E+00
    0.9000000000E+02    0.2407609266E+00    0.4158127600E-01    0.8429375597E-02    0.5286718329E-02    0.3388638781E+00
    0.1100000000E+03    0.2719920601E+00    0.4514322379E-01    0.8750802227E-02    0.5972995884E-02    0.3681544654E+00
    0.1300000000E+03    0.2988854208E+00    0.4798965789E-01    0.8903793537E-02    0.6564090971E-02    0.3916239500E+00
    0.1500000000E+03    0.3223005522E+00    0.5031647234E-01    0.8945969190E-02    0.7078855567E-02    0.4108602608E+00
    0.1700000000E+03    0.3428813075E+00    0.5225398408E-01    0.8914538709E-02    0.7531412042E-02    0.4269207335E+00
    0.1900000000E+03    0.3611199706E+00    0.5389226556E-01    0.8834154737E-02    0.7932559027E-02    0.4405368502E+00
    0.2100000000E+03    0.3773997148E+00    0.5529557359E-01    0.8721475677E-02    0.8290702338E-02    0.4522309223E+00
    0.2300000000E+03    0.3920234882E+00    0.5651098422E-01    0.8587928510E-02    0.8612488361E-02    0.4623859565E+00
    0.2500000000E+03    0.4052341422E+00    0.5757377794E-01    0.8441438995E-02    0.8903245416E-02    0.4712892533E+00
    0.2700000000E+03    0.4172287574E+00    0.5851091830E-01    0.8287545784E-02    0.9167297900E-02    0.4791605848E+00
    0.2900000000E+03    0.4281690340E+00    0.5934336750E-01    0.8130134799E-02    0.9408194153E-02    0.4861709622E+00
    0.3100000000E+03    0.4381889580E+00    0.6008766897E-01    0.7971933019E-02    0.9628874580E-02    0.4924554700E+00
    0.3300000000E+03    0.4474005442E+00    0.6075705400E-01    0.7814846210E-02    0.9831797595E-02    0.4981222443E+00
    0.3500000000E+03    0.4558981989E+00    0.6136223151E-01    0.7660193333E-02    0.1001903531E-01    0.5032588855E+00
    0.3700000000E+03    0.4637620751E+00    0.6191196213E-01    0.7508871334E-02    0.1019234714E-01    0.5079371204E+00
    0.3900000000E+03    0.4710606853E+00    0.6241348213E-01    0.7361472264E-02    0.1035323706E-01    0.5122162485E+00
    0.4100000000E+03    0.4778529544E+00    0.6287282133E-01    0.7218367323E-02    0.1050299874E-01    0.5161457266E+00
    0.4300000000E+03    0.4841898517E+00    0.6329504457E-01    0.7079767668E-02    0.1064275120E-01    0.5197671337E+00
    0.4500000000E+03    0.4901156975E+00    0.6368443738E-01    0.6945768702E-02    0.1077346762E-01    0.5231156822E+00
    0.4700000000E+03    0.4956692195E+00    0.6404465036E-01    0.6816382529E-02    0.1089599840E-01    0.5262213946E+00
    0.4900000000E+03    0.5008844122E+00    0.6437881262E-01    0.6691561837E-02    0.1101109009E-01    0.5291100269E+00
    0.1000000000E+03    0.2569832590E+00    0.4346755615E-01    0.8615865519E-02    0.5643170470E-02    0.3543653619E+00
    0.3000000000E+03    0.4332865810E+00    0.5972564263E-01    0.8050997555E-02    0.9520897643E-02    0.4893966450E+00
    0.5000000000E+03    0.5033746405E+00    0.6453698249E-01    0.6630836955E-02    0.1106605503E-01    0.5304800040E+00
    0.7000000000E+03    0.5411024604E+00    0.6682587387E-01    0.5624275042E-02    0.1189968689E-01    0.5505524624E+00
    0.9000000000E+03    0.5646572553E+00    0.6815427714E-01    0.4915299319E-02    0.1242132365E-01    0.5625141401E+00
    0.1100000000E+04    0.5807473069E+00    0.6901612948E-01    0.4394714643E-02    0.1277844858E-01    0.5704831636E+00
    0.1300000000E+04    0.5924274754E+00    0.6961681082E-01    0.3996790929E-02    0.1303827594E-01    0.5761874829E+00
    0.1500000000E+04    0.6012877758E+00    0.7005691750E-01    0.3682286476E-02    0.1323581672E-01    0.5804810291E+00
    0.1700000000E+04    0.6082369002E+00    0.7039147313E-01    0.3426863401E-02    0.1339109492E-01    0.5838350121E+00
    0.1900000000E+04    0.6138315525E+00    0.7065307725E-01    0.3214770651E-02    0.1351638741E-01    0.5865310600E+00
    0.2100000000E+04    0.6184316770E+00    0.7086225208E-01    0.3035408412E-02    0.1361963795E-01    0.5887480165E+00
    0.2300000000E+04    0.6222802447E+00    0.7103254839E-01    0.2881395228E-02    0.1370621280E-01    0.5906050034E+00
    0.2500000000E+04    0.6255471528E+00    0.7117326548E-01    0.2747436302E-02    0.1377986716E-01    0.5921844819E+00
    0.2700000000E+04    0.6283547475E+00    0.7129099144E-01    0.2629634940E-02    0.1384330724E-01    0.5935453817E+00
    0.2900000000E+04    0.6307933561E+00    0.7139052000E-01    0.2525058696E-02    0.1389853252E-01    0.5947309569E+00
    0.3100000000E+04    0.6329311081E+00    0.7147541958E-01    0.2431457294E-02    0.1394705225E-01    0.5957736871E+00
    0.3300000000E+04    0.6348203530E+00    0.7154839915E-01    0.2347074036E-02    0.1399002698E-01    0.5966984452E+00
    0.3500000000E+04    0.6365019750E+00    0.7161155069E-01    0.2270516549E-02    0.1402836376E-01    0.5975246079E+00
    0.3700000000E+04    0.6380083661E+00    0.7166651418E-01    0.2200666189E-02    0.1406278178E-01    0.5982674992E+00
    0.3900000000E+04    0.6393655203E+00    0.7171459250E-01    0.2136613285E-02    0.1409385860E-01    0.5989394004E+00
    0.4100000000E+04    0.6405945378E+00    0.7175683310E-01    0.2077609992E-02    0.1412206341E-01    0.5995502728E+00
    0.4300000000E+04    0.6417127239E+00    0.7179408709E-01    0.2023035419E-02    0.1414778129E-01    0.6001082823E+00
    0.4500000000E+04    0.6427344048E+00    0.7182705275E-01    0.1972369453E-02    0.1417133129E-01    0.6006201883E+00
    0.4700000000E+04    0.6436715419E+00    0.7185630798E-01    0.1925172831E-02    0.1419297997E-01    0.6010916349E+00
    0.4900000000E+04    0.6445341999E+00    0.7188233490E-01    0.1881071798E-02    0.1421295181E-01    0.6015273730E+00
    0.1000000000E+04    0.5733954377E+00    0.6862708243E-01    0.4636371611E-02    0.1261517205E-01    0.5668597506E+00
    0.3000000000E+04    0.6318962560E+00    0.7143461226E-01    0.2477005758E-02    0.1392355117E-01    0.5952684735E+00
    0.5000000000E+04    0.6449403165E+00    0.7189426692E-01    0.1860080246E-02    0.1422236955E-01    0.6017331346E+00
    0.7000000000E+04    0.6506703599E+00    0.7203443915E-01    0.1544687367E-02    0.1435661486E-01    0.6046916383E+00
    0.9000000000E+04    0.6538889163E+00    0.7207898189E-01    0.1346085822E-02    0.1443367717E-01    0.6064196271E+00
    0.1100000000E+05    0.6559497533E+00    0.7208557968E-01    0.1206665921E-02    0.1448407746E-01    0.6075669765E+00
    0.1300000000E+05    0.6573820539E+00    0.7207486768E-01    0.1102006095E-02    0.1451984011E-01    0.6083918802E+00
    0.1500000000E+05    0.6584351903E+00    0.7205569613E-01    0.1019778219E-02    0.1454667503E-01    0.6090180296E+00
    0.1700000000E+05    0.6592420495E+00    0.7203232036E-01    0.9530067207E-03    0.1456764794E-01    0.6095124050E+00
    0.1900000000E+05    0.6598799277E+00    0.7200694820E-01    0.8974123002E-03    0.1458455536E-01    0.6099145755E+00
    0.2100000000E+05    0.6603968441E+00    0.7198078503E-01    0.8502061808E-03    0.1459852162E-01    0.6102494923E+00
    0.2300000000E+05    0.6608242016E+00    0.7195451021E-01    0.8094835484E-03    0.1461028733E-01    0.6105337093E+00
    0.2500000000E+05    0.6611834010E+00    0.7192851230E-01    0.7738935290E-03    0.1462036091E-01    0.6107786658E+00
    0.2700000000E+05    0.6614895291E+00    0.7190301263E-01    0.7424481518E-03    0.1462910333E-01    0.6109925350E+00
    0.2900000000E+05    0.6617535269E+00    0.7187813343E-01    0.7144060623E-03    0.1463677824E-01    0.6111813220E+00
    0.3100000000E+05    0.6619835224E+00    0.7185393700E-01    0.6891987260E-03    0.1464358289E-01    0.6113495447E+00
    0.3300000000E+05    0.6621856794E+00    0.7183044894E-01    0.6663819236E-03    0.1464966792E-01    0.6115006715E+00
    0.3500000000E+05    0.6623647574E+00    0.7180767223E-01    0.6456028976E-03    0.1465515045E-01    0.6116374129E+00
    0.3700000000E+05    0.6625244894E+00    0.7178559601E-01    0.6265775153E-03    0.1466012298E-01    0.6117619198E+00
    0.3900000000E+05    0.6626678452E+00    0.7176420115E-01    0.6090740301E-03    0.1466465962E-01    0.6118759229E+00
    0.4100000000E+05    0.6627972163E+00    0.7174346374E-01    0.5929013006E-03    0.1466882043E-01    0.6119808315E+00
    0.4300000000E+05    0.6629145503E+00    0.7172335741E-01    0.5779000923E-03    0.1467265467E-01    0.6120778059E+00
    0.4500000000E+05    0.6630214493E+00    0.7170385474E-01    0.5639365507E-03    0.1467620315E-01    0.6121678108E+00
    0.4700000000E+05    0.6631192435E+00    0.7168492824E-01    0.5508972342E-03    0.1467949994E-01    0.6122516555E+00
    0.4900000000E+05    0.6632090461E+00    0.7166655091E-01    0.5386852849E-03    0.1468257378E-01    0.6123300245E+00
    0.1000000000E+05    0.6550211819E+00    0.7208531276E-01    0.1270918479E-02    0.1446123797E-01    0.6070450569E+00
    0.3000000000E+05    0.6618723514E+00    0.7186594761E-01    0.7014782827E-03    0.1464027902E-01    0.6112677665E+00
    0.5000000000E+05    0.6632512498E+00    0.7165755998E-01    0.5328630904E-03    0.1468403485E-01    0.6123673411E+00
    0.7000000000E+05    0.6638416595E+00    0.7150086961E-01    0.4446625612E-03    0.1470591170E-01    0.6129310525E+00
    0.9000000000E+05    0.6641689370E+00    0.7137673469E-01    0.3884602824E-03    0.1471976863E-01    0.6132925169E+00
    0.1100000000E+06    0.6643766293E+00    0.7127421478E-01    0.3487311685E-03    0.1472966243E-01    0.6135522085E+00
    0.1300000000E+06    0.6645199748E+00    0.7118697465E-01    0.3187749076E-03    0.1473725397E-01    0.6137520548E+00
    0.1500000000E+06    0.6646247503E+00    0.7111107882E-01    0.2951682871E-03    0.1474336408E-01    0.6139130654E+00
    0.1700000000E+06    0.6647045980E+00    0.7104392901E-01    0.2759578959E-03    0.1474845117E-01    0.6140470974E+00
    0.1900000000E+06    0.6647674119E+00    0.7098372407E-01    0.2599379020E-03    0.1475279436E-01    0.6141614284E+00
    0.2100000000E+06    0.6648180756E+00    0.7092916560E-01    0.2463187611E-03    0.1475657488E-01    0.6142608135E+00
    0.2300000000E+06    0.6648597720E+00    0.7087928737E-01    0.2345592074E-03    0.1475991640E-01    0.6143485140E+00
    0.2500000000E+06    0.6648946634E+00    0.7083335120E-01    0.2242742581E-03    0.1476290675E-01    0.6144268547E+00
    0.2700000000E+06    0.6649242705E+00    0.7079078054E-01    0.2151816865E-03    0.1476561033E-01    0.6144975462E+00
    0.2900000000E+06    0.6649496933E+00    0.7075111658E-01    0.2070693029E-03    0.1476807567E-01    0.6145618803E+00
    0.3100000000E+06    0.6649717472E+00    0.7071398826E-01    0.1997741185E-03    0.1477034017E-01    0.6146208548E+00
    0.3300000000E+06    0.6649910495E+00    0.7067909126E-01    0.1931686099E-03    0.1477243323E-01    0.6146752551E+00
    0.3500000000E+06    0.6650080757E+00    0.7064617289E-01    0.1871513926E-03    0.1477437834E-01    0.6147257094E+00
    0.3700000000E+06    0.6650231983E+00    0.7061502110E-01    0.1816407240E-03    0.1477619456E-01    0.6147727277E+00
    0.3900000000E+06    0.6650367129E+00    0.7058545614E-01    0.1765698756E-03    0.1477789753E-01    0.6148167294E+00
    0.4100000000E+06    0.6650488574E+00    0.7055732438E-01    0.1718837695E-03    0.1477950026E-01    0.6148580630E+00
    0.4300000000E+06    0.6650598250E+00    0.7053049345E-01    0.1675364919E-03    0.1478101368E-01    0.6148970210E+00
    0.4500000000E+06    0.6650697746E+00    0.7050484851E-01    0.1634894250E-03    0.1478244702E-01    0.6149338516E+00
    0.4700000000E+06    0.6650788377E+00    0.7048028928E-01    0.1597098235E-03    0.1478380820E-01    0.6149687665E+00
    0.4900000000E+06    0.6650871243E+00    0.7045672766E-01    0.1561697166E-03    0.1478510402E-01    0.6150019480E+00
    0.1000000000E+06    0.6642832433E+00    0.7132324312E-01    0.3670669273E-03    0.1472507806E-01    0.6134317443E+00
    0.3000000000E+06    0.6649610989E+00    0.7073225585E-01    0.2033282361E-03    0.1476923103E-01    0.6145919842E+00
    0.5000000000E+06    0.6650910060E+00    0.7044529630E-01    0.1544818232E-03    0.1478572928E-01    0.6150179389E+00
    0.7000000000E+06    0.6651442006E+00    0.7025417371E-01    0.1289054631E-03    0.1479589551E-01    0.6152760043E+00
    0.9000000000E+06    0.6651723485E+00    0.7011069876E-01    0.1126041024E-03    0.1480323912E-01    0.6154600416E+00
    0.1100000000E+07    0.6651893534E+00    0.6999581357E-01    0.1010802891E-03    0.1480898552E-01    0.6156026168E+00
    0.1300000000E+07    0.6652004905E+00    0.6990000820E-01    0.9239140126E-04    0.1481370480E-01    0.6157187661E+00
    0.1500000000E+07    0.6652081874E+00    0.6981784679E-01    0.8554456929E-04    0.1481770821E-01    0.6158166390E+00
    0.1700000000E+07    0.6652137109E+00    0.6974592887E-01    0.7997312040E-04    0.1482118422E-01    0.6159011373E+00
    0.1900000000E+07    0.6652177836E+00    0.6968198507E-01    0.7532721891E-04    0.1482425556E-01    0.6159754338E+00
    0.2100000000E+07    0.6652208461E+00    0.6962442528E-01    0.7137779401E-04    0.1482700659E-01    0.6160416976E+00
    0.2300000000E+07    0.6652231815E+00    0.6957209200E-01    0.6796780688E-04    0.1482949781E-01    0.6161014763E+00
    0.2500000000E+07    0.6652249792E+00    0.6952411638E-01    0.6498556260E-04    0.1483177405E-01    0.6161559115E+00
    0.2700000000E+07    0.6652263702E+00    0.6947982962E-01    0.6234918050E-04    0.1483386948E-01    0.6162058694E+00
    0.2900000000E+07    0.6652274480E+00    0.6943870589E-01    0.5999710097E-04    0.1483581069E-01    0.6162520224E+00
    0.3100000000E+07    0.6652282808E+00    0.6940032429E-01    0.5788203975E-04    0.1483761885E-01    0.6162949027E+00
    0.3300000000E+07    0.6652289192E+00    0.6936434269E-01    0.5596700251E-04    0.1483931102E-01    0.6163349389E+00
    0.3500000000E+07    0.6652294017E+00    0.6933047918E-01    0.5422257876E-04    0.1484090119E-01    0.6163724806E+00
    0.3700000000E+07    0.6652297579E+00    0.6929849879E-01    0.5262505668E-04    0.1484240096E-01    0.6164078173E+00
    0.3900000000E+07    0.6652300109E+00    0.6926820354E-01    0.5115508029E-04    0.1484382006E-01    0.6164411909E+00
    0.4100000000E+07    0.6652301789E+00    0.6923942512E-01    0.4979667369E-04    0.1484516673E-01    0.6164728059E+00
    0.4300000000E+07    0.6652302765E+00    0.6921201924E-01    0.4853651948E-04    0.1484644801E-01    0.6165028365E+00
    0.4500000000E+07    0.6652303155E+00    0.6918586121E-01    0.4736341683E-04    0.1484766995E-01    0.6165314322E+00
    0.4700000000E+07    0.6652303053E+00    0.6916084263E-01    0.4626786849E-04    0.1484883781E-01    0.6165587228E+00
    0.4900000000E+07    0.6652302538E+00    0.6913686861E-01    0.4524176217E-04    0.1484995617E-01    0.6165848208E+00
    0.1000000000E+07    0.6651818136E+00    0.7005040972E-01    0.1063987453E-03    0.1480626771E-01    0.6155353421E+00
    0.3000000000E+07    0.6652278915E+00    0.6941919531E-01    0.5891245979E-04    0.1483673025E-01    0.6162738428E+00
    0.5000000000E+07    0.6652302146E+00    0.6912524681E-01    0.4475253100E-04    0.1485049808E-01    0.6165974540E+00
    0.7000000000E+07    0.6652283580E+00    0.6893177047E-01    0.3733992358E-04    0.1485950020E-01    0.6168061715E+00
    0.9000000000E+07    0.6652257461E+00    0.6878739031E-01    0.3261605697E-04    0.1486620117E-01    0.6169602145E+00
    0.1100000000E+08    0.6652230764E+00    0.6867220326E-01    0.2927695429E-04    0.1487154150E-01    0.6170822343E+00
    0.1300000000E+08    0.6652205290E+00    0.6857638744E-01    0.2675946284E-04    0.1487598179E-01    0.6171832176E+00
    0.1500000000E+08    0.6652181469E+00    0.6849436877E-01    0.2477578860E-04    0.1487978227E-01    0.6172693268E+00
    0.1700000000E+08    0.6652159314E+00    0.6842267790E-01    0.2316168947E-04    0.1488310442E-01    0.6173443643E+00
    0.1900000000E+08    0.6652138706E+00    0.6835900828E-01    0.2181577757E-04    0.1488605536E-01    0.6174108411E+00
    0.2100000000E+08    0.6652119497E+00    0.6830174854E-01    0.2067166837E-04    0.1488870983E-01    0.6174705020E+00
    0.2300000000E+08    0.6652101537E+00    0.6824972850E-01    0.1968385439E-04    0.1489112205E-01    0.6175246086E+00
    0.2500000000E+08    0.6652084692E+00    0.6820207156E-01    0.1881996946E-04    0.1489333258E-01    0.6175741021E+00
    0.2700000000E+08    0.6652068842E+00    0.6815810405E-01    0.1805628765E-04    0.1489537260E-01    0.6176197037E+00
