  Pressure (Pa) 22mC5-400 (mol/kg) 3mC6-400 (mol/kg) 33mC5-400 (mol/kg) 23mC5-400 (mol/kg) C7-400 (mol/kg)
    0.1000000000E+01    0.4234014551E-02    0.2639381580E-02    0.2586578394E-03    0.9293098706E-04    0.3426329725E-02
    0.3000000000E+01    0.1253618289E-01    0.7775052437E-02    0.7579263136E-03    0.2751557642E-03    0.1009409198E-01
    0.5000000000E+01    0.2062448245E-01    0.1272843452E-01    0.1234238753E-02    0.4526905216E-03    0.1652629208E-01
    0.7000000000E+01    0.2850724856E-01    0.1750910314E-01    0.1688844582E-02    0.6257179964E-03    0.2273528419E-01
    0.9000000000E+01    0.3619238653E-01    0.2212597383E-01    0.2122909747E-02    0.7944115001E-03    0.2873257189E-01
    0.1100000000E+02    0.4368739902E-01    0.2658735818E-01    0.2537523453E-02    0.9589355175E-03    0.3452888018E-01
    0.1300000000E+02    0.5099941130E-01    0.3090101420E-01    0.2933704263E-02    0.1119446261E-02    0.4013422026E-01
    0.1500000000E+02    0.5813519466E-01    0.3507419160E-01    0.3312405615E-02    0.1276092185E-02    0.4555794804E-01
    0.1700000000E+02    0.6510118811E-01    0.3911367280E-01    0.3674520838E-02    0.1429014457E-02    0.5080881685E-01
    0.1900000000E+02    0.7190351851E-01    0.4302580997E-01    0.4020887711E-02    0.1578347405E-02    0.5589502526E-01
    0.2100000000E+02    0.7854801921E-01    0.4681655867E-01    0.4352292615E-02    0.1724218922E-02    0.6082426033E-01
    0.2300000000E+02    0.8504024745E-01    0.5049150825E-01    0.4669474318E-02    0.1866750847E-02    0.6560373698E-01
    0.2500000000E+02    0.9138550048E-01    0.5405590967E-01    0.4973127434E-02    0.2006059322E-02    0.7024023363E-01
    0.2700000000E+02    0.9758883062E-01    0.5751470070E-01    0.5263905583E-02    0.2142255118E-02    0.7474012481E-01
    0.2900000000E+02    0.1036550592E+00    0.6087252891E-01    0.5542424288E-02    0.2275443944E-02    0.7910941080E-01
    0.3100000000E+02    0.1095887896E+00    0.6413377275E-01    0.5809263633E-02    0.2405726730E-02    0.8335374469E-01
    0.3300000000E+02    0.1153944197E+00    0.6730256068E-01    0.6064970699E-02    0.2533199898E-02    0.8747845719E-01
    0.3500000000E+02    0.1210761527E+00    0.7038278886E-01    0.6310061803E-02    0.2657955611E-02    0.9148857931E-01
    0.3700000000E+02    0.1266380084E+00    0.7337813719E-01    0.6545024566E-02    0.2780082002E-02    0.9538886311E-01
    0.3900000000E+02    0.1320838326E+00    0.7629208416E-01    0.6770319811E-02    0.2899663395E-02    0.9918380081E-01
    0.4100000000E+02    0.1374173066E+00    0.7912792043E-01    0.6986383314E-02    0.3016780509E-02    0.1028776423E+00
    0.4300000000E+02    0.1426419563E+00    0.8188876137E-01    0.7193627425E-02    0.3131510648E-02    0.1064744114E+00
    0.4500000000E+02    0.1477611595E+00    0.8457755854E-01    0.7392442565E-02    0.3243927880E-02    0.1099779204E+00
    0.4700000000E+02    0.1527781545E+00    0.8719711039E-01    0.7583198610E-02    0.3354103206E-02    0.1133917842E+00
    0.4900000000E+02    0.1576960465E+00    0.8975007199E-01    0.7766246170E-02    0.3462104718E-02    0.1167194327E+00
    0.1000000000E+02    0.3996320457E-01    0.2437560450E-01    0.2332582784E-02    0.8771847436E-03    0.3165520674E-01
    0.3000000000E+02    0.1066382071E+00    0.6251496020E-01    0.5677268942E-02    0.2340942462E-02    0.8124685630E-01
    0.5000000000E+02    0.1601187647E+00    0.9100237422E-01    0.7854983861E-02    0.3515310812E-02    0.1183519503E+00
    0.7000000000E+02    0.2040342211E+00    0.1131019342E+00    0.9297315278E-02    0.4479866965E-02    0.1471859821E+00
    0.9000000000E+02    0.2407846855E+00    0.1307534897E+00    0.1025812173E-01    0.5287239785E-02    0.1702557083E+00
    0.1100000000E+03    0.2720219347E+00    0.1451826106E+00    0.1089430178E-01    0.5973651605E-02    0.1891457911E+00
    0.1300000000E+03    0.2989209888E+00    0.1572017966E+00    0.1130664390E-01    0.6564871705E-02    0.2049074042E+00
    0.1500000000E+03    0.3223413582E+00    0.1673710901E+00    0.1156192735E-01    0.7079751328E-02    0.2182655226E+00
    0.1700000000E+03    0.3429269005E+00    0.1760891360E+00    0.1170553234E-01    0.7532412947E-02    0.2297364882E+00
    0.1900000000E+03    0.3611699231E+00    0.1836474658E+00    0.1176895223E-01    0.7933655695E-02    0.2396981214E+00
    0.2100000000E+03    0.3774536297E+00    0.1902642448E+00    0.1177443160E-01    0.8291886064E-02    0.2484333222E+00
    0.2300000000E+03    0.3920810020E+00    0.1961060103E+00    0.1173791762E-01    0.8613751171E-02    0.2561581659E+00
    0.2500000000E+03    0.4052949244E+00    0.2013021090E+00    0.1167098716E-01    0.8904580057E-02    0.2630405697E+00
    0.2700000000E+03    0.4172925084E+00    0.2059545430E+00    0.1158213359E-01    0.9168697802E-02    0.2692130269E+00
    0.2900000000E+03    0.4282354831E+00    0.2101448432E+00    0.1147764305E-01    0.9409653377E-02    0.2747814997E+00
    0.3100000000E+03    0.4382578607E+00    0.2139389666E+00    0.1136220141E-01    0.9630387760E-02    0.2798317584E+00
    0.3300000000E+03    0.4474716799E+00    0.2173908518E+00    0.1123932134E-01    0.9833359888E-02    0.2844339833E+00
    0.3500000000E+03    0.4559713679E+00    0.2205450410E+00    0.1111164682E-01    0.1002064234E-01    0.2886461617E+00
    0.3700000000E+03    0.4638370972E+00    0.2234386444E+00    0.1098117298E-01    0.1019399493E-01    0.2925166325E+00
    0.3900000000E+03    0.4711373968E+00    0.2261028308E+00    0.1084940666E-01    0.1035492205E-01    0.2960860183E+00
    0.4100000000E+03    0.4779312073E+00    0.2285639729E+00    0.1071748463E-01    0.1050471765E-01    0.2993887099E+00
    0.4300000000E+03    0.4842695114E+00    0.2308445376E+00    0.1058626176E-01    0.1064450109E-01    0.3024540210E+00
    0.4500000000E+03    0.4901966418E+00    0.2329637842E+00    0.1045637693E-01    0.1077524580E-01    0.3053070945E+00
    0.4700000000E+03    0.4957513369E+00    0.2349383185E+00    0.1032830304E-01    0.1089780243E-01    0.3079696208E+00
    0.4900000000E+03    0.5009676013E+00    0.2367825352E+00    0.1020238491E-01    0.1101291773E-01    0.3104604130E+00
    0.1000000000E+03    0.2570101241E+00    0.1383127285E+00    0.1060949626E-01    0.5643760117E-02    0.1801480184E+00
    0.3000000000E+03    0.4333542859E+00    0.2120878086E+00    0.1142104813E-01    0.9522384482E-02    0.2773666988E+00
    0.5000000000E+03    0.5034583301E+00    0.2376597575E+00    0.1014031429E-01    0.1106789371E-01    0.3116466170E+00
    0.7000000000E+03    0.5411925519E+00    0.2506951533E+00    0.9040009206E-02    0.1190166694E-01    0.3294081566E+00
    0.9000000000E+03    0.5647496722E+00    0.2586092104E+00    0.8187822584E-02    0.1242335543E-01    0.3403640867E+00
    0.1100000000E+04    0.5808401329E+00    0.2639259355E+00    0.7520315834E-02    0.1278048992E-01    0.3478399265E+00
    0.1300000000E+04    0.5925197542E+00    0.2677428122E+00    0.6984428239E-02    0.1304030573E-01    0.3532898665E+00
    0.1500000000E+04    0.6013790182E+00    0.2706146490E+00    0.6543923055E-02    0.1323782416E-01    0.3574531113E+00
    0.1700000000E+04    0.6083268600E+00    0.2728523901E+00    0.6174390833E-02    0.1339307455E-01    0.3607462073E+00
    0.1900000000E+04    0.6139201155E+00    0.2746439536E+00    0.5859058033E-02    0.1351833667E-01    0.3634222465E+00
    0.2100000000E+04    0.6185188032E+00    0.2761096497E+00    0.5586088906E-02    0.1362155592E-01    0.3656441281E+00
    0.2300000000E+04    0.6223659364E+00    0.2773300998E+00    0.5346910661E-02    0.1370809951E-01    0.3675215881E+00
    0.2500000000E+04    0.6256314362E+00    0.2783613659E+00    0.5135163448E-02    0.1378172315E-01    0.3691313338E+00
    0.2700000000E+04    0.6284376623E+00    0.2792436463E+00    0.4946027137E-02    0.1384513336E-01    0.3705286526E+00
    0.2900000000E+04    0.6308749490E+00    0.2800065179E+00    0.4775778646E-02    0.1390032979E-01    0.3717544335E+00
    0.3100000000E+04    0.6330114289E+00    0.2806722280E+00    0.4621493574E-02    0.1394882173E-01    0.3728395909E+00
    0.3300000000E+04    0.6348994524E+00    0.2812578328E+00    0.4480840369E-02    0.1399176978E-01    0.3738079462E+00
    0.3500000000E+04    0.6365799030E+00    0.2817766276E+00    0.4351935297E-02    0.1403008096E-01    0.3746781629E+00
    0.3700000000E+04    0.6380851712E+00    0.2822391292E+00    0.4233238229E-02    0.1406447444E-01    0.3754650789E+00
    0.3900000000E+04    0.6394412493E+00    0.2826537654E+00    0.4123476440E-02    0.1409552773E-01    0.3761806444E+00
    0.4100000000E+04    0.6406692351E+00    0.2830273690E+00    0.4021587994E-02    0.1412370999E-01    0.3768345964E+00
    0.4300000000E+04    0.6417864318E+00    0.2833655374E+00    0.3926679046E-02    0.1414940624E-01    0.3774349517E+00
    0.4500000000E+04    0.6428071634E+00    0.2836728997E+00    0.3837991228E-02    0.1417293548E-01    0.3779883730E+00
    0.4700000000E+04    0.6437433889E+00    0.2839533173E+00    0.3754876417E-02    0.1419456422E-01    0.3785004455E+00
    0.4900000000E+04    0.6446051710E+00    0.2842100363E+00    0.3676777006E-02    0.1421451690E-01    0.3789758877E+00
    0.1000000000E+04    0.5734882221E+00    0.2615052257E+00    0.7834743320E-02    0.1261721220E-01    0.3444218974E+00
    0.3000000000E+04    0.6319772066E+00    0.2803503499E+00    0.4696798361E-02    0.1392533440E-01    0.3723129613E+00
    0.5000000000E+04    0.6450108623E+00    0.2843303844E+00    0.3639454668E-02    0.1422392534E-01    0.3792011509E+00
    0.7000000000E+04    0.6507338436E+00    0.2859815134E+00    0.3067266674E-02    0.1435801611E-01    0.3825031339E+00
    0.9000000000E+04    0.6539472646E+00    0.2868481630E+00    0.2696167779E-02    0.1443496601E-01    0.3845025181E+00
    0.1100000000E+05    0.6560041541E+00    0.2873613038E+00    0.2430870253E-02    0.1448527985E-01    0.3858710604E+00
    0.1300000000E+05    0.6574332953E+00    0.2876874642E+00    0.2229234843E-02    0.1452097332E-01    0.3868815444E+00
    0.1500000000E+05    0.6584838262E+00    0.2879040657E+00    0.2069384049E-02    0.1454775118E-01    0.3876670405E+00
    0.1700000000E+05    0.6592884865E+00    0.2880517392E+00    0.1938687639E-02    0.1456867592E-01    0.3883007587E+00
    0.1900000000E+05    0.6599244750E+00    0.2881537232E+00    0.1829279011E-02    0.1458554196E-01    0.3888265702E+00
    0.2100000000E+05    0.6604397435E+00    0.2882241930E+00    0.1735970417E-02    0.1459947213E-01    0.3892725042E+00
    0.2300000000E+05    0.6608656463E+00    0.2882722389E+00    0.1655184493E-02    0.1461120599E-01    0.3896573844E+00
    0.2500000000E+05    0.6612235485E+00    0.2883039284E+00    0.1584364197E-02    0.1462125116E-01    0.3899943679E+00
    0.2700000000E+05    0.6615285098E+00    0.2883234457E+00    0.1521627067E-02    0.1462996803E-01    0.3902929576E+00
    0.2900000000E+05    0.6617914505E+00    0.2883337559E+00    0.1465552602E-02    0.1463761980E-01    0.3905602071E+00
    0.3100000000E+05    0.6620204819E+00    0.2883370087E+00    0.1415046166E-02    0.1464440334E-01    0.3908014749E+00
    0.3300000000E+05    0.6622217545E+00    0.2883347937E+00    0.1369248871E-02    0.1465046901E-01    0.3910209137E+00
    0.3500000000E+05    0.6624000173E+00    0.2883283057E+00    0.1327476138E-02    0.1465593370E-01    0.3912217976E+00
    0.3700000000E+05    0.6625589946E+00    0.2883184566E+00    0.1289174754E-02    0.1466088971E-01    0.3914067473E+00
    0.3900000000E+05    0.6627016488E+00    0.2883059507E+00    0.1253892178E-02    0.1466541099E-01    0.3915778890E+00
    0.4100000000E+05    0.6628303653E+00    0.2882913385E+00    0.1221254176E-02    0.1466955748E-01    0.3917369677E+00
    0.4300000000E+05    0.6629470865E+00    0.2882750543E+00    0.1190948238E-02    0.1467337832E-01    0.3918854316E+00
    0.4500000000E+05    0.6630534104E+00    0.2882574438E+00    0.1162711098E-02    0.1467691421E-01    0.3920244935E+00
    0.4700000000E+05    0.6631506631E+00    0.2882387841E+00    0.1136319191E-02    0.1468019916E-01    0.3921551782E+00
    0.4900000000E+05    0.6632399547E+00    0.2882192992E+00    0.1111581293E-02    0.1468326182E-01    0.3922783586E+00
    0.1000000000E+05    0.6550774382E+00    0.2871353870E+00    0.2553612509E-02    0.1446248099E-01    0.3852437547E+00
    0.3000000000E+05    0.6619097821E+00    0.2883361543E+00    0.1439661757E-02    0.1464110979E-01    0.3906838053E+00
    0.5000000000E+05    0.6632819135E+00    0.2882093054E+00    0.1099780234E-02    0.1468471754E-01    0.3923373727E+00
    0.7000000000E+05    0.6638684998E+00    0.2879959258E+00    0.9204679860E-03    0.1470651082E-01    0.3932599215E+00
    0.9000000000E+05    0.6641932198E+00    0.2877879508E+00    0.8056972641E-03    0.1472031191E-01    0.3938864154E+00
    0.1100000000E+06    0.6643990389E+00    0.2875981495E+00    0.7243331802E-03    0.1473016487E-01    0.3943560205E+00
    0.1300000000E+06    0.6645409319E+00    0.2874266813E+00    0.6628572466E-03    0.1473772479E-01    0.3947295358E+00
    0.1500000000E+06    0.6646445361E+00    0.2872713855E+00    0.6143355009E-03    0.1474380942E-01    0.3950385818E+00
    0.1700000000E+06    0.6647234117E+00    0.2871299255E+00    0.5747998934E-03    0.1474887539E-01    0.3953015704E+00
    0.1900000000E+06    0.6647854009E+00    0.2870002528E+00    0.5417956178E-03    0.1475320069E-01    0.3955301099E+00
    0.2100000000E+06    0.6648353528E+00    0.2868806659E+00    0.5137125350E-03    0.1475696578E-01    0.3957319651E+00
    0.2300000000E+06    0.6648764261E+00    0.2867697710E+00    0.4894452409E-03    0.1476029382E-01    0.3959125728E+00
    0.2500000000E+06    0.6649107659E+00    0.2866664258E+00    0.4682065484E-03    0.1476327224E-01    0.3960758815E+00
    0.2700000000E+06    0.6649398797E+00    0.2865696893E+00    0.4494187776E-03    0.1476596517E-01    0.3962248449E+00
    0.2900000000E+06    0.6649648578E+00    0.2864787804E+00    0.4326472099E-03    0.1476842091E-01    0.3963617280E+00
    0.3100000000E+06    0.6649865080E+00    0.2863930449E+00    0.4175576571E-03    0.1477067671E-01    0.3964883046E+00
    0.3300000000E+06    0.6650054414E+00    0.2863119310E+00    0.4038884603E-03    0.1477276183E-01    0.3966059883E+00
    0.3500000000E+06    0.6650221287E+00    0.2862349691E+00    0.3914314589E-03    0.1477469966E-01    0.3967159236E+00
    0.3700000000E+06    0.6650369384E+00    0.2861617571E+00    0.3800187222E-03    0.1477650916E-01    0.3968190494E+00
    0.3900000000E+06    0.6650501630E+00    0.2860919476E+00    0.3695130899E-03    0.1477820591E-01    0.3969161456E+00
    0.4100000000E+06    0.6650620376E+00    0.2860252392E+00    0.3598012937E-03    0.1477980286E-01    0.3970078662E+00
    0.4300000000E+06    0.6650727531E+00    0.2859613686E+00    0.3507888679E-03    0.1478131087E-01    0.3970947656E+00
    0.4500000000E+06    0.6650824665E+00    0.2859001042E+00    0.3423963244E-03    0.1478273917E-01    0.3971773172E+00
    0.4700000000E+06    0.6650913077E+00    0.2858412417E+00    0.3345562358E-03    0.1478409561E-01    0.3972559285E+00
    0.4900000000E+06    0.6650993852E+00    0.2857845998E+00    0.3272109846E-03    0.1478538696E-01    0.3973309528E+00
    0.1000000000E+06    0.6643065246E+00    0.2876906647E+00    0.7619080929E-03    0.1472559950E-01    0.3941360381E+00
    0.3000000000E+06    0.6649760569E+00    0.2864353026E+00    0.4249099780E-03    0.1476957182E-01    0.3964262091E+00
    0.5000000000E+06    0.6651031668E+00    0.2857570604E+00    0.3237081588E-03    0.1478601009E-01    0.3973672177E+00
    0.7000000000E+06    0.6651548080E+00    0.2852914904E+00    0.2705751361E-03    0.1479614335E-01    0.3979619362E+00
    0.9000000000E+06    0.6651819251E+00    0.2849364811E+00    0.2366522583E-03    0.1480346529E-01    0.3983963087E+00
    0.1100000000E+07    0.6651981786E+00    0.2846493777E+00    0.2126412863E-03    0.1480919605E-01    0.3987381788E+00
    0.1300000000E+07    0.6652087350E+00    0.2844082713E+00    0.1945192287E-03    0.1481390334E-01    0.3990198779E+00
    0.1500000000E+07    0.6652159645E+00    0.2842004048E+00    0.1802274018E-03    0.1481789719E-01    0.3992593274E+00
    0.1700000000E+07    0.6652211007E+00    0.2840176919E+00    0.1685896749E-03    0.1482136534E-01    0.3994674915E+00
    0.1900000000E+07    0.6652248453E+00    0.2838546828E+00    0.1588793728E-03    0.1482443008E-01    0.3996515635E+00
    0.2100000000E+07    0.6652276249E+00    0.2837075284E+00    0.1506203419E-03    0.1482717546E-01    0.3998165161E+00
    0.2300000000E+07    0.6652297129E+00    0.2835734092E+00    0.1434859590E-03    0.1482966178E-01    0.3999659291E+00
    0.2500000000E+07    0.6652312916E+00    0.2834501974E+00    0.1372437863E-03    0.1483193372E-01    0.4001024649E+00
    0.2700000000E+07    0.6652324869E+00    0.2833362477E+00    0.1317233477E-03    0.1483402532E-01    0.4002281571E+00
    0.2900000000E+07    0.6652333884E+00    0.2832302615E+00    0.1267964196E-03    0.1483596313E-01    0.4003445935E+00
    0.3100000000E+07    0.6652340612E+00    0.2831311957E+00    0.1223644734E-03    0.1483776821E-01    0.4004530379E+00
    0.3300000000E+07    0.6652345534E+00    0.2830382000E+00    0.1183503938E-03    0.1483945759E-01    0.4005545120E+00
    0.3500000000E+07    0.6652349017E+00    0.2829505718E+00    0.1146928530E-03    0.1484104522E-01    0.4006498539E+00
    0.3700000000E+07    0.6652351340E+00    0.2828677239E+00    0.1113423909E-03    0.1484254266E-01    0.4007397595E+00
    0.3900000000E+07    0.6652352721E+00    0.2827891608E+00    0.1082586207E-03    0.1484395962E-01    0.4008248125E+00
    0.4100000000E+07    0.6652353333E+00    0.2827144601E+00    0.1054081991E-03    0.1484530431E-01    0.4009055079E+00
    0.4300000000E+07    0.6652353311E+00    0.2826432592E+00    0.1027633241E-03    0.1484658375E-01    0.4009822685E+00
    0.4500000000E+07    0.6652352766E+00    0.2825752442E+00    0.1003006064E-03    0.1484780399E-01    0.4010554587E+00
    0.4700000000E+07    0.6652351786E+00    0.2825101416E+00    0.9800020918E-04    0.1484897026E-01    0.4011253945E+00
    0.4900000000E+07    0.6652350444E+00    0.2824477119E+00    0.9584518484E-04    0.1485008714E-01    0.4011923519E+00
    0.1000000000E+07    0.6651909882E+00    0.2847861062E+00    0.2237260531E-03    0.1480648549E-01    0.3985763089E+00
    0.3000000000E+07    0.6652337501E+00    0.2831799206E+00    0.1245238192E-03    0.1483688111E-01    0.4003997459E+00
    0.5000000000E+07    0.6652349656E+00    0.2824174323E+00    0.9481755127E-04    0.1485062833E-01    0.4012247906E+00
    0.7000000000E+07    0.6652324946E+00    0.2819119197E+00    0.7923448066E-04    0.1485961982E-01    0.4017631070E+00
    0.9000000000E+07    0.6652294751E+00    0.2815330610E+00    0.6928989285E-04    0.1486631422E-01    0.4021630557E+00
    0.1100000000E+08    0.6652265084E+00    0.2812299010E+00    0.6225300707E-04    0.1487165007E-01    0.4024812888E+00
    0.1300000000E+08    0.6652237314E+00    0.2809771527E+00    0.5694304292E-04    0.1487608715E-01    0.4027455359E+00
    0.1500000000E+08    0.6652211644E+00    0.2807604082E+00    0.5275600529E-04    0.1487988522E-01    0.4029714492E+00
    0.1700000000E+08    0.6652187957E+00    0.2805706729E+00    0.4934693177E-04    0.1488320552E-01    0.4031687331E+00
    0.1900000000E+08    0.6652166051E+00    0.2804019524E+00    0.4650273449E-04    0.1488615502E-01    0.4033438207E+00
    0.2100000000E+08    0.6652145722E+00    0.2802500508E+00    0.4408381266E-04    0.1488880834E-01    0.4035011956E+00
    0.2300000000E+08    0.6652126783E+00    0.2801119157E+00    0.4199441950E-04    0.1489121964E-01    0.4036441079E+00
    0.2500000000E+08    0.6652109071E+00    0.2799852572E+00    0.4016642627E-04    0.1489342943E-01    0.4037749884E+00
    0.2700000000E+08    0.6652092446E+00    0.2798683133E+00    0.3854987074E-04    0.1489546884E-01    0.4038957030E+00
