  Pressure (Pa) 22mC5-400 (mol/kg) 3mC6-400 (mol/kg) 33mC5-400 (mol/kg) 23mC5-400 (mol/kg) C7-400 (mol/kg)
    0.1000000000E+01    0.4231706650E-02    0.1060882194E-02    0.2595835503E-03    0.4644018887E-03    0.1721447811E-02
    0.3000000000E+01    0.1251597799E-01    0.3154955492E-02    0.7660214049E-03    0.1373563465E-02    0.5119606879E-02
    0.5000000000E+01    0.2056986641E-01    0.5212911743E-02    0.1256096596E-02    0.2257464214E-02    0.8459415214E-02
    0.7000000000E+01    0.2840303919E-01    0.7235686974E-02    0.1730505567E-02    0.3117163823E-02    0.1174238322E-01
    0.9000000000E+01    0.3602462740E-01    0.9224185060E-02    0.2189907010E-02    0.3953663210E-02    0.1496996942E-01
    0.1100000000E+02    0.4344326247E-01    0.1117927910E-01    0.2634924364E-02    0.4767908536E-02    0.1814358272E-01
    0.1300000000E+02    0.5066710993E-01    0.1310181270E-01    0.3066148115E-02    0.5560794894E-02    0.2126458445E-01
    0.1500000000E+02    0.5770390035E-01    0.1499260123E-01    0.3484137923E-02    0.6333169708E-02    0.2433429036E-01
    0.1700000000E+02    0.6456095793E-01    0.1685243300E-01    0.3889424581E-02    0.7085835858E-02    0.2735397256E-01
    0.1900000000E+02    0.7124522679E-01    0.1868207033E-01    0.4282511836E-02    0.7819554572E-02    0.3032486126E-01
    0.2100000000E+02    0.7776329537E-01    0.2048225066E-01    0.4663878059E-02    0.8535048088E-02    0.3324814654E-01
    0.2300000000E+02    0.8412141884E-01    0.2225368756E-01    0.5033977814E-02    0.9233002120E-02    0.3612497992E-01
    0.2500000000E+02    0.9032553995E-01    0.2399707163E-01    0.5393243290E-02    0.9914068137E-02    0.3895647594E-01
    0.2700000000E+02    0.9638130828E-01    0.2571307149E-01    0.5742085651E-02    0.1057886547E-01    0.4174371364E-01
    0.2900000000E+02    0.1022940981E+00    0.2740233461E-01    0.6080896277E-02    0.1122798329E-01    0.4448773795E-01
    0.3100000000E+02    0.1080690250E+00    0.2906548814E-01    0.6410047921E-02    0.1186198240E-01    0.4718956103E-01
    0.3300000000E+02    0.1137109613E+00    0.3070313970E-01    0.6729895793E-02    0.1248139692E-01    0.4985016356E-01
    0.3500000000E+02    0.1192245500E+00    0.3231587815E-01    0.7040778559E-02    0.1308673589E-01    0.5247049593E-01
    0.3700000000E+02    0.1246142188E+00    0.3390427433E-01    0.7343019282E-02    0.1367848469E-01    0.5505147943E-01
    0.3900000000E+02    0.1298841919E+00    0.3546888166E-01    0.7636926293E-02    0.1425710643E-01    0.5759400734E-01
    0.4100000000E+02    0.1350385017E+00    0.3701023690E-01    0.7922794012E-02    0.1482304320E-01    0.6009894599E-01
    0.4300000000E+02    0.1400809997E+00    0.3852886072E-01    0.8200903706E-02    0.1537671723E-01    0.6256713578E-01
    0.4500000000E+02    0.1450153666E+00    0.4002525831E-01    0.8471524204E-02    0.1591853206E-01    0.6499939212E-01
    0.4700000000E+02    0.1498451214E+00    0.4149991992E-01    0.8734912569E-02    0.1644887348E-01    0.6739650640E-01
    0.4900000000E+02    0.1545736304E+00    0.4295332149E-01    0.8991314718E-02    0.1696811056E-01    0.6975924680E-01
    0.1000000000E+02    0.3975879319E-01    0.1020585418E-01    0.2414176046E-02    0.4363510532E-02    0.1656343651E-01
    0.3000000000E+02    0.1051984844E+00    0.2823713665E-01    0.6246656872E-02    0.1154683870E-01    0.4584386263E-01
    0.5000000000E+02    0.1569009300E+00    0.4367219468E-01    0.9116969910E-02    0.1722367596E-01    0.7092796074E-01
    0.7000000000E+02    0.1988458037E+00    0.5703919282E-01    0.1131546143E-01    0.2183031874E-01    0.9266821925E-01
    0.9000000000E+02    0.2336002210E+00    0.6873176921E-01    0.1302940973E-01    0.2564822597E-01    0.1117001177E+00
    0.1100000000E+03    0.2628957440E+00    0.7904933443E-01    0.1438450945E-01    0.2886726165E-01    0.1285071205E+00
    0.1300000000E+03    0.2879439272E+00    0.8822369995E-01    0.1546792024E-01    0.3162028219E-01    0.1434636230E+00
    0.1500000000E+03    0.3096188012E+00    0.9643715702E-01    0.1634175601E-01    0.3400313950E-01    0.1568641099E+00
    0.1700000000E+03    0.3285674248E+00    0.1038350460E+00    0.1705132491E-01    0.3608680000E-01    0.1689434294E+00
    0.1900000000E+03    0.3452795487E+00    0.1105346804E+00    0.1763034748E-01    0.3792498161E-01    0.1798911885E+00
    0.2100000000E+03    0.3601330205E+00    0.1166318028E+00    0.1810436421E-01    0.3955913160E-01    0.1898621681E+00
    0.2300000000E+03    0.3734242581E+00    0.1222053330E+00    0.1849302107E-01    0.4102176760E-01    0.1989839850E+00
    0.2500000000E+03    0.3853892331E+00    0.1273209148E+00    0.1881163836E-01    0.4233877826E-01    0.2073628142E+00
    0.2700000000E+03    0.3962182507E+00    0.1320336005E+00    0.1907231029E-01    0.4353104385E-01    0.2150877221E+00
    0.2900000000E+03    0.4060665716E+00    0.1363899091E+00    0.1928468980E-01    0.4461560094E-01    0.2222339880E+00
    0.3100000000E+03    0.4150621837E+00    0.1404294215E+00    0.1945655815E-01    0.4560649468E-01    0.2288656805E+00
    0.3300000000E+03    0.4233115821E+00    0.1441860313E+00    0.1959424448E-01    0.4651541255E-01    0.2350376755E+00
    0.3500000000E+03    0.4309041292E+00    0.1476889328E+00    0.1970293901E-01    0.4735216261E-01    0.2407972531E+00
    0.3700000000E+03    0.4379153898E+00    0.1509634113E+00    0.1978692992E-01    0.4812503923E-01    0.2461853724E+00
    0.3900000000E+03    0.4444097109E+00    0.1540314773E+00    0.1984978435E-01    0.4884110604E-01    0.2512376974E+00
    0.4100000000E+03    0.4504422405E+00    0.1569123821E+00    0.1989448831E-01    0.4950641737E-01    0.2559854290E+00
    0.4300000000E+03    0.4560605241E+00    0.1596230383E+00    0.1992355579E-01    0.5012619331E-01    0.2604559846E+00
    0.4500000000E+03    0.4613057765E+00    0.1621783654E+00    0.1993911464E-01    0.5070495933E-01    0.2646735571E+00
    0.4700000000E+03    0.4662139068E+00    0.1645915764E+00    0.1994297475E-01    0.5124665860E-01    0.2686595772E+00
    0.4900000000E+03    0.4708163489E+00    0.1668744156E+00    0.1993668250E-01    0.5175474318E-01    0.2724330985E+00
    0.1000000000E+03    0.2488450290E+00    0.7404660023E-01    0.1374565620E-01    0.2732324751E-01    0.1203561695E+00
    0.3000000000E+03    0.4106638635E+00    0.1384470259E+00    0.1937526237E-01    0.4512197625E-01    0.2256105312E+00
    0.5000000000E+03    0.4730117058E+00    0.1679702640E+00    0.1993015143E-01    0.5199714303E-01    0.2742455567E+00
    0.7000000000E+03    0.5060902089E+00    0.1850704970E+00    0.1950551044E-01    0.5565376404E-01    0.3026308640E+00
    0.9000000000E+03    0.5265679486E+00    0.1962893603E+00    0.1884316420E-01    0.5792300618E-01    0.3213916069E+00
    0.1100000000E+04    0.5404785696E+00    0.2042453424E+00    0.1814349258E-01    0.5946828852E-01    0.3347922244E+00
    0.1300000000E+04    0.5505370800E+00    0.2101964402E+00    0.1746935586E-01    0.6058838839E-01    0.3448868415E+00
    0.1500000000E+04    0.5581449355E+00    0.2148242233E+00    0.1684004643E-01    0.6143766019E-01    0.3527912285E+00
    0.1700000000E+04    0.5640982129E+00    0.2185309815E+00    0.1625940269E-01    0.6210385543E-01    0.3591656311E+00
    0.1900000000E+04    0.5688823677E+00    0.2215699354E+00    0.1572558957E-01    0.6264053005E-01    0.3644266829E+00
    0.2100000000E+04    0.5728101362E+00    0.2241086711E+00    0.1523482649E-01    0.6308221384E-01    0.3688508037E+00
    0.2300000000E+04    0.5760920044E+00    0.2262626535E+00    0.1478287564E-01    0.6345216605E-01    0.3726289115E+00
    0.2500000000E+04    0.5788747996E+00    0.2281141072E+00    0.1436563558E-01    0.6376662479E-01    0.3758972927E+00
    0.2700000000E+04    0.5812640419E+00    0.2297232236E+00    0.1397935979E-01    0.6403726948E-01    0.3787559545E+00
    0.2900000000E+04    0.5833375029E+00    0.2311351090E+00    0.1362071492E-01    0.6427271523E-01    0.3812800190E+00
    0.3100000000E+04    0.5851537555E+00    0.2323842517E+00    0.1328677153E-01    0.6447945578E-01    0.3835270608E+00
    0.3300000000E+04    0.5867577488E+00    0.2334974864E+00    0.1297496873E-01    0.6466247851E-01    0.3855419828E+00
    0.3500000000E+04    0.5881845478E+00    0.2344960153E+00    0.1268307111E-01    0.6482567732E-01    0.3873603453E+00
    0.3700000000E+04    0.5894619067E+00    0.2353968183E+00    0.1240912604E-01    0.6497213674E-01    0.3890106931E+00
    0.3900000000E+04    0.5906120777E+00    0.2362136591E+00    0.1215142462E-01    0.6510433191E-01    0.3905162173E+00
    0.4100000000E+04    0.5916531095E+00    0.2369578159E+00    0.1190846733E-01    0.6522427200E-01    0.3918959642E+00
    0.4300000000E+04    0.5925997940E+00    0.2376386203E+00    0.1167893443E-01    0.6533360499E-01    0.3931657284E+00
    0.4500000000E+04    0.5934643685E+00    0.2382638618E+00    0.1146166068E-01    0.6543369541E-01    0.3943387247E+00
    0.4700000000E+04    0.5942570444E+00    0.2388400956E+00    0.1125561385E-01    0.6552568276E-01    0.3954260976E+00
    0.4900000000E+04    0.5949864088E+00    0.2393728781E+00    0.1105987661E-01    0.6561052612E-01    0.3964373156E+00
    0.1000000000E+04    0.5341303489E+00    0.2005776196E+00    0.1849247835E-01    0.5876261981E-01    0.3286026946E+00
    0.3000000000E+04    0.5842747024E+00    0.2317781939E+00    0.1345082374E-01    0.6437933224E-01    0.3824351092E+00
    0.5000000000E+04    0.5953296667E+00    0.2396244848E+00    0.1096561498E-01    0.6565052781E-01    0.3969169439E+00
    0.7000000000E+04    0.6001643440E+00    0.2432291563E+00    0.9463457949E-02    0.6622028889E-01    0.4039752542E+00
    0.9000000000E+04    0.6028710542E+00    0.2452968955E+00    0.8434419294E-02    0.6654697021E-01    0.4082551742E+00
    0.1100000000E+05    0.6045991829E+00    0.2466327442E+00    0.7674065554E-02    0.6676046432E-01    0.4111716099E+00
    0.1300000000E+05    0.6057970382E+00    0.2475625235E+00    0.7083189851E-02    0.6691187022E-01    0.4133095322E+00
    0.1500000000E+05    0.6066755356E+00    0.2482436164E+00    0.6607196890E-02    0.6702543029E-01    0.4149572773E+00
    0.1700000000E+05    0.6073469162E+00    0.2487614596E+00    0.6213270555E-02    0.6711415201E-01    0.4162744513E+00
    0.1900000000E+05    0.6078763885E+00    0.2491664661E+00    0.5880354850E-02    0.6718565410E-01    0.4173570324E+00
    0.2100000000E+05    0.6083044180E+00    0.2494903089E+00    0.5594242485E-02    0.6724470256E-01    0.4182664454E+00
    0.2300000000E+05    0.6086574401E+00    0.2497538868E+00    0.5344956346E-02    0.6729443598E-01    0.4190439612E+00
    0.2500000000E+05    0.6089534529E+00    0.2499715437E+00    0.5125258239E-02    0.6733700815E-01    0.4197184144E+00
    0.2700000000E+05    0.6092051320E+00    0.2501534478E+00    0.4929753212E-02    0.6737394797E-01    0.4203106072E+00
    0.2900000000E+05    0.6094216617E+00    0.2503070058E+00    0.4754327464E-02    0.6740637187E-01    0.4208359561E+00
    0.3100000000E+05    0.6096098582E+00    0.2504377378E+00    0.4595782355E-02    0.6743511490E-01    0.4213061489E+00
    0.3300000000E+05    0.6097748865E+00    0.2505498402E+00    0.4451588523E-02    0.6746081470E-01    0.4217302223E+00
    0.3500000000E+05    0.6099207310E+00    0.2506465587E+00    0.4319716152E-02    0.6748396697E-01    0.4221152832E+00
    0.3700000000E+05    0.6100505146E+00    0.2507304414E+00    0.4198515018E-02    0.6750496315E-01    0.4224670046E+00
    0.3900000000E+05    0.6101667189E+00    0.2508035160E+00    0.4086627940E-02    0.6752411671E-01    0.4227899755E+00
    0.4100000000E+05    0.6102713410E+00    0.2508674150E+00    0.3982927172E-02    0.6754168181E-01    0.4230879515E+00
    0.4300000000E+05    0.6103660060E+00    0.2509234671E+00    0.3886466882E-02    0.6755786680E-01    0.4233640393E+00
    0.4500000000E+05    0.6104520495E+00    0.2509727641E+00    0.3796447129E-02    0.6757284421E-01    0.4236208328E+00
    0.4700000000E+05    0.6105305794E+00    0.2510162106E+00    0.3712186181E-02    0.6758675820E-01    0.4238605167E+00
    0.4900000000E+05    0.6106025223E+00    0.2510545628E+00    0.3633098993E-02    0.6759973025E-01    0.4240849456E+00
    0.1000000000E+05    0.6038211080E+00    0.2460301045E+00    0.8028322466E-02    0.6666373345E-01    0.4098370430E+00
    0.3000000000E+05    0.6095189465E+00    0.2503749368E+00    0.4673116318E-02    0.6742115977E-01    0.4210773299E+00
    0.5000000000E+05    0.6106362726E+00    0.2510720313E+00    0.3595334930E-02    0.6760589588E-01    0.4241919441E+00
    0.7000000000E+05    0.6111032116E+00    0.2512657145E+00    0.3018786779E-02    0.6769818927E-01    0.4258178337E+00
    0.9000000000E+05    0.6113558242E+00    0.2513083152E+00    0.2647240725E-02    0.6775662533E-01    0.4268680617E+00
    0.1100000000E+06    0.6115122123E+00    0.2512915803E+00    0.2382756193E-02    0.6779833930E-01    0.4276248049E+00
    0.1300000000E+06    0.6116174454E+00    0.2512484699E+00    0.2182365103E-02    0.6783034264E-01    0.4282076097E+00
    0.1500000000E+06    0.6116923845E+00    0.2511931028E+00    0.2023882111E-02    0.6785609909E-01    0.4286769810E+00
    0.1700000000E+06    0.6117479811E+00    0.2511322224E+00    0.1894552476E-02    0.6787754256E-01    0.4290673042E+00
    0.1900000000E+06    0.6117905216E+00    0.2510692813E+00    0.1786458319E-02    0.6789585027E-01    0.4293997900E+00
    0.2100000000E+06    0.6118238642E+00    0.2510061245E+00    0.1694392268E-02    0.6791178640E-01    0.4296883484E+00
    0.2300000000E+06    0.6118505026E+00    0.2509437573E+00    0.1614771635E-02    0.6792587237E-01    0.4299425450E+00
    0.2500000000E+06    0.6118721179E+00    0.2508827247E+00    0.1545040585E-02    0.6793847839E-01    0.4301692123E+00
    0.2700000000E+06    0.6118898824E+00    0.2508233105E+00    0.1483320739E-02    0.6794987594E-01    0.4303733847E+00
    0.2900000000E+06    0.6119046372E+00    0.2507656461E+00    0.1428196790E-02    0.6796026956E-01    0.4305588684E+00
    0.3100000000E+06    0.6119170007E+00    0.2507097735E+00    0.1378579546E-02    0.6796981689E-01    0.4307286052E+00
    0.3300000000E+06    0.6119274371E+00    0.2506556813E+00    0.1333615398E-02    0.6797864179E-01    0.4308849111E+00
    0.3500000000E+06    0.6119363011E+00    0.2506033274E+00    0.1292624700E-02    0.6798684328E-01    0.4310296400E+00
    0.3700000000E+06    0.6119438682E+00    0.2505526521E+00    0.1255058751E-02    0.6799450162E-01    0.4311642964E+00
    0.3900000000E+06    0.6119503551E+00    0.2505035865E+00    0.1220469095E-02    0.6800168278E-01    0.4312901173E+00
    0.4100000000E+06    0.6119559346E+00    0.2504560578E+00    0.1188485173E-02    0.6800844154E-01    0.4314081305E+00
    0.4300000000E+06    0.6119607462E+00    0.2504099926E+00    0.1158797772E-02    0.6801482392E-01    0.4315191990E+00
    0.4500000000E+06    0.6119649031E+00    0.2503653184E+00    0.1131146578E-02    0.6802086890E-01    0.4316240537E+00
    0.4700000000E+06    0.6119684986E+00    0.2503219655E+00    0.1105310677E-02    0.6802660977E-01    0.4317233188E+00
    0.4900000000E+06    0.6119716099E+00    0.2502798670E+00    0.1081101217E-02    0.6803207518E-01    0.4318175311E+00
    0.1000000000E+06    0.6114423767E+00    0.2513046321E+00    0.2505005483E-02    0.6777901163E-01    0.4272736252E+00
    0.3000000000E+06    0.6119110858E+00    0.2507374856E+00    0.1402757869E-02    0.6796514060E-01    0.4306455480E+00
    0.5000000000E+06    0.6119730045E+00    0.2502592682E+00    0.1069554715E-02    0.6803471249E-01    0.4318628902E+00
    0.7000000000E+06    0.6119866366E+00    0.2498996433E+00    0.8943029626E-03    0.6807760037E-01    0.4325907915E+00
    0.9000000000E+06    0.6119871300E+00    0.2496133996E+00    0.7823155632E-03    0.6810859079E-01    0.4331049706E+00
    0.1100000000E+07    0.6119829591E+00    0.2493758807E+00    0.7030085470E-03    0.6813284729E-01    0.4335004349E+00
    0.1300000000E+07    0.6119769731E+00    0.2491729123E+00    0.6431317495E-03    0.6815277247E-01    0.4338207586E+00
    0.1500000000E+07    0.6119703134E+00    0.2489956886E+00    0.5958988805E-03    0.6816967829E-01    0.4340894179E+00
    0.1700000000E+07    0.6119634857E+00    0.2488383841E+00    0.5574305934E-03    0.6818435927E-01    0.4343204579E+00
    0.1900000000E+07    0.6119567262E+00    0.2486969494E+00    0.5253289563E-03    0.6819733288E-01    0.4345229275E+00
    0.2100000000E+07    0.6119501458E+00    0.2485684570E+00    0.4980221818E-03    0.6820895492E-01    0.4347029874E+00
    0.2300000000E+07    0.6119437943E+00    0.2484507223E+00    0.4744317864E-03    0.6821948049E-01    0.4348650156E+00
    0.2500000000E+07    0.6119376900E+00    0.2483420719E+00    0.4537901070E-03    0.6822909871E-01    0.4350122317E+00
    0.2700000000E+07    0.6119318349E+00    0.2482411956E+00    0.4355340128E-03    0.6823795367E-01    0.4351470705E+00
    0.2900000000E+07    0.6119262225E+00    0.2481470480E+00    0.4192398782E-03    0.6824615766E-01    0.4352714168E+00
    0.3100000000E+07    0.6119208423E+00    0.2480587821E+00    0.4045821401E-03    0.6825379988E-01    0.4353867587E+00
    0.3300000000E+07    0.6119156819E+00    0.2479757015E+00    0.3913059602E-03    0.6826095239E-01    0.4354942912E+00
    0.3500000000E+07    0.6119107283E+00    0.2478972272E+00    0.3792086522E-03    0.6826767420E-01    0.4355949878E+00
    0.3700000000E+07    0.6119059686E+00    0.2478228721E+00    0.3681267362E-03    0.6827401428E-01    0.4356896522E+00
    0.3900000000E+07    0.6119013904E+00    0.2477522226E+00    0.3579267133E-03    0.6828001368E-01    0.4357789552E+00
    0.4100000000E+07    0.6118969822E+00    0.2476849250E+00    0.3484983581E-03    0.6828570717E-01    0.4358634625E+00
    0.4300000000E+07    0.6118927330E+00    0.2476206735E+00    0.3397497578E-03    0.6829112448E-01    0.4359436551E+00
    0.4500000000E+07    0.6118886328E+00    0.2475592029E+00    0.3316035834E-03    0.6829629116E-01    0.4360199459E+00
    0.4700000000E+07    0.6118846723E+00    0.2475002811E+00    0.3239942487E-03    0.6830122941E-01    0.4360926916E+00
    0.4900000000E+07    0.6118808430E+00    0.2474437040E+00    0.3168657160E-03    0.6830595858E-01    0.4361622023E+00
    0.1000000000E+07    0.6119853875E+00    0.2494896022E+00    0.7396249783E-03    0.6812137425E-01    0.4333141458E+00
    0.3000000000E+07    0.6119235042E+00    0.2481022264E+00    0.4117237935E-03    0.6825004414E-01    0.4353301327E+00
    0.5000000000E+07    0.6118789750E+00    0.2474162375E+00    0.3134664204E-03    0.6830825016E-01    0.4361958307E+00
    0.7000000000E+07    0.6118468874E+00    0.2469554238E+00    0.2619182603E-03    0.6834632507E-01    0.4367496872E+00
    0.9000000000E+07    0.6118219325E+00    0.2466076156E+00    0.2290217353E-03    0.6837467546E-01    0.4371565633E+00
    0.1100000000E+08    0.6118015386E+00    0.2463280332E+00    0.2057443275E-03    0.6839727426E-01    0.4374778623E+00
    0.1300000000E+08    0.6117843024E+00    0.2460941889E+00    0.1881799773E-03    0.6841606776E-01    0.4377431780E+00
    0.1500000000E+08    0.6117693794E+00    0.2458931675E+00    0.1743305408E-03    0.6843215567E-01    0.4379690334E+00
    0.1700000000E+08    0.6117562230E+00    0.2457168593E+00    0.1630547786E-03    0.6844622056E-01    0.4381655880E+00
    0.1900000000E+08    0.6117444595E+00    0.2455598357E+00    0.1536477238E-03    0.6845871534E-01    0.4383395321E+00
    0.2100000000E+08    0.6117338224E+00    0.2454182827E+00    0.1456475287E-03    0.6846995598E-01    0.4384955037E+00
    0.2300000000E+08    0.6117241149E+00    0.2452894178E+00    0.1387374310E-03    0.6848017171E-01    0.4386368493E+00
    0.2500000000E+08    0.6117151876E+00    0.2451711486E+00    0.1326920399E-03    0.6848953413E-01    0.4387660622E+00
    0.2700000000E+08    0.6117069243E+00    0.2450618614E+00    0.1273460665E-03    0.6849817502E-01    0.4388850497E+00
