  Pressure (Pa) 22mC5-400 (mol/kg) 3mC6-400 (mol/kg) 33mC5-400 (mol/kg) 23mC5-400 (mol/kg) C7-400 (mol/kg)
    0.1000000000E+01    0.4233656588E-02    0.1047927067E-02    0.6426952408E-04    0.2787694342E-03    0.1020317112E-01
    0.3000000000E+01    0.1253299258E-01    0.3043063133E-02    0.1861159735E-03    0.8252576055E-03    0.2963350325E-01
    0.5000000000E+01    0.2061570705E-01    0.4914310707E-02    0.2996950639E-03    0.1357494778E-02    0.4786313102E-01
    0.7000000000E+01    0.2849021734E-01    0.6672840097E-02    0.4057147590E-03    0.1876034544E-02    0.6500013785E-01
    0.9000000000E+01    0.3616450964E-01    0.8328518515E-02    0.5048039909E-03    0.2381402141E-02    0.8114000873E-01
    0.1100000000E+02    0.4364616617E-01    0.9890094669E-02    0.5975236182E-03    0.2874096246E-02    0.9636741407E-01
    0.1300000000E+02    0.5094239047E-01    0.1136535285E-01    0.6843755870E-03    0.3354590632E-02    0.1107576987E+00
    0.1500000000E+02    0.5806003069E-01    0.1276124224E-01    0.7658106294E-03    0.3823335703E-02    0.1243781316E+00
    0.1700000000E+02    0.6500560127E-01    0.1408398592E-01    0.8422347689E-03    0.4280759916E-02    0.1372889596E+00
    0.1900000000E+02    0.7178530298E-01    0.1533917332E-01    0.9140148430E-03    0.4727271105E-02    0.1495443008E+00
    0.2100000000E+02    0.7840504159E-01    0.1653183880E-01    0.9814832136E-03    0.5163257700E-02    0.1611929044E+00
    0.2300000000E+02    0.8487044523E-01    0.1766652890E-01    0.1044941803E-02    0.5589089877E-02    0.1722788006E+00
    0.2500000000E+02    0.9118688047E-01    0.1874736002E-01    0.1104665567E-02    0.6005120609E-02    0.1828418581E+00
    0.2700000000E+02    0.9735946737E-01    0.1977806806E-01    0.1160905493E-02    0.6411686659E-02    0.1929182645E+00
    0.2900000000E+02    0.1033930935E+00    0.2076205143E-01    0.1213891200E-02    0.6809109500E-02    0.2025409418E+00
    0.3100000000E+02    0.1092924268E+00    0.2170240826E-01    0.1263833202E-02    0.7197696169E-02    0.2117399064E+00
    0.3300000000E+02    0.1150619282E+00    0.2260196890E-01    0.1310924886E-02    0.7577740073E-02    0.2205425831E+00
    0.3500000000E+02    0.1207058626E+00    0.2346332418E-01    0.1355344240E-02    0.7949521737E-02    0.2289740788E+00
    0.3700000000E+02    0.1262283094E+00    0.2428885023E-01    0.1397255375E-02    0.8313309500E-02    0.2370574221E+00
    0.3900000000E+02    0.1316331732E+00    0.2508073028E-01    0.1436809867E-02    0.8669360174E-02    0.2448137745E+00
    0.4100000000E+02    0.1369241920E+00    0.2584097383E-01    0.1474147944E-02    0.9017919654E-02    0.2522626157E+00
    0.4300000000E+02    0.1421049472E+00    0.2657143357E-01    0.1509399532E-02    0.9359223494E-02    0.2594219072E+00
    0.4500000000E+02    0.1471788705E+00    0.2727382042E-01    0.1542685195E-02    0.9693497442E-02    0.2663082378E+00
    0.4700000000E+02    0.1521492527E+00    0.2794971678E-01    0.1574116964E-02    0.1002095795E-01    0.2729369522E+00
    0.4900000000E+02    0.1570192502E+00    0.2860058843E-01    0.1603799081E-02    0.1034181265E-01    0.2793222654E+00
    0.1000000000E+02    0.3992895856E-01    0.9120561877E-02    0.5519273494E-03    0.2629303204E-02    0.8886285767E-01
    0.3000000000E+02    0.1063592632E+00    0.2123750034E-01    0.1239230197E-02    0.7004488707E-02    0.2071916168E+00
    0.5000000000E+02    0.1594175560E+00    0.2891706877E-01    0.1618014632E-02    0.1049982540E-01    0.2824278052E+00
    0.7000000000E+02    0.2027888412E+00    0.3421573453E-01    0.1830844050E-02    0.1335770133E-01    0.3345041126E+00
    0.9000000000E+02    0.2389153679E+00    0.3808968311E-01    0.1947045680E-02    0.1573877293E-01    0.3726989814E+00
    0.1100000000E+03    0.2694801127E+00    0.4104377065E-01    0.2004219956E-02    0.1775375888E-01    0.4019167929E+00
    0.1300000000E+03    0.2956808538E+00    0.4336966301E-01    0.2024264345E-02    0.1948146426E-01    0.4249940423E+00
    0.1500000000E+03    0.3183934975E+00    0.4524759840E-01    0.2020574891E-02    0.2097952190E-01    0.4436854988E+00
    0.1700000000E+03    0.3382735617E+00    0.4679494625E-01    0.2001642203E-02    0.2229106698E-01    0.4591350996E+00
    0.1900000000E+03    0.3558215141E+00    0.4809141134E-01    0.1972989517E-02    0.2344903450E-01    0.4721205291E+00
    0.2100000000E+03    0.3714261450E+00    0.4919301455E-01    0.1938278965E-02    0.2447901221E-01    0.4831889776E+00
    0.2300000000E+03    0.3853941362E+00    0.5014027762E-01    0.1899971820E-02    0.2540118559E-01    0.4927366724E+00
    0.2500000000E+03    0.3979706949E+00    0.5096323379E-01    0.1859736760E-02    0.2623169522E-01    0.5010575983E+00
    0.2700000000E+03    0.4093542545E+00    0.5168461311E-01    0.1818709707E-02    0.2698360389E-01    0.5083744898E+00
    0.2900000000E+03    0.4197071434E+00    0.5232193368E-01    0.1777663189E-02    0.2766759844E-01    0.5148591921E+00
    0.3100000000E+03    0.4291634559E+00    0.5288891343E-01    0.1737118939E-02    0.2829250767E-01    0.5206464158E+00
    0.3300000000E+03    0.4378349470E+00    0.5339644675E-01    0.1697424049E-02    0.2886569011E-01    0.5258432575E+00
    0.3500000000E+03    0.4458155074E+00    0.5385329476E-01    0.1658803196E-02    0.2939332853E-01    0.5305359345E+00
    0.3700000000E+03    0.4531846018E+00    0.5426658257E-01    0.1621394908E-02    0.2988065617E-01    0.5347946385E+00
    0.3900000000E+03    0.4600099425E+00    0.5464216378E-01    0.1585277000E-02    0.3033213262E-01    0.5386770956E+00
    0.4100000000E+03    0.4663495873E+00    0.5498489161E-01    0.1550484578E-02    0.3075158195E-01    0.5422312177E+00
    0.4300000000E+03    0.4722536038E+00    0.5529882368E-01    0.1517022856E-02    0.3114230221E-01    0.5454971040E+00
    0.4500000000E+03    0.4777654002E+00    0.5558737833E-01    0.1484876344E-02    0.3150715300E-01    0.5485085719E+00
    0.4700000000E+03    0.4829227982E+00    0.5585345562E-01    0.1454015456E-02    0.3184862610E-01    0.5512943417E+00
    0.4900000000E+03    0.4877589046E+00    0.5609953183E-01    0.1424401268E-02    0.3216890285E-01    0.5538789623E+00
    0.1000000000E+03    0.2548090316E+00    0.3966005004E-01    0.1981383925E-02    0.1678650468E-01    0.3882194480E+00
    0.3000000000E+03    0.4245399217E+00    0.5261347830E-01    0.1757303200E-02    0.2798694819E-01    0.5178327379E+00
    0.5000000000E+03    0.4900657084E+00    0.5621574616E-01    0.1410047837E-02    0.3232170110E-01    0.5551025558E+00
    0.7000000000E+03    0.5248292939E+00    0.5787650749E-01    0.1176687729E-02    0.3462701642E-01    0.5728576431E+00
    0.9000000000E+03    0.5463697682E+00    0.5881853190E-01    0.1016884879E-02    0.3605889363E-01    0.5832679804E+00
    0.1100000000E+04    0.5610224503E+00    0.5941805968E-01    0.9017334294E-03    0.3703524840E-01    0.5901208961E+00
    0.1300000000E+04    0.5716336669E+00    0.5982871105E-01    0.8149300254E-03    0.3774399748E-01    0.5949798365E+00
    0.1500000000E+04    0.5796717691E+00    0.6012469251E-01    0.7470662961E-03    0.3828216200E-01    0.5986082610E+00
    0.1700000000E+04    0.5859708723E+00    0.6034613256E-01    0.6924358392E-03    0.3870490087E-01    0.6014235090E+00
    0.1900000000E+04    0.5910398542E+00    0.6051657356E-01    0.6474055470E-03    0.3904589269E-01    0.6036730835E+00
    0.2100000000E+04    0.5952067610E+00    0.6065070719E-01    0.6095616494E-03    0.3932686575E-01    0.6055131233E+00
    0.2300000000E+04    0.5986925591E+00    0.6075815760E-01    0.5772407913E-03    0.3956246761E-01    0.6070470307E+00
    0.2500000000E+04    0.6016515193E+00    0.6084548105E-01    0.5492603244E-03    0.3976293291E-01    0.6083460225E+00
    0.2700000000E+04    0.6041946093E+00    0.6091729041E-01    0.5247564762E-03    0.3993562934E-01    0.6094607601E+00
    0.2900000000E+04    0.6064036876E+00    0.6097692026E-01    0.5030835309E-03    0.4008599624E-01    0.6104282748E+00
    0.3100000000E+04    0.6083404588E+00    0.6102683734E-01    0.4837489017E-03    0.4021813705E-01    0.6112762682E+00
    0.3300000000E+04    0.6100523151E+00    0.6106890302E-01    0.4663700767E-03    0.4033520592E-01    0.6120258796E+00
    0.3500000000E+04    0.6115762577E+00    0.6110454629E-01    0.4506453199E-03    0.4043966740E-01    0.6126935237E+00
    0.3700000000E+04    0.6129415960E+00    0.6113488105E-01    0.4363332681E-03    0.4053347528E-01    0.6132921423E+00
    0.3900000000E+04    0.6141718471E+00    0.6116078726E-01    0.4232384270E-03    0.4061819846E-01    0.6138320781E+00
    0.4100000000E+04    0.6152860994E+00    0.6118296849E-01    0.4112006690E-03    0.4069511140E-01    0.6143216973E+00
    0.4300000000E+04    0.6163000075E+00    0.6120199334E-01    0.4000875003E-03    0.4076526013E-01    0.6147678407E+00
    0.4500000000E+04    0.6172265314E+00    0.6121832579E-01    0.3897882804E-03    0.4082951133E-01    0.6151761572E+00
    0.4700000000E+04    0.6180764918E+00    0.6123234781E-01    0.3802098417E-03    0.4088858919E-01    0.6155513529E+00
    0.4900000000E+04    0.6188589945E+00    0.6124437635E-01    0.3712731276E-03    0.4094310360E-01    0.6158973801E+00
    0.1000000000E+04    0.5543328841E+00    0.5914876149E-01    0.9549615371E-03    0.3658921286E-01    0.5870138257E+00
    0.3000000000E+04    0.6074028674E+00    0.6100296474E-01    0.4931500176E-03    0.4015412905E-01    0.6108657617E+00
    0.5000000000E+04    0.6192274077E+00    0.6124972760E-01    0.3670239162E-03    0.4096881428E-01    0.6160605211E+00
    0.7000000000E+04    0.6244277041E+00    0.6129809888E-01    0.3035274929E-03    0.4133565340E-01    0.6183859587E+00
    0.9000000000E+04    0.6273503619E+00    0.6129275153E-01    0.2638657120E-03    0.4154658077E-01    0.6197237928E+00
    0.1100000000E+05    0.6292220331E+00    0.6126876814E-01    0.2361623027E-03    0.4168469764E-01    0.6206019900E+00
    0.1300000000E+05    0.6305227221E+00    0.6123789156E-01    0.2154372433E-03    0.4178279163E-01    0.6212276813E+00
    0.1500000000E+05    0.6314788126E+00    0.6120477274E-01    0.1991949704E-03    0.4185645101E-01    0.6216991097E+00
    0.1700000000E+05    0.6322110158E+00    0.6117143169E-01    0.1860309286E-03    0.4191405360E-01    0.6220690328E+00
    0.1900000000E+05    0.6327895782E+00    0.6113878071E-01    0.1750869546E-03    0.4196051291E-01    0.6223683950E+00
    0.2100000000E+05    0.6332581543E+00    0.6110722487E-01    0.1658055793E-03    0.4199890609E-01    0.6226165866E+00
    0.2300000000E+05    0.6336452997E+00    0.6107692398E-01    0.1578070215E-03    0.4203126140E-01    0.6228264002E+00
    0.2500000000E+05    0.6339704783E+00    0.6104791561E-01    0.1508225216E-03    0.4205897184E-01    0.6230066310E+00
    0.2700000000E+05    0.6342474127E+00    0.6102017616E-01    0.1446558754E-03    0.4208302693E-01    0.6231635349E+00
    0.2900000000E+05    0.6344860557E+00    0.6099365223E-01    0.1391600817E-03    0.4210414971E-01    0.6233016885E+00
    0.3100000000E+05    0.6346938007E+00    0.6096827725E-01    0.1342225573E-03    0.4212288127E-01    0.6234245218E+00
    0.3300000000E+05    0.6348762548E+00    0.6094398038E-01    0.1297554390E-03    0.4213963500E-01    0.6235346588E+00
    0.3500000000E+05    0.6350377473E+00    0.6092069120E-01    0.1256890253E-03    0.4215473241E-01    0.6236341433E+00
    0.3700000000E+05    0.6351816738E+00    0.6089834215E-01    0.1219672253E-03    0.4216842752E-01    0.6237245922E+00
    0.3900000000E+05    0.6353107349E+00    0.6087686972E-01    0.1185443272E-03    0.4218092380E-01    0.6238073025E+00
    0.4100000000E+05    0.6354271056E+00    0.6085621486E-01    0.1153826559E-03    0.4219238629E-01    0.6238833278E+00
    0.4300000000E+05    0.6355325567E+00    0.6083632309E-01    0.1124508462E-03    0.4220295034E-01    0.6239535333E+00
    0.4500000000E+05    0.6356285450E+00    0.6081714429E-01    0.1097225481E-03    0.4221272806E-01    0.6240186366E+00
    0.4700000000E+05    0.6357162793E+00    0.6079863249E-01    0.1071754422E-03    0.4222181315E-01    0.6240792384E+00
    0.4900000000E+05    0.6357967715E+00    0.6078074556E-01    0.1047904814E-03    0.4223028458E-01    0.6241358455E+00
    0.1000000000E+05    0.6283786961E+00    0.6128209786E-01    0.2489157742E-03    0.4162209074E-01    0.6202035922E+00
    0.3000000000E+05    0.6345934051E+00    0.6098082552E-01    0.1366275178E-03    0.4211378605E-01    0.6233648403E+00
    0.5000000000E+05    0.6358345738E+00    0.6077202422E-01    0.1036535999E-03    0.4223431153E-01    0.6241627882E+00
    0.7000000000E+05    0.6363611041E+00    0.6062257999E-01    0.8644441274E-04    0.4229462592E-01    0.6245691784E+00
    0.9000000000E+05    0.6366501292E+00    0.6050675483E-01    0.7549093949E-04    0.4233284558E-01    0.6248297244E+00
    0.1100000000E+06    0.6368316988E+00    0.6041231523E-01    0.6775336863E-04    0.4236014053E-01    0.6250173426E+00
    0.1300000000E+06    0.6369557178E+00    0.6033263497E-01    0.6192193182E-04    0.4238108678E-01    0.6251622035E+00
    0.1500000000E+06    0.6370454057E+00    0.6026374280E-01    0.5732816934E-04    0.4239794677E-01    0.6252793472E+00
    0.1700000000E+06    0.6371130137E+00    0.6020307599E-01    0.5359091805E-04    0.4241198451E-01    0.6253772342E+00
    0.1900000000E+06    0.6371656090E+00    0.6014888620E-01    0.5047501946E-04    0.4242396976E-01    0.6254610477E+00
    0.2100000000E+06    0.6372075498E+00    0.6009992802E-01    0.4782656619E-04    0.4243440239E-01    0.6255341708E+00
    0.2300000000E+06    0.6372416672E+00    0.6005528323E-01    0.4554008575E-04    0.4244362358E-01    0.6255989229E+00
    0.2500000000E+06    0.6372698786E+00    0.6001425553E-01    0.4354058144E-04    0.4245187563E-01    0.6256569576E+00
    0.2700000000E+06    0.6372935278E+00    0.5997630441E-01    0.4177308768E-04    0.4245933625E-01    0.6257094921E+00
    0.2900000000E+06    0.6373135836E+00    0.5994100199E-01    0.4019628793E-04    0.4246613936E-01    0.6257574464E+00
    0.3100000000E+06    0.6373307618E+00    0.5990800371E-01    0.3877845167E-04    0.4247238817E-01    0.6258015315E+00
    0.3300000000E+06    0.6373456023E+00    0.5987702811E-01    0.3749475679E-04    0.4247816381E-01    0.6258423078E+00
    0.3500000000E+06    0.6373585198E+00    0.5984784224E-01    0.3632547191E-04    0.4248353111E-01    0.6258802240E+00
    0.3700000000E+06    0.6373698378E+00    0.5982025119E-01    0.3525469045E-04    0.4248854265E-01    0.6259156448E+00
    0.3900000000E+06    0.6373798124E+00    0.5979409021E-01    0.3426942893E-04    0.4249324163E-01    0.6259488705E+00
    0.4100000000E+06    0.6373886488E+00    0.5976921878E-01    0.3335897192E-04    0.4249766395E-01    0.6259801510E+00
    0.4300000000E+06    0.6373965130E+00    0.5974551613E-01    0.3251438771E-04    0.4250183975E-01    0.6260096963E+00
    0.4500000000E+06    0.6374035412E+00    0.5972287766E-01    0.3172816458E-04    0.4250579455E-01    0.6260376848E+00
    0.4700000000E+06    0.6374098456E+00    0.5970121220E-01    0.3099393363E-04    0.4250955017E-01    0.6260642689E+00
    0.4900000000E+06    0.6374155199E+00    0.5968043981E-01    0.3030625496E-04    0.4251312539E-01    0.6260895800E+00
    0.1000000000E+06    0.6367502883E+00    0.6045736021E-01    0.7132387238E-04    0.4234749264E-01    0.6249302420E+00
    0.3000000000E+06    0.6373224952E+00    0.5992423371E-01    0.3946918808E-04    0.4246932754E-01    0.6257799346E+00
    0.5000000000E+06    0.6374181457E+00    0.5967036617E-01    0.2997838494E-04    0.4251485052E-01    0.6261017944E+00
    0.7000000000E+06    0.6374513189E+00    0.5950233747E-01    0.2501096933E-04    0.4254289724E-01    0.6263004203E+00
    0.9000000000E+06    0.6374654110E+00    0.5937662420E-01    0.2184566280E-04    0.4256315427E-01    0.6264438296E+00
    0.1100000000E+07    0.6374716125E+00    0.5927618134E-01    0.1960837877E-04    0.4257900381E-01    0.6265559370E+00
    0.1300000000E+07    0.6374739858E+00    0.5919255044E-01    0.1792167173E-04    0.4259201929E-01    0.6266479036E+00
    0.1500000000E+07    0.6374743146E+00    0.5912091466E-01    0.1659266725E-04    0.4260305968E-01    0.6267258332E+00
    0.1700000000E+07    0.6374734840E+00    0.5905826888E-01    0.1551129951E-04    0.4261264504E-01    0.6267934242E+00
    0.1900000000E+07    0.6374719723E+00    0.5900261181E-01    0.1460962699E-04    0.4262111404E-01    0.6268530862E+00
    0.2100000000E+07    0.6374700544E+00    0.5895254352E-01    0.1384316602E-04    0.4262869949E-01    0.6269064757E+00
    0.2300000000E+07    0.6374678956E+00    0.5890704634E-01    0.1318142329E-04    0.4263556827E-01    0.6269547800E+00
    0.2500000000E+07    0.6374655990E+00    0.5886535730E-01    0.1260271169E-04    0.4264184408E-01    0.6269988792E+00
    0.2700000000E+07    0.6374632305E+00    0.5882688966E-01    0.1209113387E-04    0.4264762117E-01    0.6270394434E+00
    0.2900000000E+07    0.6374608329E+00    0.5879118253E-01    0.1163473846E-04    0.4265297294E-01    0.6270769947E+00
    0.3100000000E+07    0.6374584345E+00    0.5875786726E-01    0.1122434601E-04    0.4265795774E-01    0.6271119478E+00
    0.3300000000E+07    0.6374560540E+00    0.5872664440E-01    0.1085277494E-04    0.4266262267E-01    0.6271446371E+00
    0.3500000000E+07    0.6374537036E+00    0.5869726737E-01    0.1051431613E-04    0.4266700630E-01    0.6271753369E+00
    0.3700000000E+07    0.6374513914E+00    0.5866953071E-01    0.1020436684E-04    0.4267114064E-01    0.6272042742E+00
    0.3900000000E+07    0.6374491224E+00    0.5864326147E-01    0.9919169957E-05    0.4267505251E-01    0.6272316395E+00
    0.4100000000E+07    0.6374468995E+00    0.5861831262E-01    0.9655624546E-05    0.4267876465E-01    0.6272575941E+00
    0.4300000000E+07    0.6374447245E+00    0.5859455818E-01    0.9411145771E-05    0.4268229647E-01    0.6272822756E+00
    0.4500000000E+07    0.6374425979E+00    0.5857188936E-01    0.9183559661E-05    0.4268566467E-01    0.6273058025E+00
    0.4700000000E+07    0.6374405196E+00    0.5855021157E-01    0.8971022938E-05    0.4268888375E-01    0.6273282776E+00
    0.4900000000E+07    0.6374384890E+00    0.5852944205E-01    0.8771961154E-05    0.4269196636E-01    0.6273497903E+00
    0.1000000000E+07    0.6374691629E+00    0.5932389162E-01    0.2064089155E-04    0.4257150781E-01    0.6265029300E+00
    0.3000000000E+07    0.6374596325E+00    0.5877424603E-01    0.1142428043E-04    0.4265550804E-01    0.6270947735E+00
    0.5000000000E+07    0.6374374913E+00    0.5851937479E-01    0.8677052751E-05    0.4269346001E-01    0.6273602108E+00
    0.7000000000E+07    0.6374197514E+00    0.5835187697E-01    0.7239133418E-05    0.4271827117E-01    0.6275329853E+00
    0.9000000000E+07    0.6374053552E+00    0.5822699235E-01    0.6322877117E-05    0.4273673816E-01    0.6276611852E+00
    0.1100000000E+08    0.6373933120E+00    0.5812741729E-01    0.5675261913E-05    0.4275145433E-01    0.6277631031E+00
    0.1300000000E+08    0.6373829803E+00    0.5804462349E-01    0.5187025500E-05    0.4276368962E-01    0.6278476749E+00
    0.1500000000E+08    0.6373739413E+00    0.5797377527E-01    0.4802334556E-05    0.4277416141E-01    0.6279199388E+00
    0.1700000000E+08    0.6373659104E+00    0.5791186483E-01    0.4489327275E-05    0.4278331484E-01    0.6279830156E+00
    0.1900000000E+08    0.6373586865E+00    0.5785689352E-01    0.4228336084E-05    0.4279144524E-01    0.6280389730E+00
    0.2100000000E+08    0.6373521230E+00    0.5780746569E-01    0.4006484021E-05    0.4279875859E-01    0.6280892511E+00
    0.2300000000E+08    0.6373461094E+00    0.5776256814E-01    0.3814944070E-05    0.4280540431E-01    0.6281348937E+00
    0.2500000000E+08    0.6373405608E+00    0.5772144213E-01    0.3647438418E-05    0.4281149426E-01    0.6281766809E+00
    0.2700000000E+08    0.6373354106E+00    0.5768350469E-01    0.3499365261E-05    0.4281711431E-01    0.6282152115E+00
