  Pressure (Pa) 22mC5-400 (mol/kg) 3mC6-400 (mol/kg) 33mC5-400 (mol/kg) 23mC5-400 (mol/kg) C7-400 (mol/kg)
    0.1000000000E+01    0.4233387139E-02    0.5243274255E-03    0.1286072868E-03    0.2787517007E-03    0.1021022182E-01
    0.3000000000E+01    0.1253064997E-01    0.1524606269E-02    0.3728043891E-03    0.8251034278E-03    0.2969308399E-01
    0.5000000000E+01    0.2060941879E-01    0.2465189466E-02    0.6008753489E-03    0.1357080914E-02    0.4801882893E-01
    0.7000000000E+01    0.2847830299E-01    0.3351259890E-02    0.8141538555E-03    0.1875250386E-02    0.6528775557E-01
    0.9000000000E+01    0.3614546419E-01    0.4187417465E-02    0.1013830465E-02    0.2380148627E-02    0.8158889076E-01
    0.1100000000E+02    0.4361864500E-01    0.4977758869E-02    0.1200971679E-02    0.2872284864E-02    0.9700152976E-01
    0.1300000000E+02    0.5090519551E-01    0.5725944514E-02    0.1376536006E-02    0.3352142515E-02    0.1115965308E+00
    0.1500000000E+02    0.5801209783E-01    0.6435255102E-02    0.1541387554E-02    0.3820180798E-02    0.1254374082E+00
    0.1700000000E+02    0.6494598888E-01    0.7108639610E-02    0.1696307593E-02    0.4276836230E-02    0.1385812602E+00
    0.1900000000E+02    0.7171318139E-01    0.7748756179E-02    0.1842004424E-02    0.4722524011E-02    0.1510795589E+00
    0.2100000000E+02    0.7831968347E-01    0.8358007096E-02    0.1979121859E-02    0.5157639308E-02    0.1629788271E+00
    0.2300000000E+02    0.8477121680E-01    0.8938568855E-02    0.2108246516E-02    0.5582558450E-02    0.1743212192E+00
    0.2500000000E+02    0.9107323343E-01    0.9492418066E-02    0.2229914129E-02    0.5997640038E-02    0.1851450223E+00
    0.2700000000E+02    0.9723093153E-01    0.1002135389E-01    0.2344615036E-02    0.6403225975E-02    0.1954850895E+00
    0.2900000000E+02    0.1032492700E+00    0.1052701750E-01    0.2452798948E-02    0.6799642428E-02    0.2053732174E+00
    0.3100000000E+02    0.1091329820E+00    0.1101090906E-01    0.2554879125E-02    0.7187200723E-02    0.2148384730E+00
    0.3300000000E+02    0.1148865878E+00    0.1147440255E-01    0.2651236037E-02    0.7566198181E-02    0.2239074814E+00
    0.3500000000E+02    0.1205144065E+00    0.1191875875E-01    0.2742220583E-02    0.7936918894E-02    0.2326046766E+00
    0.3700000000E+02    0.1260205672E+00    0.1234513665E-01    0.2828156937E-02    0.8299634458E-02    0.2409525225E+00
    0.3900000000E+02    0.1314090192E+00    0.1275460355E-01    0.2909345056E-02    0.8654604648E-02    0.2489717074E+00
    0.4100000000E+02    0.1366835418E+00    0.1314814392E-01    0.2986062916E-02    0.9002078060E-02    0.2566813167E+00
    0.4300000000E+02    0.1418477535E+00    0.1352666729E-01    0.3058568496E-02    0.9342292701E-02    0.2640989844E+00
    0.4500000000E+02    0.1469051200E+00    0.1389101527E-01    0.3127101545E-02    0.9675476553E-02    0.2712410292E+00
    0.4700000000E+02    0.1518589628E+00    0.1424196773E-01    0.3191885168E-02    0.1000184809E-01    0.2781225748E+00
    0.4900000000E+02    0.1567124661E+00    0.1458024839E-01    0.3253127240E-02    0.1032161678E-01    0.2847576570E+00
    0.1000000000E+02    0.3990583387E-01    0.4588076896E-02    0.1108905729E-02    0.2627781197E-02    0.8940165960E-01
    0.3000000000E+02    0.1062076669E+00    0.1077159612E-01    0.2504577495E-02    0.6994509944E-02    0.2101569860E+00
    0.5000000000E+02    0.1591025499E+00    0.1474484884E-01    0.3282481308E-02    0.1047908816E-01    0.2879868870E+00
    0.7000000000E+02    0.2023166726E+00    0.1751198189E-01    0.3724412316E-02    0.1332661497E-01    0.3423558648E+00
    0.9000000000E+02    0.2383071983E+00    0.1954897198E-01    0.3969382398E-02    0.1569872909E-01    0.3825002190E+00
    0.1100000000E+03    0.2687607529E+00    0.2111051414E-01    0.4093400144E-02    0.1770639001E-01    0.4133675423E+00
    0.1300000000E+03    0.2948740755E+00    0.2234521675E-01    0.4140957416E-02    0.1942833485E-01    0.4378476767E+00
    0.1500000000E+03    0.3175202888E+00    0.2334562286E-01    0.4139372959E-02    0.2092201355E-01    0.4577420998E+00
    0.1700000000E+03    0.3373516962E+00    0.2417236853E-01    0.4106015218E-02    0.2223034989E-01    0.4742324044E+00
    0.1900000000E+03    0.3548656842E+00    0.2486684112E-01    0.4052215979E-02    0.2338607618E-01    0.4881259256E+00
    0.2100000000E+03    0.3704483095E+00    0.2545825455E-01    0.3985512221E-02    0.2441460032E-01    0.4999931210E+00
    0.2300000000E+03    0.3844039233E+00    0.2596781763E-01    0.3910987378E-02    0.2533595437E-01    0.5102485589E+00
    0.2500000000E+03    0.3969757894E+00    0.2641129960E-01    0.3832102276E-02    0.2616615102E-01    0.5192007949E+00
    0.2700000000E+03    0.4083607427E+00    0.2680066840E-01    0.3751224790E-02    0.2691814780E-01    0.5270842444E+00
    0.2900000000E+03    0.4187198069E+00    0.2714517065E-01    0.3669975562E-02    0.2760254566E-01    0.5340802042E+00
    0.3100000000E+03    0.4281860176E+00    0.2745206318E-01    0.3589458203E-02    0.2822810367E-01    0.5403311022E+00
    0.3300000000E+03    0.4368702737E+00    0.2772712072E-01    0.3510415192E-02    0.2880212398E-01    0.5459503920E+00
    0.3500000000E+03    0.4448657751E+00    0.2797499569E-01    0.3433334989E-02    0.2933074386E-01    0.5510295702E+00
    0.3700000000E+03    0.4522514306E+00    0.2819947805E-01    0.3358526544E-02    0.2981915991E-01    0.5556432467E+00
    0.3900000000E+03    0.4590945054E+00    0.2840368617E-01    0.3286171666E-02    0.3027180226E-01    0.5598528724E+00
    0.4100000000E+03    0.4654526988E+00    0.2859020919E-01    0.3216362172E-02    0.3069247136E-01    0.5637095200E+00
    0.4300000000E+03    0.4713757915E+00    0.2876121460E-01    0.3149126413E-02    0.3108444636E-01    0.5672559883E+00
    0.4500000000E+03    0.4769069627E+00    0.2891853067E-01    0.3084448341E-02    0.3145057174E-01    0.5705284136E+00
    0.4700000000E+03    0.4820838519E+00    0.2906371024E-01    0.3022281272E-02    0.3179332727E-01    0.5735575192E+00
    0.4900000000E+03    0.4869394218E+00    0.2919808065E-01    0.2962557845E-02    0.3211488478E-01    0.5763695928E+00
    0.1000000000E+03    0.2541421662E+00    0.2037816663E-01    0.4043208002E-02    0.1674259428E-01    0.3988795272E+00
    0.3000000000E+03    0.4235571267E+00    0.2730292727E-01    0.3629571977E-02    0.2792219292E-01    0.5372911095E+00
    0.5000000000E+03    0.4892559104E+00    0.2926157543E-01    0.2933587614E-02    0.3226832038E-01    0.5777014386E+00
    0.7000000000E+03    0.5241950045E+00    0.3017173572E-01    0.2460515506E-02    0.3458519044E-01    0.5970704136E+00
    0.9000000000E+03    0.5458678885E+00    0.3069079360E-01    0.2134304850E-02    0.3602578952E-01    0.6084665909E+00
    0.1100000000E+04    0.5606173778E+00    0.3102255346E-01    0.1898024991E-02    0.3700852329E-01    0.6159853469E+00
    0.1300000000E+04    0.5713002149E+00    0.3125063666E-01    0.1719174514E-02    0.3772199300E-01    0.6213245961E+00
    0.1500000000E+04    0.5793924139E+00    0.3141558365E-01    0.1578866600E-02    0.3826372397E-01    0.6253159945E+00
    0.1700000000E+04    0.5857332590E+00    0.3153938136E-01    0.1465588725E-02    0.3868921529E-01    0.6284152154E+00
    0.1900000000E+04    0.5908350905E+00    0.3163496061E-01    0.1371982157E-02    0.3903237359E-01    0.6308929936E+00
    0.2100000000E+04    0.5950283082E+00    0.3171040812E-01    0.1293141675E-02    0.3931508216E-01    0.6329203812E+00
    0.2300000000E+04    0.5985355105E+00    0.3177103137E-01    0.1225677331E-02    0.3955209609E-01    0.6346107995E+00
    0.2500000000E+04    0.6015121242E+00    0.3182045221E-01    0.1167172748E-02    0.3975372616E-01    0.6360424489E+00
    0.2700000000E+04    0.6040699524E+00    0.3186122296E-01    0.1115859052E-02    0.3992739514E-01    0.6372710102E+00
    0.2900000000E+04    0.6062914686E+00    0.3189519138E-01    0.1070411185E-02    0.4007858288E-01    0.6383372161E+00
    0.3100000000E+04    0.6082388380E+00    0.3192372629E-01    0.1029816411E-02    0.4021142320E-01    0.6392715581E+00
    0.3300000000E+04    0.6099598034E+00    0.3194786190E-01    0.9932869389E-03    0.4032909336E-01    0.6400973191E+00
    0.3500000000E+04    0.6114916363E+00    0.3196839325E-01    0.9602003407E-03    0.4043407572E-01    0.6408325878E+00
    0.3700000000E+04    0.6128638575E+00    0.3198594078E-01    0.9300579842E-03    0.4052833802E-01    0.6414916329E+00
    0.3900000000E+04    0.6141001515E+00    0.3200099524E-01    0.9024554384E-03    0.4061346018E-01    0.6420858624E+00
    0.4100000000E+04    0.6152197399E+00    0.3201394945E-01    0.8770610084E-03    0.4069072548E-01    0.6426245074E+00
    0.4300000000E+04    0.6162383855E+00    0.3202512124E-01    0.8535999082E-03    0.4076118706E-01    0.6431151191E+00
    0.4500000000E+04    0.6171691359E+00    0.3203477023E-01    0.8318424135E-03    0.4082571740E-01    0.6435639342E+00
    0.4700000000E+04    0.6180228844E+00    0.3204311040E-01    0.8115948722E-03    0.4088504545E-01    0.6439761503E+00
    0.4900000000E+04    0.6188087962E+00    0.3205031949E-01    0.7926927966E-03    0.4093978503E-01    0.6443561335E+00
    0.1000000000E+04    0.5538831527E+00    0.3087337232E-01    0.2007377280E-02    0.3655954477E-01    0.6125747048E+00
    0.3000000000E+04    0.6072961534E+00    0.3191006685E-01    0.1049560865E-02    0.4014707902E-01    0.6388192734E+00
    0.5000000000E+04    0.6191787878E+00    0.3205354733E-01    0.7837015347E-03    0.4096559998E-01    0.6445352151E+00
    0.7000000000E+04    0.6243993739E+00    0.3208459655E-01    0.6490598241E-03    0.4133377970E-01    0.6470810907E+00
    0.9000000000E+04    0.6273315920E+00    0.3208461246E-01    0.5646958176E-03    0.4154533908E-01    0.6485364119E+00
    0.1100000000E+05    0.6292085762E+00    0.3207356867E-01    0.5056556559E-03    0.4168380734E-01    0.6494851171E+00
    0.1300000000E+05    0.6305125451E+00    0.3205823706E-01    0.4614307863E-03    0.4178211832E-01    0.6501562031E+00
    0.1500000000E+05    0.6314708137E+00    0.3204134229E-01    0.4267399648E-03    0.4185592185E-01    0.6506581723E+00
    0.1700000000E+05    0.6322045431E+00    0.3202409308E-01    0.3986045651E-03    0.4191362547E-01    0.6510492105E+00
    0.1900000000E+05    0.6327842199E+00    0.3200705269E-01    0.3752018004E-03    0.4196015858E-01    0.6513633893E+00
    0.2100000000E+05    0.6332536367E+00    0.3199048479E-01    0.3553461037E-03    0.4199860744E-01    0.6516220193E+00
    0.2300000000E+05    0.6336414333E+00    0.3197450566E-01    0.3382289898E-03    0.4203100590E-01    0.6518391324E+00
    0.2500000000E+05    0.6339671275E+00    0.3195915634E-01    0.3232778507E-03    0.4205875051E-01    0.6520243560E+00
    0.2700000000E+05    0.6342444778E+00    0.3194443892E-01    0.3100743761E-03    0.4208283318E-01    0.6521845230E+00
    0.2900000000E+05    0.6344834615E+00    0.3193033543E-01    0.2983049771E-03    0.4210397854E-01    0.6523246214E+00
    0.3100000000E+05    0.6346914895E+00    0.3191681809E-01    0.2877293684E-03    0.4212272887E-01    0.6524483809E+00
    0.3300000000E+05    0.6348741815E+00    0.3190385487E-01    0.2781599438E-03    0.4213949839E-01    0.6525586482E+00
    0.3500000000E+05    0.6350358760E+00    0.3189141259E-01    0.2694478214E-03    0.4215460921E-01    0.6526576356E+00
    0.3700000000E+05    0.6351799756E+00    0.3187945859E-01    0.2614731522E-03    0.4216831581E-01    0.6527470890E+00
    0.3900000000E+05    0.6353091864E+00    0.3186796162E-01    0.2541382355E-03    0.4218082203E-01    0.6528284060E+00
    0.4100000000E+05    0.6354256874E+00    0.3185689227E-01    0.2473625274E-03    0.4219229318E-01    0.6529027187E+00
    0.4300000000E+05    0.6355312528E+00    0.3184622310E-01    0.2410789580E-03    0.4220286482E-01    0.6529709550E+00
    0.4500000000E+05    0.6356273418E+00    0.3183592874E-01    0.2352311697E-03    0.4221264923E-01    0.6530338824E+00
    0.4700000000E+05    0.6357151655E+00    0.3182598571E-01    0.2297714169E-03    0.4222174026E-01    0.6530921419E+00
    0.4900000000E+05    0.6357957374E+00    0.3181637243E-01    0.2246589473E-03    0.4223021699E-01    0.6531462733E+00
    0.1000000000E+05    0.6283629287E+00    0.3207990324E-01    0.5328463155E-03    0.4162104760E-01    0.6490555650E+00
    0.3000000000E+05    0.6345909587E+00    0.3192350543E-01    0.2928807201E-03    0.4211362469E-01    0.6523883483E+00
    0.5000000000E+05    0.6358335763E+00    0.3181168316E-01    0.2222218046E-03    0.4223424638E-01    0.6531719367E+00
    0.7000000000E+05    0.6363605632E+00    0.3173115566E-01    0.1853239568E-03    0.4229459119E-01    0.6535501734E+00
    0.9000000000E+05    0.6366497939E+00    0.3166856187E-01    0.1618338614E-03    0.4233282461E-01    0.6537825030E+00
    0.1100000000E+06    0.6368314751E+00    0.3161743561E-01    0.1452388082E-03    0.4236012706E-01    0.6539440113E+00
    0.1300000000E+06    0.6369555620E+00    0.3157424806E-01    0.1327313746E-03    0.4238107790E-01    0.6540650751E+00
    0.1500000000E+06    0.6370452946E+00    0.3153687518E-01    0.1228783758E-03    0.4239794095E-01    0.6541605297E+00
    0.1700000000E+06    0.6371129339E+00    0.3150394238E-01    0.1148624593E-03    0.4241198084E-01    0.6542385643E+00
    0.1900000000E+06    0.6371655520E+00    0.3147450992E-01    0.1081793041E-03    0.4242396766E-01    0.6543041093E+00
    0.2100000000E+06    0.6372075101E+00    0.3144790736E-01    0.1024988156E-03    0.4243440150E-01    0.6543603313E+00
    0.2300000000E+06    0.6372416409E+00    0.3142363976E-01    0.9759476805E-04    0.4244362364E-01    0.6544093688E+00
    0.2500000000E+06    0.6372698630E+00    0.3140133141E-01    0.9330629678E-04    0.4245187645E-01    0.6544527252E+00
    0.2700000000E+06    0.6372935208E+00    0.3138069044E-01    0.8951549964E-04    0.4245933770E-01    0.6544914926E+00
    0.2900000000E+06    0.6373135838E+00    0.3136148561E-01    0.8613375020E-04    0.4246614133E-01    0.6545264864E+00
    0.3100000000E+06    0.6373307680E+00    0.3134353061E-01    0.8309298375E-04    0.4247239059E-01    0.6545583296E+00
    0.3300000000E+06    0.6373456136E+00    0.3132667313E-01    0.8033995424E-04    0.4247816661E-01    0.6545875077E+00
    0.3500000000E+06    0.6373585354E+00    0.3131078711E-01    0.7783233557E-04    0.4248353424E-01    0.6546144055E+00
    0.3700000000E+06    0.6373698572E+00    0.3129576698E-01    0.7553600617E-04    0.4248854608E-01    0.6546393329E+00
    0.3900000000E+06    0.6373798352E+00    0.3128152349E-01    0.7342311485E-04    0.4249324532E-01    0.6546625424E+00
    0.4100000000E+06    0.6373886744E+00    0.3126798049E-01    0.7147067572E-04    0.4249766787E-01    0.6546842424E+00
    0.4300000000E+06    0.6373965412E+00    0.3125507251E-01    0.6965952928E-04    0.4250184387E-01    0.6547046067E+00
    0.4500000000E+06    0.6374035717E+00    0.3124274283E-01    0.6797356203E-04    0.4250579887E-01    0.6547237816E+00
    0.4700000000E+06    0.6374098782E+00    0.3123094201E-01    0.6639911208E-04    0.4250955466E-01    0.6547418913E+00
    0.4900000000E+06    0.6374155544E+00    0.3121962667E-01    0.6492451037E-04    0.4251313004E-01    0.6547590419E+00
    0.1000000000E+06    0.6367500162E+00    0.3164183030E-01    0.1528967244E-03    0.4234747592E-01    0.6538696721E+00
    0.3000000000E+06    0.6373224985E+00    0.3135236209E-01    0.8457436656E-04    0.4246932975E-01    0.6545427688E+00
    0.5000000000E+06    0.6374181811E+00    0.3121413893E-01    0.6422146119E-04    0.4251485524E-01    0.6547672867E+00
    0.7000000000E+06    0.6374513660E+00    0.3112257494E-01    0.5357061981E-04    0.4254290303E-01    0.6548986248E+00
    0.9000000000E+06    0.6374654643E+00    0.3105404068E-01    0.4678462938E-04    0.4256316071E-01    0.6549905292E+00
    0.1100000000E+07    0.6374716700E+00    0.3099926888E-01    0.4198870192E-04    0.4257901073E-01    0.6550608810E+00
    0.1300000000E+07    0.6374740462E+00    0.3095365695E-01    0.3837333638E-04    0.4259202659E-01    0.6551177216E+00
    0.1500000000E+07    0.6374743773E+00    0.3091458248E-01    0.3552490816E-04    0.4260306730E-01    0.6551653290E+00
    0.1700000000E+07    0.6374735487E+00    0.3088040873E-01    0.3320739339E-04    0.4261265294E-01    0.6552062411E+00
    0.1900000000E+07    0.6374720386E+00    0.3085004542E-01    0.3127510765E-04    0.4262112218E-01    0.6552420825E+00
    0.2100000000E+07    0.6374701221E+00    0.3082272968E-01    0.2963267140E-04    0.4262870785E-01    0.6552739548E+00
    0.2300000000E+07    0.6374679646E+00    0.3079790685E-01    0.2821470575E-04    0.4263557684E-01    0.6553026377E+00
    0.2500000000E+07    0.6374656692E+00    0.3077516104E-01    0.2697471471E-04    0.4264185284E-01    0.6553287035E+00
    0.2700000000E+07    0.6374633017E+00    0.3075417235E-01    0.2587861669E-04    0.4264763010E-01    0.6553525837E+00
    0.2900000000E+07    0.6374609051E+00    0.3073468949E-01    0.2490079074E-04    0.4265298204E-01    0.6553746122E+00
    0.3100000000E+07    0.6374585076E+00    0.3071651144E-01    0.2402155890E-04    0.4265796700E-01    0.6553950521E+00
    0.3300000000E+07    0.6374561279E+00    0.3069947490E-01    0.2322552666E-04    0.4266263207E-01    0.6554141143E+00
    0.3500000000E+07    0.6374537783E+00    0.3068344539E-01    0.2250045623E-04    0.4266701584E-01    0.6554319709E+00
    0.3700000000E+07    0.6374514669E+00    0.3066831085E-01    0.2183648173E-04    0.4267115032E-01    0.6554487636E+00
    0.3900000000E+07    0.6374491986E+00    0.3065397694E-01    0.2122555010E-04    0.4267506232E-01    0.6554646105E+00
    0.4100000000E+07    0.6374469764E+00    0.3064036347E-01    0.2066101492E-04    0.4267877459E-01    0.6554796116E+00
    0.4300000000E+07    0.6374448021E+00    0.3062740171E-01    0.2013733611E-04    0.4268230652E-01    0.6554938514E+00
    0.4500000000E+07    0.6374426761E+00    0.3061503232E-01    0.1964985432E-04    0.4268567484E-01    0.6555074028E+00
    0.4700000000E+07    0.6374405983E+00    0.3060320369E-01    0.1919461904E-04    0.4268889403E-01    0.6555203285E+00
    0.4900000000E+07    0.6374385683E+00    0.3059187067E-01    0.1876825601E-04    0.4269197675E-01    0.6555326833E+00
    0.1000000000E+07    0.6374692185E+00    0.3102528682E-01    0.4420197845E-04    0.4257151451E-01    0.6550277699E+00
    0.3000000000E+07    0.6374597051E+00    0.3072544834E-01    0.2444989787E-04    0.4265551722E-01    0.6553850165E+00
    0.5000000000E+07    0.6374375709E+00    0.3058637742E-01    0.1856497873E-04    0.4269347045E-01    0.6555386617E+00
    0.7000000000E+07    0.6374198357E+00    0.3049498271E-01    0.1548550432E-04    0.4271828253E-01    0.6556372581E+00
    0.9000000000E+07    0.6374054431E+00    0.3042684290E-01    0.1352356004E-04    0.4273675026E-01    0.6557098519E+00
    0.1100000000E+08    0.6373934029E+00    0.3037251546E-01    0.1213702500E-04    0.4275146705E-01    0.6557672734E+00
    0.1300000000E+08    0.6373830737E+00    0.3032734619E-01    0.1109182742E-04    0.4276370288E-01    0.6558147513E+00
    0.1500000000E+08    0.6373740370E+00    0.3028869600E-01    0.1026836903E-04    0.4277417515E-01    0.6558552093E+00
    0.1700000000E+08    0.6373660080E+00    0.3025492334E-01    0.9598406125E-05    0.4278332903E-01    0.6558904480E+00
    0.1900000000E+08    0.6373587860E+00    0.3022493743E-01    0.9039816689E-05    0.4279145983E-01    0.6559216546E+00
    0.2100000000E+08    0.6373522240E+00    0.3019797656E-01    0.8565024035E-05    0.4279877355E-01    0.6559496531E+00
    0.2300000000E+08    0.6373462120E+00    0.3017348779E-01    0.8155125802E-05    0.4280541963E-01    0.6559750385E+00
    0.2500000000E+08    0.6373406648E+00    0.3015105703E-01    0.7796679283E-05    0.4281150990E-01    0.6559982547E+00
    0.2700000000E+08    0.6373355160E+00    0.3013036614E-01    0.7479831113E-05    0.4281713026E-01    0.6560196416E+00
