  Pressure (Pa) 22mC5-400 (mol/kg) 3mC6-400 (mol/kg) 33mC5-400 (mol/kg) 23mC5-400 (mol/kg) C7-400 (mol/kg)
    0.1000000000E+01    0.4234237234E-02    0.2097841739E-02    0.6432489129E-04    0.1858717552E-03    0.8510666684E-02
    0.3000000000E+01    0.1253808206E-01    0.6102922564E-02    0.1865829782E-03    0.5503949515E-03    0.2476240052E-01
    0.5000000000E+01    0.2062948051E-01    0.9872513996E-02    0.3009131512E-03    0.9056005992E-03    0.4006317475E-01
    0.7000000000E+01    0.2851652715E-01    0.1342676068E-01    0.4079605906E-03    0.1251843608E-02    0.5449420516E-01
    0.9000000000E+01    0.3620690990E-01    0.1678357412E-01    0.5083021986E-03    0.1589461059E-02    0.6812771169E-01
    0.1100000000E+02    0.4370793517E-01    0.1995893374E-01    0.6024555828E-03    0.1918773310E-02    0.8102813061E-01
    0.1300000000E+02    0.5102655128E-01    0.2296714051E-01    0.6908866376E-03    0.2240085018E-02    0.9325313572E-01
    0.1500000000E+02    0.5816937010E-01    0.2582103164E-01    0.7740159738E-03    0.2553686092E-02    0.1048545030E+00
    0.1700000000E+02    0.6514268714E-01    0.2853216314E-01    0.8522243988E-03    0.2859852571E-02    0.1158788458E+00
    0.1900000000E+02    0.7195250030E-01    0.3111096575E-01    0.9258576061E-03    0.3158847449E-02    0.1263682427E+00
    0.2100000000E+02    0.7860452721E-01    0.3356687862E-01    0.9952302070E-03    0.3450921429E-02    0.1363607761E+00
    0.2300000000E+02    0.8510422141E-01    0.3590846441E-01    0.1060629210E-02    0.3736313640E-02    0.1458909956E+00
    0.2500000000E+02    0.9145678745E-01    0.3814350864E-01    0.1122317033E-02    0.4015252291E-02    0.1549903184E+00
    0.2700000000E+02    0.9766719490E-01    0.4027910594E-01    0.1180534127E-02    0.4287955293E-02    0.1636873765E+00
    0.2900000000E+02    0.1037401915E+00    0.4232173499E-01    0.1235501260E-02    0.4554630829E-02    0.1720083190E+00
    0.3100000000E+02    0.1096803154E+00    0.4427732390E-01    0.1287421521E-02    0.4815477894E-02    0.1799770751E+00
    0.3300000000E+02    0.1154919065E+00    0.4615130754E-01    0.1336482075E-02    0.5070686795E-02    0.1876155853E+00
    0.3500000000E+02    0.1211791174E+00    0.4794867771E-01    0.1382855714E-02    0.5320439619E-02    0.1949440034E+00
    0.3700000000E+02    0.1267459231E+00    0.4967402741E-01    0.1426702222E-02    0.5564910677E-02    0.2019808751E+00
    0.3900000000E+02    0.1321961307E+00    0.5133158989E-01    0.1468169589E-02    0.5804266907E-02    0.2087432953E+00
    0.4100000000E+02    0.1375333879E+00    0.5292527318E-01    0.1507395089E-02    0.6038668269E-02    0.2152470469E+00
    0.4300000000E+02    0.1427611914E+00    0.5445869071E-01    0.1544506233E-02    0.6268268098E-02    0.2215067250E+00
    0.4500000000E+02    0.1478828946E+00    0.5593518858E-01    0.1579621629E-02    0.6493213448E-02    0.2275358457E+00
    0.4700000000E+02    0.1529017151E+00    0.5735786978E-01    0.1612851747E-02    0.6713645412E-02    0.2333469450E+00
    0.4900000000E+02    0.1578207409E+00    0.5872961593E-01    0.1644299605E-02    0.6929699416E-02    0.2389516654E+00
    0.1000000000E+02    0.3998064982E-01    0.1839300520E-01    0.5561221687E-03    0.1755135937E-02    0.7466580482E-01
    0.3000000000E+02    0.1067265868E+00    0.4331005884E-01    0.1261830198E-02    0.4685770828E-02    0.1760353049E+00
    0.5000000000E+02    0.1602437622E+00    0.5939723314E-01    0.1659385494E-02    0.7036125525E-02    0.2416800469E+00
    0.7000000000E+02    0.2041270745E+00    0.7063561879E-01    0.1887796829E-02    0.8963840358E-02    0.2876766038E+00
    0.9000000000E+02    0.2407744467E+00    0.7892636353E-01    0.2016250408E-02    0.1057407523E-01    0.3217103777E+00
    0.1100000000E+03    0.2718470404E+00    0.8529196117E-01    0.2082862530E-02    0.1193968539E-01    0.3479191353E+00
    0.1300000000E+03    0.2985323122E+00    0.9033122038E-01    0.2110096416E-02    0.1311275441E-01    0.3687286182E+00
    0.1500000000E+03    0.3217018550E+00    0.9441808039E-01    0.2111831368E-02    0.1413151460E-01    0.3856551979E+00
    0.1700000000E+03    0.3420100424E+00    0.9779808694E-01    0.2096943567E-02    0.1502467224E-01    0.3996956162E+00
    0.1900000000E+03    0.3599578530E+00    0.1006391284E+00    0.2071257065E-02    0.1581420612E-01    0.4115320773E+00
    0.2100000000E+03    0.3759354190E+00    0.1030598781E+00    0.2038667246E-02    0.1651723337E-01    0.4216472931E+00
    0.2300000000E+03    0.3902511410E+00    0.1051465905E+00    0.2001816330E-02    0.1714728616E-01    0.4303924659E+00
    0.2500000000E+03    0.4031520723E+00    0.1069634596E+00    0.1962513836E-02    0.1771520572E-01    0.4380292377E+00
    0.2700000000E+03    0.4148384835E+00    0.1085592449E+00    0.1922005806E-02    0.1822978100E-01    0.4447565419E+00
    0.2900000000E+03    0.4254744592E+00    0.1099716445E+00    0.1881151286E-02    0.1869821352E-01    0.4507283380E+00
    0.3100000000E+03    0.4351957354E+00    0.1112302620E+00    0.1840540326E-02    0.1912646103E-01    0.4560656480E+00
    0.3300000000E+03    0.4441155802E+00    0.1123586669E+00    0.1800574208E-02    0.1951949555E-01    0.4608649222E+00
    0.3500000000E+03    0.4523292674E+00    0.1133758566E+00    0.1761520781E-02    0.1988149953E-01    0.4652039784E+00
    0.3700000000E+03    0.4599175198E+00    0.1142973128E+00    0.1723553109E-02    0.2021601691E-01    0.4691462966E+00
    0.3900000000E+03    0.4669491899E+00    0.1151357783E+00    0.1686776728E-02    0.2052607074E-01    0.4727441779E+00
    0.4100000000E+03    0.4734833683E+00    0.1159018363E+00    0.1651249063E-02    0.2081425567E-01    0.4760411034E+00
    0.4300000000E+03    0.4795710569E+00    0.1166043492E+00    0.1616993350E-02    0.2108281134E-01    0.4790735192E+00
    0.4500000000E+03    0.4852565093E+00    0.1172507940E+00    0.1584008676E-02    0.2133368123E-01    0.4818722053E+00
    0.4700000000E+03    0.4905783126E+00    0.1178475228E+00    0.1552277269E-02    0.2156856008E-01    0.4844633364E+00
    0.4900000000E+03    0.4955702677E+00    0.1183999662E+00    0.1521769789E-02    0.2178893253E-01    0.4868693124E+00
    0.1000000000E+03    0.2569244920E+00    0.8230549407E-01    0.2055622637E-02    0.1128381366E-01    0.3356134360E+00
    0.3000000000E+03    0.4304418871E+00    0.1106185810E+00    0.1860786603E-02    0.1891702910E-01    0.4534697789E+00
    0.5000000000E+03    0.4979519861E+00    0.1186610664E+00    0.1506963664E-02    0.2189409326E-01    0.4880089997E+00
    0.7000000000E+03    0.5338897654E+00    0.1224084504E+00    0.1264601949E-02    0.2348264843E-01    0.5045995561E+00
    0.9000000000E+03    0.5562006652E+00    0.1245516104E+00    0.1097013529E-02    0.2447118123E-01    0.5143818350E+00
    0.1100000000E+04    0.5713963311E+00    0.1259257307E+00    0.9754843097E-03    0.2514603870E-01    0.5208504416E+00
    0.1300000000E+04    0.5824103992E+00    0.1268737193E+00    0.8834501467E-03    0.2563633125E-01    0.5254549799E+00
    0.1500000000E+04    0.5907590970E+00    0.1275619157E+00    0.8112399777E-03    0.2600884213E-01    0.5289057810E+00
    0.1700000000E+04    0.5973049056E+00    0.1280805851E+00    0.7529434713E-03    0.2630159015E-01    0.5315922059E+00
    0.1900000000E+04    0.6025745503E+00    0.1284828460E+00    0.7047769310E-03    0.2653781216E-01    0.5337456935E+00
    0.2100000000E+04    0.6069078568E+00    0.1288019397E+00    0.6642157849E-03    0.2673251161E-01    0.5355125392E+00
    0.2300000000E+04    0.6105338757E+00    0.1290596989E+00    0.6295142904E-03    0.2689580916E-01    0.5369897996E+00
    0.2500000000E+04    0.6136126074E+00    0.1292710334E+00    0.5994276221E-03    0.2703478001E-01    0.5382444295E+00
    0.2700000000E+04    0.6162591928E+00    0.1294464591E+00    0.5730443397E-03    0.2715451970E-01    0.5393241311E+00
    0.2900000000E+04    0.6185586014E+00    0.1295935955E+00    0.5496816212E-03    0.2725879144E-01    0.5402638222E+00
    0.3100000000E+04    0.6205749041E+00    0.1297180922E+00    0.5288175804E-03    0.2735043512E-01    0.5410896587E+00
    0.3300000000E+04    0.6223573245E+00    0.1298242221E+00    0.5100462638E-03    0.2743163423E-01    0.5418216265E+00
    0.3500000000E+04    0.6239443034E+00    0.1299152730E+00    0.4930469533E-03    0.2750409527E-01    0.5424752639E+00
    0.3700000000E+04    0.6253662974E+00    0.1299938135E+00    0.4775627450E-03    0.2756917137E-01    0.5430628366E+00
    0.3900000000E+04    0.6266477491E+00    0.1300618776E+00    0.4633852935E-03    0.2762794931E-01    0.5435941586E+00
    0.4100000000E+04    0.6278085014E+00    0.1301210951E+00    0.4503437459E-03    0.2768131203E-01    0.5440771773E+00
    0.4300000000E+04    0.6288648304E+00    0.1301727863E+00    0.4382965821E-03    0.2772998434E-01    0.5445183986E+00
    0.4500000000E+04    0.6298302128E+00    0.1302180311E+00    0.4271255063E-03    0.2777456685E-01    0.5449232005E+00
    0.4700000000E+04    0.6307159021E+00    0.1302577204E+00    0.4167308126E-03    0.2781556148E-01    0.5452960684E+00
    0.4900000000E+04    0.6315313695E+00    0.1302925956E+00    0.4070278232E-03    0.2785339097E-01    0.5456407733E+00
    0.1000000000E+04    0.5644569623E+00    0.1253072747E+00    0.1031739793E-02    0.2483765788E-01    0.5179142998E+00
    0.3000000000E+04    0.6195987717E+00    0.1296583799E+00    0.5389649407E-03    0.2730604237E-01    0.5406896020E+00
    0.5000000000E+04    0.6319153274E+00    0.1303084259E+00    0.4024126711E-03    0.2787123302E-01    0.5458035823E+00
    0.7000000000E+04    0.6373369382E+00    0.1304806023E+00    0.3333260528E-03    0.2812583411E-01    0.5481495578E+00
    0.9000000000E+04    0.6403859359E+00    0.1305160055E+00    0.2900578099E-03    0.2827224897E-01    0.5495290407E+00
    0.1100000000E+05    0.6423395888E+00    0.1304999120E+00    0.2597842188E-03    0.2836812908E-01    0.5504528704E+00
    0.1300000000E+05    0.6436979403E+00    0.1304619307E+00    0.2371095315E-03    0.2843622751E-01    0.5511233529E+00
    0.1500000000E+05    0.6446969034E+00    0.1304143513E+00    0.2193235757E-03    0.2848736359E-01    0.5516372868E+00
    0.1700000000E+05    0.6454623042E+00    0.1303628604E+00    0.2048984156E-03    0.2852735268E-01    0.5520470894E+00
    0.1900000000E+05    0.6460673824E+00    0.1303102716E+00    0.1928992840E-03    0.2855960568E-01    0.5523837512E+00
    0.2100000000E+05    0.6465576623E+00    0.1302580288E+00    0.1827183161E-03    0.2858625879E-01    0.5526668416E+00
    0.2300000000E+05    0.6469629280E+00    0.1302068786E+00    0.1739410445E-03    0.2860872010E-01    0.5529093676E+00
    0.2500000000E+05    0.6473034844E+00    0.1301571957E+00    0.1662739540E-03    0.2862795670E-01    0.5531203367E+00
    0.2700000000E+05    0.6475936498E+00    0.1301091499E+00    0.1595026376E-03    0.2864465558E-01    0.5533062002E+00
    0.2900000000E+05    0.6478438103E+00    0.1300627962E+00    0.1534663717E-03    0.2865931871E-01    0.5534717104E+00
    0.3100000000E+05    0.6480616830E+00    0.1300181248E+00    0.1480420074E-03    0.2867232176E-01    0.5536204524E+00
    0.3300000000E+05    0.6482531211E+00    0.1299750899E+00    0.1431333964E-03    0.2868395173E-01    0.5537551867E+00
    0.3500000000E+05    0.6484226446E+00    0.1299336265E+00    0.1386642374E-03    0.2869443183E-01    0.5538780766E+00
    0.3700000000E+05    0.6485737993E+00    0.1298936605E+00    0.1345731085E-03    0.2870393841E-01    0.5539908444E+00
    0.3900000000E+05    0.6487094058E+00    0.1298551146E+00    0.1308099386E-03    0.2871261275E-01    0.5540948800E+00
    0.4100000000E+05    0.6488317358E+00    0.1298179114E+00    0.1273334489E-03    0.2872056942E-01    0.5541913187E+00
    0.4300000000E+05    0.6489426396E+00    0.1297819761E+00    0.1241092655E-03    0.2872790239E-01    0.5542810985E+00
    0.4500000000E+05    0.6490436390E+00    0.1297472371E+00    0.1211085043E-03    0.2873468949E-01    0.5543650014E+00
    0.4700000000E+05    0.6491359974E+00    0.1297136267E+00    0.1183066945E-03    0.2874099577E-01    0.5544436857E+00
    0.4900000000E+05    0.6492207725E+00    0.1296810813E+00    0.1156829491E-03    0.2874687605E-01    0.5545177099E+00
    0.1000000000E+05    0.6414591867E+00    0.1305119214E+00    0.2737260445E-03    0.2832466714E-01    0.5500315872E+00
    0.3000000000E+05    0.6479563804E+00    0.1300402525E+00    0.1506842471E-03    0.2866600807E-01    0.5535479887E+00
    0.5000000000E+05    0.6492606006E+00    0.1296651893E+00    0.1144321411E-03    0.2874967127E-01    0.5545531264E+00
    0.7000000000E+05    0.6498166052E+00    0.1293908809E+00    0.9549036236E-04    0.2879153652E-01    0.5551031577E+00
    0.9000000000E+05    0.6501233399E+00    0.1291762931E+00    0.8342598496E-04    0.2881806505E-01    0.5554735010E+00
    0.1100000000E+06    0.6503170248E+00    0.1290003973E+00    0.7489964586E-04    0.2883701079E-01    0.5557499517E+00
    0.1300000000E+06    0.6504500164E+00    0.1288514767E+00    0.6847143201E-04    0.2885155005E-01    0.5559693916E+00
    0.1500000000E+06    0.6505467137E+00    0.1287224015E+00    0.6340607711E-04    0.2886325323E-01    0.5561507961E+00
    0.1700000000E+06    0.6506200106E+00    0.1286085265E+00    0.5928415641E-04    0.2887299762E-01    0.5563051301E+00
    0.1900000000E+06    0.6506773571E+00    0.1285066613E+00    0.5584682265E-04    0.2888131748E-01    0.5564392683E+00
    0.2100000000E+06    0.6507233549E+00    0.1284145221E+00    0.5292461910E-04    0.2888855975E-01    0.5565577901E+00
    0.2300000000E+06    0.6507609981E+00    0.1283304188E+00    0.5040139070E-04    0.2889496122E-01    0.5566638918E+00
    0.2500000000E+06    0.6507923177E+00    0.1282530657E+00    0.4819452835E-04    0.2890069005E-01    0.5567598890E+00
    0.2700000000E+06    0.6508187397E+00    0.1281814625E+00    0.4624347655E-04    0.2890586959E-01    0.5568475111E+00
    0.2900000000E+06    0.6508412937E+00    0.1281148156E+00    0.4450270969E-04    0.2891059276E-01    0.5569280820E+00
    0.3100000000E+06    0.6508607419E+00    0.1280524848E+00    0.4293725973E-04    0.2891493121E-01    0.5570026374E+00
    0.3300000000E+06    0.6508776600E+00    0.1279939465E+00    0.4151976832E-04    0.2891894123E-01    0.5570720022E+00
    0.3500000000E+06    0.6508924910E+00    0.1279387665E+00    0.4022848536E-04    0.2892266783E-01    0.5571368438E+00
    0.3700000000E+06    0.6509055812E+00    0.1278865814E+00    0.3904587491E-04    0.2892614749E-01    0.5571977093E+00
    0.3900000000E+06    0.6509172050E+00    0.1278370835E+00    0.3795762206E-04    0.2892941020E-01    0.5572550531E+00
    0.4100000000E+06    0.6509275827E+00    0.1277900103E+00    0.3695191137E-04    0.2893248088E-01    0.5573092563E+00
    0.4300000000E+06    0.6509368932E+00    0.1277451357E+00    0.3601889337E-04    0.2893538043E-01    0.5573606417E+00
    0.4500000000E+06    0.6509452830E+00    0.1277022641E+00    0.3515028374E-04    0.2893812659E-01    0.5574094851E+00
    0.4700000000E+06    0.6509528734E+00    0.1276612246E+00    0.3433905794E-04    0.2894073448E-01    0.5574560238E+00
    0.4900000000E+06    0.6509597656E+00    0.1276218675E+00    0.3357921565E-04    0.2894321714E-01    0.5575004636E+00
    0.1000000000E+06    0.6502300583E+00    0.1290843850E+00    0.7883455317E-04    0.2882823171E-01    0.5556205468E+00
    0.3000000000E+06    0.6508513664E+00    0.1280831458E+00    0.4369993128E-04    0.2891280625E-01    0.5569660559E+00
    0.5000000000E+06    0.6509629770E+00    0.1276027779E+00    0.3321692213E-04    0.2894441510E-01    0.5575219535E+00
    0.7000000000E+06    0.6510054921E+00    0.1272840761E+00    0.2772650485E-04    0.2896389263E-01    0.5578752082E+00
    0.9000000000E+06    0.6510261508E+00    0.1270453195E+00    0.2422635623E-04    0.2897796217E-01    0.5581342361E+00
    0.1100000000E+07    0.6510374050E+00    0.1268543882E+00    0.2175155705E-04    0.2898897149E-01    0.5583387019E+00
    0.1300000000E+07    0.6510438808E+00    0.1266953107E+00    0.1988527278E-04    0.2899801289E-01    0.5585075657E+00
    0.1500000000E+07    0.6510476615E+00    0.1265589797E+00    0.1841443591E-04    0.2900568271E-01    0.5586513662E+00
    0.1700000000E+07    0.6510498099E+00    0.1264397076E+00    0.1721742678E-04    0.2901234205E-01    0.5587765671E+00
    0.1900000000E+07    0.6510509179E+00    0.1263337040E+00    0.1621915600E-04    0.2901822606E-01    0.5588874178E+00
    0.2100000000E+07    0.6510513377E+00    0.1262383156E+00    0.1537045086E-04    0.2902349640E-01    0.5589868618E+00
    0.2300000000E+07    0.6510512894E+00    0.1261516129E+00    0.1463759831E-04    0.2902826897E-01    0.5590770215E+00
    0.2500000000E+07    0.6510509163E+00    0.1260721483E+00    0.1399661776E-04    0.2903262965E-01    0.5591594780E+00
    0.2700000000E+07    0.6510503149E+00    0.1259988086E+00    0.1342992839E-04    0.2903664391E-01    0.5592354403E+00
    0.2900000000E+07    0.6510495514E+00    0.1259307186E+00    0.1292431163E-04    0.2904036273E-01    0.5593058539E+00
    0.3100000000E+07    0.6510486728E+00    0.1258671785E+00    0.1246961355E-04    0.2904382662E-01    0.5593714719E+00
    0.3300000000E+07    0.6510477126E+00    0.1258076194E+00    0.1205788943E-04    0.2904706829E-01    0.5594329040E+00
    0.3500000000E+07    0.6510466955E+00    0.1257515729E+00    0.1168282282E-04    0.2905011456E-01    0.5594906507E+00
    0.3700000000E+07    0.6510456395E+00    0.1256986485E+00    0.1133932091E-04    0.2905298763E-01    0.5595451278E+00
    0.3900000000E+07    0.6510445581E+00    0.1256485176E+00    0.1102322618E-04    0.2905570616E-01    0.5595966847E+00
    0.4100000000E+07    0.6510434614E+00    0.1256009005E+00    0.1073110696E-04    0.2905828591E-01    0.5596456175E+00
    0.4300000000E+07    0.6510423570E+00    0.1255555578E+00    0.1046010252E-04    0.2906074039E-01    0.5596921796E+00
    0.4500000000E+07    0.6510412509E+00    0.1255122827E+00    0.1020780665E-04    0.2906308119E-01    0.5597365895E+00
    0.4700000000E+07    0.6510401473E+00    0.1254708951E+00    0.9972179021E-05    0.2906531839E-01    0.5597790367E+00
    0.4900000000E+07    0.6510390496E+00    0.1254312377E+00    0.9751476783E-05    0.2906746076E-01    0.5598196867E+00
    0.1000000000E+07    0.6510325741E+00    0.1269450981E+00    0.2289377604E-04    0.2898376455E-01    0.5582418258E+00
    0.3000000000E+07    0.6510491241E+00    0.1258984181E+00    0.1269113822E-04    0.2904212433E-01    0.5593392213E+00
    0.5000000000E+07    0.6510385039E+00    0.1254120139E+00    0.9646245981E-05    0.2906849884E-01    0.5598393840E+00
    0.7000000000E+07    0.6510282581E+00    0.1250920416E+00    0.8051539232E-05    0.2908574328E-01    0.5601665767E+00
    0.9000000000E+07    0.6510194287E+00    0.1248533202E+00    0.7034945219E-05    0.2909857931E-01    0.5604100022E+00
    0.1100000000E+08    0.6510118172E+00    0.1246628877E+00    0.6316177709E-05    0.2910880876E-01    0.5606038542E+00
    0.1300000000E+08    0.6510051682E+00    0.1245044881E+00    0.5774157197E-05    0.2911731406E-01    0.5607649092E+00
    0.1500000000E+08    0.6509992801E+00    0.1243688997E+00    0.5346994270E-05    0.2912459372E-01    0.5609026527E+00
    0.1700000000E+08    0.6509940029E+00    0.1242503842E+00    0.4999362918E-05    0.2913095708E-01    0.5610229730E+00
    0.1900000000E+08    0.6509892247E+00    0.1241451275E+00    0.4709452855E-05    0.2913660936E-01    0.5611297770E+00
    0.2100000000E+08    0.6509848609E+00    0.1240504653E+00    0.4462981736E-05    0.2914169373E-01    0.5612257900E+00
    0.2300000000E+08    0.6509808463E+00    0.1239644631E+00    0.4250157661E-05    0.2914631405E-01    0.5613129886E+00
    0.2500000000E+08    0.6509771295E+00    0.1238856719E+00    0.4064015618E-05    0.2915054804E-01    0.5613928520E+00
    0.2700000000E+08    0.6509736697E+00    0.1238129782E+00    0.3899449424E-05    0.2915445539E-01    0.5614665161E+00
