  Pressure (Pa) 22mC5-400 (mol/kg) 3mC6-400 (mol/kg) 33mC5-400 (mol/kg) 23mC5-400 (mol/kg) C7-400 (mol/kg)
    0.1000000000E+01    0.4759172355E-02    0.2639992296E-02    0.6463707103E-04    0.2785535790E-03    0.3427118710E-02
    0.3000000000E+01    0.1406731906E-01    0.7780337370E-02    0.1892425621E-03    0.8233689355E-03    0.1010091997E-01
    0.5000000000E+01    0.2310541603E-01    0.1274255928E-01    0.3079157850E-03    0.1352392350E-02    0.1654454193E-01
    0.7000000000E+01    0.3188510321E-01    0.1753575686E-01    0.4209869326E-03    0.1866304296E-02    0.2276972398E-01
    0.9000000000E+01    0.4041736013E-01    0.2216841966E-01    0.5287640270E-03    0.2365746651E-02    0.2878742003E-01
    0.1100000000E+02    0.4871255215E-01    0.2664847803E-01    0.6315346900E-03    0.2851325387E-02    0.3460786309E-01
    0.1300000000E+02    0.5678047274E-01    0.3098334851E-01    0.7295677497E-03    0.3323613051E-02    0.4024062366E-01
    0.1500000000E+02    0.6463038238E-01    0.3517997467E-01    0.8231146983E-03    0.3783151034E-02    0.4569466248E-01
    0.1700000000E+02    0.7227104437E-01    0.3924486431E-01    0.9124110189E-03    0.4230451664E-02    0.5097837838E-01
    0.1900000000E+02    0.7971075769E-01    0.4318412305E-01    0.9976773928E-03    0.4666000130E-02    0.5609965160E-01
    0.2100000000E+02    0.8695738739E-01    0.4700348499E-01    0.1079120802E-02    0.5090256254E-02    0.6106588328E-01
    0.2300000000E+02    0.9401839255E-01    0.5070834045E-01    0.1156935536E-02    0.5503656131E-02    0.6588403129E-01
    0.2500000000E+02    0.1009008522E+00    0.5430376146E-01    0.1231304109E-02    0.5906613634E-02    0.7056064296E-01
    0.2700000000E+02    0.1076114891E+00    0.5779452482E-01    0.1302398107E-02    0.6299521817E-02    0.7510188490E-01
    0.2900000000E+02    0.1141566920E+00    0.6118513331E-01    0.1370378957E-02    0.6682754206E-02    0.7951357033E-01
    0.3100000000E+02    0.1205425361E+00    0.6447983508E-01    0.1435398638E-02    0.7056665998E-02    0.8380118400E-01
    0.3300000000E+02    0.1267748022E+00    0.6768264136E-01    0.1497600332E-02    0.7421595172E-02    0.8796990510E-01
    0.3500000000E+02    0.1328589938E+00    0.7079734276E-01    0.1557119021E-02    0.7777863518E-02    0.9202462822E-01
    0.3700000000E+02    0.1388003542E+00    0.7382752425E-01    0.1614082045E-02    0.8125777599E-02    0.9596998271E-01
    0.3900000000E+02    0.1446038814E+00    0.7677657888E-01    0.1668609603E-02    0.8465629638E-02    0.9981035033E-01
    0.4100000000E+02    0.1502743423E+00    0.7964772050E-01    0.1720815230E-02    0.8797698349E-02    0.1035498816E+00
    0.4300000000E+02    0.1558162857E+00    0.8244399540E-01    0.1770806228E-02    0.9122249711E-02    0.1071925110E+00
    0.4500000000E+02    0.1612340551E+00    0.8516829310E-01    0.1818684065E-02    0.9439537683E-02    0.1107419707E+00
    0.4700000000E+02    0.1665317998E+00    0.8782335631E-01    0.1864544750E-02    0.9749804880E-02    0.1142018033E+00
    0.4900000000E+02    0.1717134857E+00    0.9041179014E-01    0.1908479174E-02    0.1005328320E-01    0.1175753740E+00
    0.1000000000E+02    0.4459396423E-01    0.2442704932E-01    0.5807579379E-03    0.2610232432E-02    0.3172168515E-01
    0.3000000000E+02    0.1173691659E+00    0.6284421648E-01    0.1403249796E-02    0.6870853662E-02    0.8167255553E-01
    0.5000000000E+02    0.1742619984E+00    0.9168179961E-01    0.1929751123E-02    0.1020254621E-01    0.1192308169E+00
    0.7000000000E+02    0.2199785265E+00    0.1141248872E+00    0.2272717601E-02    0.1288047012E-01    0.1485098191E+00
    0.9000000000E+02    0.2575294080E+00    0.1320874145E+00    0.2497443686E-02    0.1508067215E-01    0.1719827196E+00
    0.1100000000E+03    0.2889307679E+00    0.1467887696E+00    0.2643709007E-02    0.1692105480E-01    0.1912260935E+00
    0.1300000000E+03    0.3155839277E+00    0.1590426462E+00    0.2736690091E-02    0.1848357436E-01    0.2072925822E+00
    0.1500000000E+03    0.3384934477E+00    0.1694128117E+00    0.2792822433E-02    0.1982698782E-01    0.2209119202E+00
    0.1700000000E+03    0.3583984735E+00    0.1783022239E+00    0.2823114009E-02    0.2099453183E-01    0.2326059852E+00
    0.1900000000E+03    0.3758551052E+00    0.1860065538E+00    0.2835097926E-02    0.2201873864E-01    0.2427579215E+00
    0.2100000000E+03    0.3912898567E+00    0.1927476653E+00    0.2834023998E-02    0.2292456185E-01    0.2516553914E+00
    0.2300000000E+03    0.4050353921E+00    0.1986952942E+00    0.2823607808E-02    0.2373146603E-01    0.2595185924E+00
    0.2500000000E+03    0.4173550402E+00    0.2039815092E+00    0.2806513834E-02    0.2445486024E-01    0.2665189523E+00
    0.2700000000E+03    0.4284599960E+00    0.2087106120E+00    0.2784674112E-02    0.2510710398E-01    0.2727919325E+00
    0.2900000000E+03    0.4385216366E+00    0.2129660712E+00    0.2759502602E-02    0.2569822741E-01    0.2784459974E+00
    0.3100000000E+03    0.4476804986E+00    0.2168154760E+00    0.2732041954E-02    0.2623645644E-01    0.2835690260E+00
    0.3300000000E+03    0.4560529272E+00    0.2203141420E+00    0.2703065563E-02    0.2672860164E-01    0.2882329787E+00
    0.3500000000E+03    0.4637360751E+00    0.2235077756E+00    0.2673149548E-02    0.2718035056E-01    0.2924973487E+00
    0.3700000000E+03    0.4708117083E+00    0.2264344744E+00    0.2642724160E-02    0.2759649045E-01    0.2964117524E+00
    0.3900000000E+03    0.4773491402E+00    0.2291262468E+00    0.2612110922E-02    0.2798107982E-01    0.3000178995E+00
    0.4100000000E+03    0.4834075182E+00    0.2316101823E+00    0.2581549745E-02    0.2833758226E-01    0.3033511090E+00
    0.4300000000E+03    0.4890376232E+00    0.2339093611E+00    0.2551218904E-02    0.2866897167E-01    0.3064414897E+00
    0.4500000000E+03    0.4942833002E+00    0.2360435697E+00    0.2521249892E-02    0.2897781602E-01    0.3093148676E+00
    0.4700000000E+03    0.4991826040E+00    0.2380298679E+00    0.2491738539E-02    0.2926634434E-01    0.3119935223E+00
    0.4900000000E+03    0.5037687258E+00    0.2398830428E+00    0.2462753403E-02    0.2953650094E-01    0.3144967760E+00
    0.1000000000E+03    0.2738998924E+00    0.1397876334E+00    0.2578553408E-02    0.1604005773E-01    0.1820579428E+00
    0.3000000000E+03    0.4432061417E+00    0.2149378205E+00    0.2746004735E-02    0.2597349872E-01    0.2810690659E+00
    0.5000000000E+03    0.5059535739E+00    0.2407638003E+00    0.2448473735E-02    0.2966523060E-01    0.3156879761E+00
    0.7000000000E+03    0.5386678553E+00    0.2537848303E+00    0.2195493071E-02    0.3159520006E-01    0.3334377942E+00
    0.9000000000E+03    0.5587407213E+00    0.2616091585E+00    0.1998655016E-02    0.3278258331E-01    0.3442822850E+00
    0.1100000000E+04    0.5723092736E+00    0.2668164810E+00    0.1843300068E-02    0.3358736478E-01    0.3516198254E+00
    0.1300000000E+04    0.5820922555E+00    0.2705228436E+00    0.1717612515E-02    0.3416916620E-01    0.3569291022E+00
    0.1500000000E+04    0.5894789384E+00    0.2732894980E+00    0.1613566029E-02    0.3460962866E-01    0.3609579495E+00
    0.1700000000E+04    0.5952531119E+00    0.2754293978E+00    0.1525740320E-02    0.3495485377E-01    0.3641256996E+00
    0.1900000000E+04    0.5998904675E+00    0.2771307528E+00    0.1450390759E-02    0.3523284648E-01    0.3666859452E+00
    0.2100000000E+04    0.6036964076E+00    0.2785135010E+00    0.1384858294E-02    0.3546160265E-01    0.3688011874E+00
    0.2300000000E+04    0.6068759699E+00    0.2796576595E+00    0.1327204341E-02    0.3565321502E-01    0.3705804394E+00
    0.2500000000E+04    0.6095719168E+00    0.2806186370E+00    0.1275981570E-02    0.3581611100E-01    0.3720996051E+00
    0.2700000000E+04    0.6118867049E+00    0.2814360041E+00    0.1230086432E-02    0.3595634412E-01    0.3734131907E+00
    0.2900000000E+04    0.6138957681E+00    0.2821387651E+00    0.1188661734E-02    0.3607837531E-01    0.3745613677E+00
    0.3100000000E+04    0.6156558741E+00    0.2827486567E+00    0.1151030656E-02    0.3618556460E-01    0.3755744070E+00
    0.3300000000E+04    0.6172105599E+00    0.2832822851E+00    0.1116650986E-02    0.3628049124E-01    0.3764755617E+00
    0.3500000000E+04    0.6185937736E+00    0.2837525514E+00    0.1085082708E-02    0.3636516819E-01    0.3772829955E+00
    0.3700000000E+04    0.6198323761E+00    0.2841696274E+00    0.1055964597E-02    0.3644118958E-01    0.3780111082E+00
    0.3900000000E+04    0.6209478981E+00    0.2845416387E+00    0.1028997027E-02    0.3650983435E-01    0.3786714655E+00
    0.4100000000E+04    0.6219577998E+00    0.2848751532E+00    0.1003929124E-02    0.3657214058E-01    0.3792734671E+00
    0.4300000000E+04    0.6228763890E+00    0.2851755354E+00    0.9805490527E-03    0.3662895967E-01    0.3798248326E+00
    0.4500000000E+04    0.6237155019E+00    0.2854472092E+00    0.9586765517E-03    0.3668099658E-01    0.3803319627E+00
    0.4700000000E+04    0.6244850145E+00    0.2856938544E+00    0.9381571439E-03    0.3672884002E-01    0.3808002105E+00
    0.4900000000E+04    0.6251932319E+00    0.2859185561E+00    0.9188575891E-03    0.3677298553E-01    0.3812340887E+00
    0.1000000000E+04    0.5661232461E+00    0.2644513339E+00    0.1916632297E-02    0.3322019175E-01    0.3482722005E+00
    0.3000000000E+04    0.6148039591E+00    0.2824541808E+00    0.1169408604E-02    0.3613364861E-01    0.3750831880E+00
    0.5000000000E+04    0.6255265963E+00    0.2860235085E+00    0.9096285231E-03    0.3679380540E-01    0.3814393595E+00
    0.7000000000E+04    0.6302269192E+00    0.2874313070E+00    0.7676796647E-03    0.3709089139E-01    0.3844248435E+00
    0.9000000000E+04    0.6328639942E+00    0.2881334519E+00    0.6752183679E-03    0.3726185007E-01    0.3862096789E+00
    0.1100000000E+05    0.6345508230E+00    0.2885261648E+00    0.6089647402E-03    0.3737393858E-01    0.3874208379E+00
    0.1300000000E+05    0.6357220412E+00    0.2887593866E+00    0.5585401092E-03    0.3745366404E-01    0.3883096646E+00
    0.1500000000E+05    0.6365823604E+00    0.2889015235E+00    0.5185296904E-03    0.3751362353E-01    0.3889975518E+00
    0.1700000000E+05    0.6372408298E+00    0.2889878392E+00    0.4857973172E-03    0.3756058681E-01    0.3895507465E+00
    0.1900000000E+05    0.6377608618E+00    0.2890381555E+00    0.4583852465E-03    0.3759852484E-01    0.3900086806E+00
    0.2100000000E+05    0.6381818399E+00    0.2890643567E+00    0.4350002910E-03    0.3762992514E-01    0.3903964034E+00
    0.2300000000E+05    0.6385295128E+00    0.2890739329E+00    0.4147495937E-03    0.3765642789E-01    0.3907306552E+00
    0.2500000000E+05    0.6388214233E+00    0.2890717959E+00    0.3969943490E-03    0.3767916003E-01    0.3910230872E+00
    0.2700000000E+05    0.6390699352E+00    0.2890612722E+00    0.3812639251E-03    0.3769892244E-01    0.3912820829E+00
    0.2900000000E+05    0.6392840123E+00    0.2890446749E+00    0.3672029733E-03    0.3771630059E-01    0.3915138453E+00
    0.3100000000E+05    0.6394703116E+00    0.2890236484E+00    0.3545375313E-03    0.3773173286E-01    0.3917230729E+00
    0.3300000000E+05    0.6396338801E+00    0.2889993837E+00    0.3430525541E-03    0.3774555435E-01    0.3919133973E+00
    0.3500000000E+05    0.6397786137E+00    0.2889727569E+00    0.3325765848E-03    0.3775802578E-01    0.3920876755E+00
    0.3700000000E+05    0.6399075672E+00    0.2889444209E+00    0.3229710302E-03    0.3776935329E-01    0.3922481898E+00
    0.3900000000E+05    0.6400231699E+00    0.2889148677E+00    0.3141224922E-03    0.3777970208E-01    0.3923967881E+00
    0.4100000000E+05    0.6401273775E+00    0.2888844716E+00    0.3059371773E-03    0.3778920621E-01    0.3925349848E+00
    0.4300000000E+05    0.6402217823E+00    0.2888535195E+00    0.2983367497E-03    0.3779797570E-01    0.3926640348E+00
    0.4500000000E+05    0.6403076936E+00    0.2888222326E+00    0.2912552076E-03    0.3780610170E-01    0.3927849877E+00
    0.4700000000E+05    0.6403861981E+00    0.2887907819E+00    0.2846364969E-03    0.3781366046E-01    0.3928987292E+00
    0.4900000000E+05    0.6404582048E+00    0.2887593007E+00    0.2784326666E-03    0.3782071629E-01    0.3930060131E+00
    0.1000000000E+05    0.6337909749E+00    0.2883562391E+00    0.6396316584E-03    0.3732311054E-01    0.3868667401E+00
    0.3000000000E+05    0.6393802872E+00    0.2890346321E+00    0.3607104278E-03    0.3772423699E-01    0.3916210279E+00
    0.5000000000E+05    0.6404920159E+00    0.2887435819E+00    0.2754732004E-03    0.3782407299E-01    0.3930574389E+00
    0.7000000000E+05    0.6409624615E+00    0.2884430512E+00    0.2305092414E-03    0.3787458111E-01    0.3938642945E+00
    0.9000000000E+05    0.6412201622E+00    0.2881791663E+00    0.2017353051E-03    0.3790685187E-01    0.3944163744E+00
    0.1100000000E+06    0.6413817471E+00    0.2879496872E+00    0.1813404421E-03    0.3793004830E-01    0.3948330647E+00
    0.1300000000E+06    0.6414919191E+00    0.2877482248E+00    0.1659332321E-03    0.3794794287E-01    0.3951665144E+00
    0.1500000000E+06    0.6415714566E+00    0.2875692499E+00    0.1537742845E-03    0.3796240903E-01    0.3954438870E+00
    0.1700000000E+06    0.6416313129E+00    0.2874084948E+00    0.1438683184E-03    0.3797449756E-01    0.3956810357E+00
    0.1900000000E+06    0.6416778010E+00    0.2872627148E+00    0.1355996786E-03    0.3798485069E-01    0.3958879822E+00
    0.2100000000E+06    0.6417148112E+00    0.2871294234E+00    0.1285645913E-03    0.3799388683E-01    0.3960714482E+00
    0.2300000000E+06    0.6417448686E+00    0.2870066873E+00    0.1224858829E-03    0.3800189240E-01    0.3962361539E+00
    0.2500000000E+06    0.6417696822E+00    0.2868929802E+00    0.1171661888E-03    0.3800907137E-01    0.3963855363E+00
    0.2700000000E+06    0.6417904486E+00    0.2867870788E+00    0.1124606850E-03    0.3801557370E-01    0.3965221735E+00
    0.2900000000E+06    0.6418080303E+00    0.2866879897E+00    0.1082603962E-03    0.3802151269E-01    0.3966480478E+00
    0.3100000000E+06    0.6418230639E+00    0.2865948956E+00    0.1044815545E-03    0.3802697581E-01    0.3967647152E+00
    0.3300000000E+06    0.6418360293E+00    0.2865071168E+00    0.1010585765E-03    0.3803203198E-01    0.3968734187E+00
    0.3500000000E+06    0.6418472949E+00    0.2864240821E+00    0.9793929143E-04    0.3803673636E-01    0.3969751671E+00
    0.3700000000E+06    0.6418571479E+00    0.2863453071E+00    0.9508161357E-04    0.3804113379E-01    0.3970707899E+00
    0.3900000000E+06    0.6418658154E+00    0.2862703777E+00    0.9245117064E-04    0.3804526114E-01    0.3971609770E+00
    0.4100000000E+06    0.6418734794E+00    0.2861989369E+00    0.9001957917E-04    0.3804914911E-01    0.3972463089E+00
    0.4300000000E+06    0.6418802871E+00    0.2861306753E+00    0.8776316856E-04    0.3805282351E-01    0.3973272779E+00
    0.4500000000E+06    0.6418863589E+00    0.2860653227E+00    0.8566202203E-04    0.3805630624E-01    0.3974043056E+00
    0.4700000000E+06    0.6418917943E+00    0.2860026416E+00    0.8369924559E-04    0.3805961602E-01    0.3974777554E+00
    0.4900000000E+06    0.6418966761E+00    0.2859424226E+00    0.8186040365E-04    0.3806276900E-01    0.3975479428E+00
    0.1000000000E+06    0.6413093334E+00    0.2880605295E+00    0.1907586025E-03    0.3791928301E-01    0.3946375352E+00
    0.3000000000E+06    0.6418158325E+00    0.2866407386E+00    0.1063227551E-03    0.3802429905E-01    0.3967074484E+00
    0.5000000000E+06    0.6418989314E+00    0.2859131775E+00    0.8098350870E-04    0.3806429113E-01    0.3975819007E+00
    0.7000000000E+06    0.6419271037E+00    0.2854217509E+00    0.6768364287E-04    0.3808910195E-01    0.3981415942E+00
    0.9000000000E+06    0.6419386599E+00    0.2850502522E+00    0.5919374464E-04    0.3810708954E-01    0.3985535726E+00
    0.1100000000E+07    0.6419434151E+00    0.2847514883E+00    0.5318519587E-04    0.3812119734E-01    0.3988795755E+00
    0.1300000000E+07    0.6419449096E+00    0.2845015881E+00    0.4865068599E-04    0.3813280205E-01    0.3991492890E+00
    0.1500000000E+07    0.6419446875E+00    0.2842867910E+00    0.4507481573E-04    0.3814265807E-01    0.3993792799E+00
    0.1700000000E+07    0.6419435095E+00    0.2840984380E+00    0.4216316776E-04    0.3815122346E-01    0.3995797375E+00
    0.1900000000E+07    0.6419417833E+00    0.2839307253E+00    0.3973385122E-04    0.3815879717E-01    0.3997573762E+00
    0.2100000000E+07    0.6419397411E+00    0.2837795722E+00    0.3766769061E-04    0.3816558506E-01    0.3999168545E+00
    0.2300000000E+07    0.6419375213E+00    0.2836420002E+00    0.3588294098E-04    0.3817173493E-01    0.4000615368E+00
    0.2500000000E+07    0.6419352089E+00    0.2835157686E+00    0.3432143248E-04    0.3817735646E-01    0.4001939321E+00
    0.2700000000E+07    0.6419328575E+00    0.2833991492E+00    0.3294050367E-04    0.3818253329E-01    0.4003159612E+00
    0.2900000000E+07    0.6419305014E+00    0.2832907811E+00    0.3170806803E-04    0.3818733065E-01    0.4004291275E+00
    0.3100000000E+07    0.6419281626E+00    0.2831895734E+00    0.3059947078E-04    0.3819180042E-01    0.4005346293E+00
    0.3300000000E+07    0.6419258553E+00    0.2830946382E+00    0.2959541596E-04    0.3819598449E-01    0.4006334377E+00
    0.3500000000E+07    0.6419235884E+00    0.2830052433E+00    0.2868055846E-04    0.3819991721E-01    0.4007263500E+00
    0.3700000000E+07    0.6419213674E+00    0.2829207775E+00    0.2784252292E-04    0.3820362710E-01    0.4008140294E+00
    0.3900000000E+07    0.6419191954E+00    0.2828407256E+00    0.2707120453E-04    0.3820713807E-01    0.4008970330E+00
    0.4100000000E+07    0.6419170738E+00    0.2827646490E+00    0.2635826089E-04    0.3821047037E-01    0.4009758336E+00
    0.4300000000E+07    0.6419150032E+00    0.2826921717E+00    0.2569673616E-04    0.3821364133E-01    0.4010508357E+00
    0.4500000000E+07    0.6419129832E+00    0.2826229684E+00    0.2508077864E-04    0.3821666586E-01    0.4011223883E+00
    0.4700000000E+07    0.6419110129E+00    0.2825567561E+00    0.2450542555E-04    0.3821955689E-01    0.4011907941E+00
    0.4900000000E+07    0.6419090914E+00    0.2824932870E+00    0.2396643693E-04    0.3822232573E-01    0.4012563179E+00
    0.1000000000E+07    0.6419415951E+00    0.2848935987E+00    0.5595899583E-04    0.3811452165E-01    0.3987250325E+00
    0.3000000000E+07    0.6419293288E+00    0.2832393418E+00    0.3113960217E-04    0.3818960366E-01    0.4004827711E+00
    0.5000000000E+07    0.6419081485E+00    0.2824625119E+00    0.2370941944E-04    0.3822366747E-01    0.4012880729E+00
    0.7000000000E+07    0.6418914813E+00    0.2819494897E+00    0.1981213885E-04    0.3824596625E-01    0.4018160140E+00
    0.9000000000E+07    0.6418780570E+00    0.2815658443E+00    0.1732516579E-04    0.3826257511E-01    0.4022093330E+00
    0.1100000000E+08    0.6418668754E+00    0.2812593001E+00    0.1556542576E-04    0.3827581670E-01    0.4025228700E+00
    0.1300000000E+08    0.6418573110E+00    0.2810039997E+00    0.1423757974E-04    0.3828682967E-01    0.4027835704E+00
    0.1500000000E+08    0.6418489611E+00    0.2807852438E+00    0.1319056250E-04    0.3829625774E-01    0.4030066849E+00
    0.1700000000E+08    0.6418415548E+00    0.2805938715E+00    0.1233809862E-04    0.3830450054E-01    0.4032016885E+00
    0.1900000000E+08    0.6418349017E+00    0.2804237858E+00    0.1162689611E-04    0.3831182332E-01    0.4033748724E+00
    0.2100000000E+08    0.6418288633E+00    0.2802707233E+00    0.1102204247E-04    0.3831841117E-01    0.4035306274E+00
    0.2300000000E+08    0.6418233361E+00    0.2801315857E+00    0.1049959305E-04    0.3832439838E-01    0.4036721397E+00
    0.2500000000E+08    0.6418182404E+00    0.2800040503E+00    0.1004251027E-04    0.3832988547E-01    0.4038017947E+00
    0.2700000000E+08    0.6418135139E+00    0.2798863310E+00    0.9638299807E-05    0.3833494968E-01    0.4039214250E+00
