  Pressure (Pa) 22mC5-400 (mol/kg) 3mC6-400 (mol/kg) 33mC5-400 (mol/kg) 23mC5-400 (mol/kg) C7-400 (mol/kg)
    0.1000000000E+01    0.4759812670E-02    0.1574595617E-02    0.6433139687E-04    0.1857273481E-03    0.8517201492E-02
    0.3000000000E+01    0.1407291473E-01    0.4587484462E-02    0.1866292764E-03    0.5491307677E-03    0.2481779450E-01
    0.5000000000E+01    0.2312051519E-01    0.7431358345E-02    0.3010119995E-03    0.9021835369E-03    0.4020835384E-01
    0.7000000000E+01    0.3191386350E-01    0.1012002839E-01    0.4081032985E-03    0.1245324088E-02    0.5476312194E-01
    0.9000000000E+01    0.4046358160E-01    0.1266584143E-01    0.5084642519E-03    0.1578966400E-02    0.6854847627E-01
    0.1100000000E+02    0.4877970698E-01    0.1507986900E-01    0.6026010693E-03    0.1903501677E-02    0.8162394409E-01
    0.1300000000E+02    0.5687173239E-01    0.1737206785E-01    0.6909717253E-03    0.2219299895E-02    0.9404306399E-01
    0.1500000000E+02    0.6474864223E-01    0.1955141674E-01    0.7739916391E-03    0.2526711222E-02    0.1058541206E+00
    0.1700000000E+02    0.7241894616E-01    0.2162603366E-01    0.8520385578E-03    0.2826067326E-02    0.1171007739E+00
    0.1900000000E+02    0.7989071006E-01    0.2360327652E-01    0.9254567715E-03    0.3117682578E-02    0.1278225997E+00
    0.2100000000E+02    0.8717158451E-01    0.2548983006E-01    0.9945607664E-03    0.3401855168E-02    0.1380555567E+00
    0.2300000000E+02    0.9426883126E-01    0.2729178110E-01    0.1059638402E-02    0.3678868134E-02    0.1478323904E+00
    0.2500000000E+02    0.1011893476E+00    0.2901468391E-01    0.1120953685E-02    0.3948990307E-02    0.1571829844E+00
    0.2700000000E+02    0.1079396888E+00    0.3066361720E-01    0.1178749197E-02    0.4212477197E-02    0.1661346659E+00
    0.2900000000E+02    0.1145260895E+00    0.3224323395E-01    0.1233248227E-02    0.4469571806E-02    0.1747124742E+00
    0.3100000000E+02    0.1209544824E+00    0.3375780508E-01    0.1284656655E-02    0.4720505384E-02    0.1829393946E+00
    0.3300000000E+02    0.1272305168E+00    0.3521125786E-01    0.1333164608E-02    0.4965498130E-02    0.1908365652E+00
    0.3500000000E+02    0.1333595754E+00    0.3660720982E-01    0.1378947938E-02    0.5204759850E-02    0.1984234586E+00
    0.3700000000E+02    0.1393467895E+00    0.3794899864E-01    0.1422169526E-02    0.5438490554E-02    0.2057180430E+00
    0.3900000000E+02    0.1451970536E+00    0.3923970873E-01    0.1462980449E-02    0.5666881032E-02    0.2127369246E+00
    0.4100000000E+02    0.1509150392E+00    0.4048219480E-01    0.1501521018E-02    0.5890113371E-02    0.2194954745E+00
    0.4300000000E+02    0.1565052070E+00    0.4167910281E-01    0.1537921713E-02    0.6108361449E-02    0.2260079411E+00
    0.4500000000E+02    0.1619718189E+00    0.4283288876E-01    0.1572304017E-02    0.6321791396E-02    0.2322875511E+00
    0.4700000000E+02    0.1673189488E+00    0.4394583538E-01    0.1604781163E-02    0.6530562015E-02    0.2383465994E+00
    0.4900000000E+02    0.1725504930E+00    0.4502006718E-01    0.1635458815E-02    0.6734825187E-02    0.2441965299E+00
    0.1000000000E+02    0.4465023776E-01    0.1388868168E-01    0.5562809945E-03    0.1742348814E-02    0.7517146864E-01
    0.3000000000E+02    0.1177596774E+00    0.3300839712E-01    0.1259326532E-02    0.4595794710E-02    0.1788684332E+00
    0.5000000000E+02    0.1751240918E+00    0.4554328900E-01    0.1650153933E-02    0.6835312142E-02    0.2470464373E+00
    0.7000000000E+02    0.2213539489E+00    0.5439074845E-01    0.1870385501E-02    0.8640614354E-02    0.2953049657E+00
    0.9000000000E+02    0.2594164857E+00    0.6096621654E-01    0.1990993821E-02    0.1012737268E-01    0.3312723597E+00
    0.1100000000E+03    0.2913083555E+00    0.6604314551E-01    0.2050918752E-02    0.1137342920E-01    0.3591211729E+00
    0.1300000000E+03    0.3184228588E+00    0.7007985802E-01    0.2072881413E-02    0.1243310827E-01    0.3813263522E+00
    0.1500000000E+03    0.3417621271E+00    0.7336517678E-01    0.2070737531E-02    0.1334548614E-01    0.3994490634E+00
    0.1700000000E+03    0.3620656016E+00    0.7609013420E-01    0.2053217505E-02    0.1413939845E-01    0.4145228892E+00
    0.1900000000E+03    0.3798909587E+00    0.7838612011E-01    0.2025959373E-02    0.1483659458E-01    0.4272594007E+00
    0.2100000000E+03    0.3956668272E+00    0.8034646626E-01    0.1992671808E-02    0.1545379250E-01    0.4381645418E+00
    0.2300000000E+03    0.4097281434E+00    0.8203929108E-01    0.1955826959E-02    0.1600405702E-01    0.4476079300E+00
    0.2500000000E+03    0.4223404729E+00    0.8351547187E-01    0.1917087008E-02    0.1649774791E-01    0.4558658938E+00
    0.2700000000E+03    0.4337171193E+00    0.8481377265E-01    0.1877574047E-02    0.1694318694E-01    0.4631491708E+00
    0.2900000000E+03    0.4440314007E+00    0.8596424486E-01    0.1838044769E-02    0.1734713649E-01    0.4696212886E+00
    0.3100000000E+03    0.4534256161E+00    0.8699054361E-01    0.1799005762E-02    0.1771514913E-01    0.4754110899E+00
    0.3300000000E+03    0.4620176991E+00    0.8791154247E-01    0.1760790869E-02    0.1805182711E-01    0.4806214707E+00
    0.3500000000E+03    0.4699062269E+00    0.8874248266E-01    0.1723613842E-02    0.1836101765E-01    0.4853356026E+00
    0.3700000000E+03    0.4771742408E+00    0.8949580620E-01    0.1687604612E-02    0.1864596192E-01    0.4896214453E+00
    0.3900000000E+03    0.4838921950E+00    0.9018176975E-01    0.1652834537E-02    0.1890941005E-01    0.4935350746E+00
    0.4100000000E+03    0.4901202573E+00    0.9080890387E-01    0.1619334118E-02    0.1915371084E-01    0.4971231732E+00
    0.4300000000E+03    0.4959101224E+00    0.9138436110E-01    0.1587105536E-02    0.1938088254E-01    0.5004249190E+00
    0.4500000000E+03    0.5013064542E+00    0.9191418315E-01    0.1556131554E-02    0.1959266902E-01    0.5034734368E+00
    0.4700000000E+03    0.5063480433E+00    0.9240350828E-01    0.1526381878E-02    0.1979058497E-01    0.5062969240E+00
    0.4900000000E+03    0.5110687420E+00    0.9285673386E-01    0.1497817696E-02    0.1997595238E-01    0.5089195350E+00
    0.1000000000E+03    0.2760355490E+00    0.6365818674E-01    0.2026852379E-02    0.1077665979E-01    0.3460290602E+00
    0.3000000000E+03    0.4488356402E+00    0.8649163956E-01    0.1818439781E-02    0.1753532756E-01    0.4725945225E+00
    0.5000000000E+03    0.5133181766E+00    0.9307101315E-01    0.1483966531E-02    0.2006429824E-01    0.5101621299E+00
    0.7000000000E+03    0.5470365736E+00    0.9615160019E-01    0.1257812582E-02    0.2139024212E-01    0.5282695992E+00
    0.9000000000E+03    0.5677607733E+00    0.9791790749E-01    0.1101225180E-02    0.2220735527E-01    0.5389588008E+00
    0.1100000000E+04    0.5817854089E+00    0.9905221976E-01    0.9869894167E-03    0.2276177238E-01    0.5460288494E+00
    0.1300000000E+04    0.5919054767E+00    0.9983564606E-01    0.8998270007E-03    0.2316288390E-01    0.5510603812E+00
    0.1500000000E+04    0.5995514636E+00    0.1004048576E+00    0.8309074153E-03    0.2346672652E-01    0.5548293219E+00
    0.1700000000E+04    0.6055313397E+00    0.1008341393E+00    0.7748501769E-03    0.2370497924E-01    0.5577614729E+00
    0.1900000000E+04    0.6103359038E+00    0.1011672583E+00    0.7282087415E-03    0.2389690243E-01    0.5601101228E+00
    0.2100000000E+04    0.6142804779E+00    0.1014316301E+00    0.6886776219E-03    0.2405488118E-01    0.5620354571E+00
    0.2300000000E+04    0.6175768802E+00    0.1016452746E+00    0.6546567613E-03    0.2418724256E-01    0.5636437801E+00
    0.2500000000E+04    0.6203726647E+00    0.1018205056E+00    0.6250003808E-03    0.2429979234E-01    0.5650084398E+00
    0.2700000000E+04    0.6227737695E+00    0.1019660126E+00    0.5988657549E-03    0.2439670253E-01    0.5661816973E+00
    0.2900000000E+04    0.6248582196E+00    0.1020880948E+00    0.5756186063E-03    0.2448104855E-01    0.5672018080E+00
    0.3100000000E+04    0.6266847502E+00    0.1021914246E+00    0.5547718998E-03    0.2455514752E-01    0.5680974265E+00
    0.3300000000E+04    0.6282984196E+00    0.1022795370E+00    0.5359450591E-03    0.2462077860E-01    0.5688904458E+00
    0.3500000000E+04    0.6297343710E+00    0.1023551529E+00    0.5188360768E-03    0.2467933060E-01    0.5695978846E+00
    0.3700000000E+04    0.6310204164E+00    0.1024203987E+00    0.5032019949E-03    0.2473190363E-01    0.5702331750E+00
    0.3900000000E+04    0.6321788539E+00    0.1024769585E+00    0.4888449605E-03    0.2477938041E-01    0.5708070622E+00
    0.4100000000E+04    0.6332277689E+00    0.1025261822E+00    0.4756020797E-03    0.2482247755E-01    0.5713282458E+00
    0.4300000000E+04    0.6341819844E+00    0.1025691634E+00    0.4633379104E-03    0.2486178290E-01    0.5718038459E+00
    0.4500000000E+04    0.6350537642E+00    0.1026067969E+00    0.4519388251E-03    0.2489778323E-01    0.5722397469E+00
    0.4700000000E+04    0.6358533429E+00    0.1026398211E+00    0.4413087185E-03    0.2493088512E-01    0.5726408548E+00
    0.4900000000E+04    0.6365893284E+00    0.1026688503E+00    0.4313656996E-03    0.2496143084E-01    0.5730112937E+00
    0.1000000000E+04    0.5753898305E+00    0.9854151359E-01    0.1039969658E-02    0.2250876498E-01    0.5428197541E+00
    0.3000000000E+04    0.6258006393E+00    0.1021418606E+00    0.5649211025E-03    0.2451925712E-01    0.5676636777E+00
    0.5000000000E+04    0.6369357969E+00    0.1026820310E+00    0.4266294973E-03    0.2497583758E-01    0.5731861247E+00
    0.7000000000E+04    0.6418235729E+00    0.1028257205E+00    0.3552023650E-03    0.2518147236E-01    0.5756936185E+00
    0.9000000000E+04    0.6445687076E+00    0.1028557534E+00    0.3099750284E-03    0.2529986274E-01    0.5771540473E+00
    0.1100000000E+05    0.6463262882E+00    0.1028429286E+00    0.2781174646E-03    0.2537751244E-01    0.5781234611E+00
    0.1300000000E+05    0.6475476821E+00    0.1028118518E+00    0.2541487987E-03    0.2543275792E-01    0.5788212723E+00
    0.1500000000E+05    0.6484455921E+00    0.1027727458E+00    0.2352875025E-03    0.2547431619E-01    0.5793520877E+00
    0.1700000000E+05    0.6491333752E+00    0.1027303454E+00    0.2199536356E-03    0.2550687308E-01    0.5797723531E+00
    0.1900000000E+05    0.6496769754E+00    0.1026869967E+00    0.2071751346E-03    0.2553317775E-01    0.5801153261E+00
    0.2100000000E+05    0.6501173636E+00    0.1026439054E+00    0.1963170856E-03    0.2555495265E-01    0.5804019370E+00
    0.2300000000E+05    0.6504813359E+00    0.1026016968E+00    0.1869450457E-03    0.2557333373E-01    0.5806460518E+00
    0.2500000000E+05    0.6507871546E+00    0.1025606860E+00    0.1787504635E-03    0.2558910154E-01    0.5808572423E+00
    0.2700000000E+05    0.6510476950E+00    0.1025210171E+00    0.1715074061E-03    0.2560281090E-01    0.5810423428E+00
    0.2900000000E+05    0.6512722942E+00    0.1024827382E+00    0.1650461670E-03    0.2561486743E-01    0.5812063724E+00
    0.3100000000E+05    0.6514678890E+00    0.1024458432E+00    0.1592364893E-03    0.2562557491E-01    0.5813531063E+00
    0.3300000000E+05    0.6516397399E+00    0.1024102955E+00    0.1539765234E-03    0.2563516552E-01    0.5814854429E+00
    0.3500000000E+05    0.6517919085E+00    0.1023760427E+00    0.1491853386E-03    0.2564381998E-01    0.5816056476E+00
    0.3700000000E+05    0.6519275809E+00    0.1023430242E+00    0.1447977122E-03    0.2565168115E-01    0.5817155186E+00
    0.3900000000E+05    0.6520492912E+00    0.1023111767E+00    0.1407604211E-03    0.2565886354E-01    0.5818165034E+00
    0.4100000000E+05    0.6521590802E+00    0.1022804370E+00    0.1370295484E-03    0.2566546009E-01    0.5819097814E+00
    0.4300000000E+05    0.6522586098E+00    0.1022507434E+00    0.1335684944E-03    0.2567154706E-01    0.5819963242E+00
    0.4500000000E+05    0.6523492470E+00    0.1022220372E+00    0.1303464824E-03    0.2567718765E-01    0.5820769402E+00
    0.4700000000E+05    0.6524321266E+00    0.1021942625E+00    0.1273374211E-03    0.2568243474E-01    0.5821523082E+00
    0.4900000000E+05    0.6525081984E+00    0.1021673672E+00    0.1245190271E-03    0.2568733290E-01    0.5822230025E+00
    0.1000000000E+05    0.6455343774E+00    0.1028526424E+00    0.2928097690E-03    0.2534229820E-01    0.5776824087E+00
    0.3000000000E+05    0.6513733557E+00    0.1024641195E+00    0.1620668130E-03    0.2562037389E-01    0.5812817029E+00
    0.5000000000E+05    0.6525439366E+00    0.1021542338E+00    0.1231752363E-03    0.2568966320E-01    0.5822567529E+00
    0.7000000000E+05    0.6530427800E+00    0.1019275234E+00    0.1028117978E-03    0.2572473216E-01    0.5827746528E+00
    0.9000000000E+05    0.6533179189E+00    0.1017501589E+00    0.8983055625E-04    0.2574714289E-01    0.5831165347E+00
    0.1100000000E+06    0.6534916247E+00    0.1016047749E+00    0.8065200896E-04    0.2576325333E-01    0.5833681332E+00
    0.1300000000E+06    0.6536108820E+00    0.1014816898E+00    0.7373019919E-04    0.2577568195E-01    0.5835657028E+00
    0.1500000000E+06    0.6536975832E+00    0.1013750109E+00    0.6827495953E-04    0.2578572942E-01    0.5837276474E+00
    0.1700000000E+06    0.6537632962E+00    0.1012808983E+00    0.6383526714E-04    0.2579412538E-01    0.5838644829E+00
    0.1900000000E+06    0.6538147042E+00    0.1011967146E+00    0.6013265346E-04    0.2580131584E-01    0.5839827392E+00
    0.2100000000E+06    0.6538559349E+00    0.1011205717E+00    0.5698475888E-04    0.2580759141E-01    0.5840867300E+00
    0.2300000000E+06    0.6538896739E+00    0.1010510722E+00    0.5426655420E-04    0.2581315105E-01    0.5841794443E+00
    0.2500000000E+06    0.6539177430E+00    0.1009871531E+00    0.5188910266E-04    0.2581813644E-01    0.5842630336E+00
    0.2700000000E+06    0.6539414206E+00    0.1009279875E+00    0.4978720091E-04    0.2582265175E-01    0.5843390953E+00
    0.2900000000E+06    0.6539616305E+00    0.1008729191E+00    0.4791182335E-04    0.2582677570E-01    0.5844088461E+00
    0.3100000000E+06    0.6539790560E+00    0.1008214188E+00    0.4622531006E-04    0.2583056906E-01    0.5844732334E+00
    0.3300000000E+06    0.6539942133E+00    0.1007730534E+00    0.4469819433E-04    0.2583407970E-01    0.5845330084E+00
    0.3500000000E+06    0.6540074998E+00    0.1007274642E+00    0.4330704841E-04    0.2583734596E-01    0.5845887765E+00
    0.3700000000E+06    0.6540192258E+00    0.1006843506E+00    0.4203298271E-04    0.2584039898E-01    0.5846410325E+00
    0.3900000000E+06    0.6540296374E+00    0.1006434583E+00    0.4086057663E-04    0.2584326438E-01    0.5846901858E+00
    0.4100000000E+06    0.6540389322E+00    0.1006045701E+00    0.3977710167E-04    0.2584596349E-01    0.5847365787E+00
    0.4300000000E+06    0.6540472705E+00    0.1005674992E+00    0.3877194681E-04    0.2584851425E-01    0.5847805004E+00
    0.4500000000E+06    0.6540547836E+00    0.1005320839E+00    0.3783618700E-04    0.2585093186E-01    0.5848221973E+00
    0.4700000000E+06    0.6540615804E+00    0.1004981830E+00    0.3696225423E-04    0.2585322934E-01    0.5848618809E+00
    0.4900000000E+06    0.6540677515E+00    0.1004656725E+00    0.3614368380E-04    0.2585541790E-01    0.5848997342E+00
    0.1000000000E+06    0.6534136321E+00    0.1016741934E+00    0.8488829567E-04    0.2575577648E-01    0.5832507415E+00
    0.3000000000E+06    0.6539706558E+00    0.1008467520E+00    0.4704696323E-04    0.2582871045E-01    0.5844416593E+00
    0.5000000000E+06    0.6540706267E+00    0.1004499040E+00    0.3575339126E-04    0.2585647443E-01    0.5849180252E+00
    0.7000000000E+06    0.6541086767E+00    0.1001866764E+00    0.2983892938E-04    0.2587369337E-01    0.5852175073E+00
    0.9000000000E+06    0.6541271485E+00    0.9998951348E-01    0.2606881572E-04    0.2588617390E-01    0.5854358664E+00
    0.1100000000E+07    0.6541371996E+00    0.9983186659E-01    0.2340337316E-04    0.2589596064E-01    0.5856076169E+00
    0.1300000000E+07    0.6541429740E+00    0.9970053617E-01    0.2139348113E-04    0.2590400974E-01    0.5857491113E+00
    0.1500000000E+07    0.6541463373E+00    0.9958799609E-01    0.1980957764E-04    0.2591084508E-01    0.5858693842E+00
    0.1700000000E+07    0.6541482411E+00    0.9948954679E-01    0.1852063357E-04    0.2591678473E-01    0.5859739522E+00
    0.1900000000E+07    0.6541492151E+00    0.9940205642E-01    0.1744575358E-04    0.2592203621E-01    0.5860664299E+00
    0.2100000000E+07    0.6541495744E+00    0.9932333299E-01    0.1653196514E-04    0.2592674244E-01    0.5861493142E+00
    0.2300000000E+07    0.6541495160E+00    0.9925178237E-01    0.1574295153E-04    0.2593100601E-01    0.5862244016E+00
    0.2500000000E+07    0.6541491679E+00    0.9918620893E-01    0.1505288114E-04    0.2593490305E-01    0.5862930278E+00
    0.2700000000E+07    0.6541486164E+00    0.9912569292E-01    0.1444281682E-04    0.2593849160E-01    0.5863562127E+00
    0.2900000000E+07    0.6541479207E+00    0.9906951166E-01    0.1389852069E-04    0.2594181694E-01    0.5864147528E+00
    0.3100000000E+07    0.6541471227E+00    0.9901708697E-01    0.1340905623E-04    0.2594491504E-01    0.5864692817E+00
    0.3300000000E+07    0.6541462524E+00    0.9896794907E-01    0.1296586663E-04    0.2594781500E-01    0.5865203118E+00
    0.3500000000E+07    0.6541453318E+00    0.9892171108E-01    0.1256214905E-04    0.2595054064E-01    0.5865682635E+00
    0.3700000000E+07    0.6541443769E+00    0.9887805058E-01    0.1219241862E-04    0.2595311174E-01    0.5866134857E+00
    0.3900000000E+07    0.6541433997E+00    0.9883669608E-01    0.1185219794E-04    0.2595554489E-01    0.5866562712E+00
    0.4100000000E+07    0.6541424093E+00    0.9879741680E-01    0.1153779137E-04    0.2595785415E-01    0.5866968682E+00
    0.4300000000E+07    0.6541414125E+00    0.9876001492E-01    0.1124611820E-04    0.2596005152E-01    0.5867354889E+00
    0.4500000000E+07    0.6541404145E+00    0.9872431963E-01    0.1097458727E-04    0.2596214737E-01    0.5867723161E+00
    0.4700000000E+07    0.6541394191E+00    0.9869018238E-01    0.1072100149E-04    0.2596415065E-01    0.5868075083E+00
    0.4900000000E+07    0.6541384294E+00    0.9865747319E-01    0.1048348410E-04    0.2596606921E-01    0.5868412041E+00
    0.1000000000E+07    0.6541328868E+00    0.9990676080E-01    0.2463355406E-04    0.2589132984E-01    0.5855263030E+00
    0.3000000000E+07    0.6541475324E+00    0.9904286130E-01    0.1364751661E-04    0.2594339244E-01    0.5864424842E+00
    0.5000000000E+07    0.6541379374E+00    0.9864161784E-01    0.1037023775E-04    0.2596699890E-01    0.5868575293E+00
    0.7000000000E+07    0.6541287087E+00    0.9837774549E-01    0.8654222860E-05    0.2598244802E-01    0.5871285110E+00
    0.9000000000E+07    0.6541207635E+00    0.9818091937E-01    0.7560475570E-05    0.2599395307E-01    0.5873299033E+00
    0.1100000000E+08    0.6541139176E+00    0.9802393277E-01    0.6787255275E-05    0.2600312446E-01    0.5874901714E+00
    0.1300000000E+08    0.6541079393E+00    0.9789337027E-01    0.6204231890E-05    0.2601075151E-01    0.5876232583E+00
    0.1500000000E+08    0.6541026464E+00    0.9778162245E-01    0.5744794671E-05    0.2601728041E-01    0.5877370384E+00
    0.1700000000E+08    0.6540979034E+00    0.9768395497E-01    0.5370926084E-05    0.2602298814E-01    0.5878363961E+00
    0.1900000000E+08    0.6540936095E+00    0.9759722126E-01    0.5059155883E-05    0.2602805850E-01    0.5879245702E+00
    0.2100000000E+08    0.6540896885E+00    0.9751922357E-01    0.4794115741E-05    0.2603261974E-01    0.5880038186E+00
    0.2300000000E+08    0.6540860815E+00    0.9744836624E-01    0.4565269840E-05    0.2603676493E-01    0.5880757785E+00
    0.2500000000E+08    0.6540827424E+00    0.9738345411E-01    0.4365124422E-05    0.2604056370E-01    0.5881416745E+00
    0.2700000000E+08    0.6540796345E+00    0.9732356881E-01    0.4188185943E-05    0.2604406958E-01    0.5882024466E+00
