  Pressure (Pa) 22mC5-400 (mol/kg) 3mC6-400 (mol/kg) 33mC5-400 (mol/kg) 23mC5-400 (mol/kg) C7-400 (mol/kg)
    0.1000000000E+01    0.4758860910E-02    0.5256362912E-03    0.1288001030E-03    0.2785353590E-03    0.8529652313E-02
    0.3000000000E+01    0.1406462149E-01    0.1535726953E-02    0.3744192419E-03    0.8232111210E-03    0.2492381708E-01
    0.5000000000E+01    0.2309820145E-01    0.2494399210E-02    0.6050571714E-03    0.1351970273E-02    0.4048742021E-01
    0.7000000000E+01    0.3187148264E-01    0.3405478525E-02    0.8218081843E-03    0.1865507439E-02    0.5528215420E-01
    0.9000000000E+01    0.4039566344E-01    0.4272420132E-02    0.1025666248E-02    0.2364477293E-02    0.6936374584E-01
    0.1100000000E+02    0.4868130716E-01    0.5098352760E-02    0.1217536303E-02    0.2849497386E-02    0.8278266038E-01
    0.1300000000E+02    0.5673838643E-01    0.5886116306E-02    0.1398244046E-02    0.3321150743E-02    0.9558470835E-01
    0.1500000000E+02    0.6457632385E-01    0.6638294406E-02    0.1568544438E-02    0.3779988238E-02    0.1078115702E+00
    0.1700000000E+02    0.7220402943E-01    0.7357242699E-02    0.1729129119E-02    0.4226530782E-02    0.1195012515E+00
    0.1900000000E+02    0.7962993494E-01    0.8045113433E-02    0.1880632908E-02    0.4661271330E-02    0.1306884794E+00
    0.2100000000E+02    0.8686202558E-01    0.8703876948E-02    0.2023639498E-02    0.5084676733E-02    0.1414050488E+00
    0.2300000000E+02    0.9390786914E-01    0.9335340492E-02    0.2158686484E-02    0.5497189443E-02    0.1516801252E+00
    0.2500000000E+02    0.1007746429E+00    0.9941164760E-02    0.2286269790E-02    0.5899229087E-02    0.1615405115E+00
    0.2700000000E+02    0.1074691587E+00    0.1052287844E-01    0.2406847603E-02    0.6291193919E-02    0.1710108823E+00
    0.2900000000E+02    0.1139978855E+00    0.1108189109E-01    0.2520843858E-02    0.6673462167E-02    0.1801139909E+00
    0.3100000000E+02    0.1203669711E+00    0.1161950450E-01    0.2628651343E-02    0.7046393271E-02    0.1888708533E+00
    0.3300000000E+02    0.1265822617E+00    0.1213692280E-01    0.2730634471E-02    0.7410329042E-02    0.1973009106E+00
    0.3500000000E+02    0.1326493200E+00    0.1263526147E-01    0.2827131757E-02    0.7765594728E-02    0.2054221737E+00
    0.3700000000E+02    0.1385734425E+00    0.1311555533E-01    0.2918458039E-02    0.8112500006E-02    0.2132513530E+00
    0.3900000000E+02    0.1443596751E+00    0.1357876571E-01    0.3004906478E-02    0.8451339903E-02    0.2208039733E+00
    0.4100000000E+02    0.1500128277E+00    0.1402578683E-01    0.3086750349E-02    0.8782395653E-02    0.2280944773E+00
    0.4300000000E+02    0.1555374879E+00    0.1445745161E-01    0.3164244665E-02    0.9105935498E-02    0.2351363183E+00
    0.4500000000E+02    0.1609380337E+00    0.1487453678E-01    0.3237627639E-02    0.9422215425E-02    0.2419420434E+00
    0.4700000000E+02    0.1662186455E+00    0.1527776759E-01    0.3307122013E-02    0.9731479863E-02    0.2485233689E+00
    0.4900000000E+02    0.1713833170E+00    0.1566782195E-01    0.3372936254E-02    0.1003396233E-01    0.2548912477E+00
    0.1000000000E+02    0.4456766579E-01    0.4690328710E-02    0.1123046419E-02    0.2608693840E-02    0.7615307201E-01
    0.3000000000E+02    0.1172020112E+00    0.1135329526E-01    0.2575497786E-02    0.6861073098E-02    0.1845344527E+00
    0.5000000000E+02    0.1739233746E+00    0.1585810782E-01    0.3404524841E-02    0.1018273046E-01    0.2579983737E+00
    0.7000000000E+02    0.2194816238E+00    0.1910634748E-01    0.3884471992E-02    0.1285138917E-01    0.3111051178E+00
    0.9000000000E+02    0.2569007867E+00    0.2155882673E-01    0.4157146632E-02    0.1504387895E-01    0.3513033406E+00
    0.1100000000E+03    0.2881985549E+00    0.2347560211E-01    0.4301844572E-02    0.1687819458E-01    0.3828003612E+00
    0.1300000000E+03    0.3147735167E+00    0.2501456008E-01    0.4365437428E-02    0.1843613285E-01    0.4081527810E+00
    0.1500000000E+03    0.3376262712E+00    0.2627710406E-01    0.4376792741E-02    0.1977621924E-01    0.4290040191E+00
    0.1700000000E+03    0.3574920027E+00    0.2733133855E-01    0.4354255067E-02    0.2094145881E-01    0.4464587826E+00
    0.1900000000E+03    0.3749232962E+00    0.2822470022E-01    0.4309767619E-02    0.2196417821E-01    0.4612871928E+00
    0.2100000000E+03    0.3903437098E+00    0.2899124491E-01    0.4251252879E-02    0.2286915814E-01    0.4740426107E+00
    0.2300000000E+03    0.4040834920E+00    0.2965605460E-01    0.4184041090E-02    0.2367572182E-01    0.4851329326E+00
    0.2500000000E+03    0.4164040280E+00    0.3023801034E-01    0.4111754791E-02    0.2439916457E-01    0.4948654733E+00
    0.2700000000E+03    0.4275149635E+00    0.3075159678E-01    0.4036871209E-02    0.2505175521E-01    0.5034761901E+00
    0.2900000000E+03    0.4375864478E+00    0.3120811119E-01    0.3961087905E-02    0.2564345202E-01    0.5111492741E+00
    0.3100000000E+03    0.4467580471E+00    0.3161649438E-01    0.3885565143E-02    0.2618242411E-01    0.5180306191E+00
    0.3300000000E+03    0.4551453422E+00    0.3198391448E-01    0.3811089216E-02    0.2667543727E-01    0.5242372920E+00
    0.3500000000E+03    0.4628448845E+00    0.3231618545E-01    0.3738184115E-02    0.2712814385E-01    0.5298643236E+00
    0.3700000000E+03    0.4699379679E+00    0.3261807232E-01    0.3667188822E-02    0.2754530343E-01    0.5349896652E+00
    0.3900000000E+03    0.4764935358E+00    0.3289351744E-01    0.3598311403E-02    0.2793095285E-01    0.5396778645E+00
    0.4100000000E+03    0.4825704465E+00    0.3314581065E-01    0.3531667203E-02    0.2828853876E-01    0.5439828302E+00
    0.4300000000E+03    0.4882192562E+00    0.3337771879E-01    0.3467306031E-02    0.2862102188E-01    0.5479499399E+00
    0.4500000000E+03    0.4934836354E+00    0.3359158569E-01    0.3405231641E-02    0.2893095995E-01    0.5516176646E+00
    0.4700000000E+03    0.4984015051E+00    0.3378940989E-01    0.3345415747E-02    0.2922057415E-01    0.5550188364E+00
    0.4900000000E+03    0.5030059540E+00    0.3397290602E-01    0.3287808156E-02    0.2949180279E-01    0.5581816461E+00
    0.1000000000E+03    0.2732160784E+00    0.2257260445E-01    0.4242019204E-02    0.1600003230E-01    0.3679521550E+00
    0.3000000000E+03    0.4422770119E+00    0.3141783519E-01    0.3923237558E-02    0.2591907669E-01    0.5146810119E+00
    0.5000000000E+03    0.5051998514E+00    0.3405975140E-01    0.3259812648E-02    0.2962106183E-01    0.5596814042E+00
    0.7000000000E+03    0.5380724119E+00    0.3531519536E-01    0.2797257638E-02    0.3156029377E-01    0.5816250291E+00
    0.9000000000E+03    0.5582599425E+00    0.3604163434E-01    0.2470879466E-02    0.3275439038E-01    0.5946552429E+00
    0.1100000000E+04    0.5719107210E+00    0.3651127547E-01    0.2229381044E-02    0.3356398748E-01    0.6033024835E+00
    0.1300000000E+04    0.5817539761E+00    0.3683738546E-01    0.2043025711E-02    0.3414931965E-01    0.6094683804E+00
    0.1500000000E+04    0.5891860317E+00    0.3707541748E-01    0.1894301705E-02    0.3459244047E-01    0.6140919653E+00
    0.1700000000E+04    0.5949952304E+00    0.3725567260E-01    0.1772390915E-02    0.3493971799E-01    0.6176907481E+00
    0.1900000000E+04    0.5996602345E+00    0.3739608039E-01    0.1670285750E-02    0.3521933104E-01    0.6205735641E+00
    0.2100000000E+04    0.6034884306E+00    0.3750791204E-01    0.1583253900E-02    0.3544939165E-01    0.6229362189E+00
    0.2300000000E+04    0.6066862158E+00    0.3759859888E-01    0.1507983728E-02    0.3564207217E-01    0.6249089164E+00
    0.2500000000E+04    0.6093973070E+00    0.3767323300E-01    0.1442086350E-02    0.3580585590E-01    0.6265816402E+00
    0.2700000000E+04    0.6117248463E+00    0.3773541637E-01    0.1383793144E-02    0.3594683654E-01    0.6280185894E+00
    0.2900000000E+04    0.6137447706E+00    0.3778776590E-01    0.1331765034E-02    0.3606950447E-01    0.6292668093E+00
    0.3100000000E+04    0.6155142226E+00    0.3783222666E-01    0.1284968245E-02    0.3617724171E-01    0.6303615702E+00
    0.3300000000E+04    0.6170770248E+00    0.3787027297E-01    0.1242590984E-02    0.3627264422E-01    0.6313298394E+00
    0.3500000000E+04    0.6184673451E+00    0.3790304166E-01    0.1203986141E-02    0.3635773784E-01    0.6321925933E+00
    0.3700000000E+04    0.6197122161E+00    0.3793142262E-01    0.1168630964E-02    0.3643412677E-01    0.6329663957E+00
    0.3900000000E+04    0.6208333046E+00    0.3795612175E-01    0.1136098118E-02    0.3650309793E-01    0.6336645026E+00
    0.4100000000E+04    0.6218481796E+00    0.3797770572E-01    0.1106034522E-02    0.3656569577E-01    0.6342976496E+00
    0.4300000000E+04    0.6227712369E+00    0.3799663432E-01    0.1078145632E-02    0.3662277685E-01    0.6348746257E+00
    0.4500000000E+04    0.6236143845E+00    0.3801328421E-01    0.1052183585E-02    0.3667505034E-01    0.6354026953E+00
    0.4700000000E+04    0.6243875575E+00    0.3802796667E-01    0.1027938139E-02    0.3672310841E-01    0.6358879167E+00
    0.4900000000E+04    0.6250991102E+00    0.3804094102E-01    0.1005229670E-02    0.3676744949E-01    0.6363353821E+00
    0.1000000000E+04    0.5656868936E+00    0.3629948777E-01    0.2341756369E-02    0.3319460052E-01    0.5993748629E+00
    0.3000000000E+04    0.6146578043E+00    0.3781088102E-01    0.1307767892E-02    0.3612506169E-01    0.6298315236E+00
    0.5000000000E+04    0.6254340333E+00    0.3804685704E-01    0.9944026672E-03    0.3678836075E-01    0.6365463302E+00
    0.7000000000E+04    0.6301555945E+00    0.3811354535E-01    0.8303468705E-03    0.3708669202E-01    0.6395499140E+00
    0.9000000000E+04    0.6328040585E+00    0.3813078460E-01    0.7257599508E-03    0.3725831834E-01    0.6412713143E+00
    0.1100000000E+05    0.6344980620E+00    0.3812896444E-01    0.6517913831E-03    0.3737082735E-01    0.6423955492E+00
    0.1300000000E+05    0.6356742704E+00    0.3811877848E-01    0.5959909778E-03    0.3745084519E-01    0.6431919462E+00
    0.1500000000E+05    0.6365382984E+00    0.3810473028E-01    0.5519982614E-03    0.3751102191E-01    0.6437883504E+00
    0.1700000000E+05    0.6371996572E+00    0.3808893970E-01    0.5161834449E-03    0.3755815438E-01    0.6442534178E+00
    0.1900000000E+05    0.6377220204E+00    0.3807247842E-01    0.4863054961E-03    0.3759622889E-01    0.6446273973E+00
    0.2100000000E+05    0.6381449305E+00    0.3805591255E-01    0.4608967211E-03    0.3762774225E-01    0.6449354882E+00
    0.2300000000E+05    0.6384942388E+00    0.3803954724E-01    0.4389506981E-03    0.3765434069E-01    0.6451942966E+00
    0.2500000000E+05    0.6387875576E+00    0.3802354622E-01    0.4197514046E-03    0.3767715521E-01    0.6454152252E+00
    0.2700000000E+05    0.6390372993E+00    0.3800799374E-01    0.4027737912E-03    0.3769698953E-01    0.6456063717E+00
    0.2900000000E+05    0.6392524630E+00    0.3799292829E-01    0.3876230000E-03    0.3771443120E-01    0.6457736514E+00
    0.3100000000E+05    0.6394397320E+00    0.3797836168E-01    0.3739956514E-03    0.3772992015E-01    0.6459214898E+00
    0.3300000000E+05    0.6396041731E+00    0.3796429012E-01    0.3616543205E-03    0.3774379262E-01    0.6460532665E+00
    0.3500000000E+05    0.6397496977E+00    0.3795070085E-01    0.3504102036E-03    0.3775631027E-01    0.6461716089E+00
    0.3700000000E+05    0.6398793730E+00    0.3793757613E-01    0.3401110411E-03    0.3776767993E-01    0.6462785918E+00
    0.3900000000E+05    0.6399956379E+00    0.3792489573E-01    0.3306325124E-03    0.3777806739E-01    0.6463758763E+00
    0.4100000000E+05    0.6401004562E+00    0.3791263839E-01    0.3218719823E-03    0.3778760717E-01    0.6464648090E+00
    0.4300000000E+05    0.6401954267E+00    0.3790078275E-01    0.3137438758E-03    0.3779640966E-01    0.6465464937E+00
    0.4500000000E+05    0.6402818640E+00    0.3788930795E-01    0.3061762029E-03    0.3780456636E-01    0.6466218438E+00
    0.4700000000E+05    0.6403608594E+00    0.3787819389E-01    0.2991079105E-03    0.3781215376E-01    0.6466916224E+00
    0.4900000000E+05    0.6404333258E+00    0.3786742145E-01    0.2924868383E-03    0.3781923640E-01    0.6467564721E+00
    0.1000000000E+05    0.6337349861E+00    0.3813136635E-01    0.6859338700E-03    0.3731981016E-01    0.6418862997E+00
    0.3000000000E+05    0.6393492361E+00    0.3798558260E-01    0.3806350459E-03    0.3772239672E-01    0.6458497690E+00
    0.5000000000E+05    0.6404673561E+00    0.3786215765E-01    0.2893297412E-03    0.3782260589E-01    0.6467872224E+00
    0.7000000000E+05    0.6409411333E+00    0.3777099310E-01    0.2414732374E-03    0.3787330809E-01    0.6472408354E+00
    0.9000000000E+05    0.6412009854E+00    0.3769936524E-01    0.2109547943E-03    0.3790570393E-01    0.6475198397E+00
    0.1100000000E+06    0.6413641156E+00    0.3764050557E-01    0.1893733397E-03    0.3792899001E-01    0.6477139509E+00
    0.1300000000E+06    0.6414754714E+00    0.3759059107E-01    0.1730973880E-03    0.3794695315E-01    0.6478595249E+00
    0.1500000000E+06    0.6415559557E+00    0.3754727831E-01    0.1602699257E-03    0.3796147404E-01    0.6479743384E+00
    0.1700000000E+06    0.6416165931E+00    0.3750903332E-01    0.1498306695E-03    0.3797360766E-01    0.6480682146E+00
    0.1900000000E+06    0.6416637411E+00    0.3747479912E-01    0.1411248604E-03    0.3798399880E-01    0.6481470715E+00
    0.2100000000E+06    0.6417013188E+00    0.3744381728E-01    0.1337236656E-03    0.3799306758E-01    0.6482147127E+00
    0.2300000000E+06    0.6417318716E+00    0.3741552541E-01    0.1273330451E-03    0.3800110160E-01    0.6482737082E+00
    0.2500000000E+06    0.6417571228E+00    0.3738949510E-01    0.1217438283E-03    0.3800830566E-01    0.6483258655E+00
    0.2700000000E+06    0.6417782798E+00    0.3736539258E-01    0.1168026584E-03    0.3801483036E-01    0.6483724981E+00
    0.2900000000E+06    0.6417962131E+00    0.3734295278E-01    0.1123942256E-03    0.3802078944E-01    0.6484145872E+00
    0.3100000000E+06    0.6418115656E+00    0.3732196172E-01    0.1084299517E-03    0.3802627076E-01    0.6484528823E+00
    0.3300000000E+06    0.6418248221E+00    0.3730224418E-01    0.1048405295E-03    0.3803134351E-01    0.6484879678E+00
    0.3500000000E+06    0.6418363547E+00    0.3728365487E-01    0.1015708555E-03    0.3803606309E-01    0.6485203072E+00
    0.3700000000E+06    0.6418464541E+00    0.3726607201E-01    0.9857650090E-04    0.3804047451E-01    0.6485502733E+00
    0.3900000000E+06    0.6418553499E+00    0.3724939250E-01    0.9582119640E-04    0.3804461480E-01    0.6485781705E+00
    0.4100000000E+06    0.6418632261E+00    0.3723352829E-01    0.9327500486E-04    0.3804851480E-01    0.6486042496E+00
    0.4300000000E+06    0.6418702319E+00    0.3721840360E-01    0.9091296991E-04    0.3805220040E-01    0.6486287201E+00
    0.4500000000E+06    0.6418764893E+00    0.3720395275E-01    0.8871410078E-04    0.3805569361E-01    0.6486517580E+00
    0.4700000000E+06    0.6418820990E+00    0.3719011840E-01    0.8666059868E-04    0.3805901322E-01    0.6486735131E+00
    0.4900000000E+06    0.6418871448E+00    0.3717685025E-01    0.8473725992E-04    0.3806217544E-01    0.6486941133E+00
    0.1000000000E+06    0.6412909856E+00    0.3766862456E-01    0.1993343001E-03    0.3791818319E-01    0.6476245904E+00
    0.3000000000E+06    0.6418041786E+00    0.3733228790E-01    0.1103612836E-03    0.3802358512E-01    0.6484341692E+00
    0.5000000000E+06    0.6418894787E+00    0.3717041442E-01    0.8382024337E-04    0.3806370200E-01    0.6487040153E+00
    0.7000000000E+06    0.6419188684E+00    0.3706294467E-01    0.6992624063E-04    0.3808858085E-01    0.6488616528E+00
    0.9000000000E+06    0.6419312308E+00    0.3698241448E-01    0.6107239545E-04    0.3810661292E-01    0.6489718317E+00
    0.1100000000E+07    0.6419365734E+00    0.3691801065E-01    0.5481436246E-04    0.3812075272E-01    0.6490560918E+00
    0.1300000000E+07    0.6419385216E+00    0.3686435161E-01    0.5009645019E-04    0.3813238184E-01    0.6491241152E+00
    0.1500000000E+07    0.6419386645E+00    0.3681836695E-01    0.4637915388E-04    0.3814225728E-01    0.6491810507E+00
    0.1700000000E+07    0.6419377889E+00    0.3677813854E-01    0.4335458495E-04    0.3815083858E-01    0.6492299506E+00
    0.1900000000E+07    0.6419363189E+00    0.3674238770E-01    0.4083268490E-04    0.3815842561E-01    0.6492727684E+00
    0.2100000000E+07    0.6419344976E+00    0.3671021928E-01    0.3868901424E-04    0.3816522486E-01    0.6493108275E+00
    0.2300000000E+07    0.6419324709E+00    0.3668098211E-01    0.3683827007E-04    0.3817138456E-01    0.6493450648E+00
    0.2500000000E+07    0.6419303295E+00    0.3665418778E-01    0.3521978419E-04    0.3817701470E-01    0.6493761671E+00
    0.2700000000E+07    0.6419281308E+00    0.3662946048E-01    0.3378908508E-04    0.3818219914E-01    0.6494046525E+00
    0.2900000000E+07    0.6419259124E+00    0.3660650492E-01    0.3251274003E-04    0.3818700329E-01    0.6494309215E+00
    0.3100000000E+07    0.6419236985E+00    0.3658508484E-01    0.3136507060E-04    0.3819147915E-01    0.6494552896E+00
    0.3300000000E+07    0.6419215054E+00    0.3656500823E-01    0.3032598746E-04    0.3819566873E-01    0.6494780098E+00
    0.3500000000E+07    0.6419193433E+00    0.3654611699E-01    0.2937952032E-04    0.3819960646E-01    0.6494992882E+00
    0.3700000000E+07    0.6419172190E+00    0.3652827933E-01    0.2851279397E-04    0.3820332093E-01    0.6495192946E+00
    0.3900000000E+07    0.6419151366E+00    0.3651138429E-01    0.2771529876E-04    0.3820683609E-01    0.6495381706E+00
    0.4100000000E+07    0.6419130985E+00    0.3649533753E-01    0.2697836069E-04    0.3821017226E-01    0.6495560358E+00
    0.4300000000E+07    0.6419111058E+00    0.3648005820E-01    0.2629474943E-04    0.3821334680E-01    0.6495729917E+00
    0.4500000000E+07    0.6419091588E+00    0.3646547647E-01    0.2565838402E-04    0.3821637464E-01    0.6495891251E+00
    0.4700000000E+07    0.6419072571E+00    0.3645153161E-01    0.2506410856E-04    0.3821926876E-01    0.6496045115E+00
    0.4900000000E+07    0.6419054002E+00    0.3643817050E-01    0.2450751914E-04    0.3822204047E-01    0.6496192161E+00
    0.1000000000E+07    0.6419344803E+00    0.3694860857E-01    0.5770245446E-04    0.3811406221E-01    0.6490164437E+00
    0.3000000000E+07    0.6419248037E+00    0.3659561584E-01    0.3192418757E-04    0.3818927943E-01    0.6494433261E+00
    0.5000000000E+07    0.6419044882E+00    0.3643169402E-01    0.2424215224E-04    0.3822338358E-01    0.6496263309E+00
    0.7000000000E+07    0.6418883011E+00    0.3632392411E-01    0.2022194795E-04    0.3824570256E-01    0.6497436026E+00
    0.9000000000E+07    0.6418751953E+00    0.3624355754E-01    0.1766053143E-04    0.3826232353E-01    0.6498298729E+00
    0.1100000000E+08    0.6418642461E+00    0.3617947215E-01    0.1585027434E-04    0.3827557305E-01    0.6498980720E+00
    0.1300000000E+08    0.6418548614E+00    0.3612618401E-01    0.1448562778E-04    0.3828659151E-01    0.6499544362E+00
    0.1500000000E+08    0.6418466563E+00    0.3608058283E-01    0.1341046658E-04    0.3829602349E-01    0.6500024499E+00
    0.1700000000E+08    0.6418393699E+00    0.3604073362E-01    0.1253570185E-04    0.3830426915E-01    0.6500442578E+00
    0.1900000000E+08    0.6418328185E+00    0.3600535048E-01    0.1180634401E-04    0.3831159403E-01    0.6500812733E+00
    0.2100000000E+08    0.6418268680E+00    0.3597353531E-01    0.1118639143E-04    0.3831818341E-01    0.6501144767E+00
    0.2300000000E+08    0.6418214176E+00    0.3594463613E-01    0.1065116644E-04    0.3832417173E-01    0.6501445763E+00
    0.2500000000E+08    0.6418163899E+00    0.3591816462E-01    0.1018311887E-04    0.3832965961E-01    0.6501720996E+00
    0.2700000000E+08    0.6418117243E+00    0.3589374560E-01    0.9769384455E-05    0.3833472434E-01    0.6501974508E+00
