  Pressure (Pa) 22mC5-400 (mol/kg) 3mC6-400 (mol/kg) 33mC5-400 (mol/kg) 23mC5-400 (mol/kg) C7-400 (mol/kg)
    0.1000000000E+01    0.4759865587E-02    0.2639585115E-02    0.1939104765E-03    0.9286470066E-04    0.3426592310E-02
    0.3000000000E+01    0.1407342136E-01    0.7776813167E-02    0.5677235152E-03    0.2745752168E-03    0.1009636362E-01
    0.5000000000E+01    0.2312200065E-01    0.1273313879E-01    0.9237419181E-03    0.4511206088E-03    0.1653236165E-01
    0.7000000000E+01    0.3191691675E-01    0.1751797740E-01    0.1262960988E-02    0.6227213405E-03    0.2274673448E-01
    0.9000000000E+01    0.4046884544E-01    0.2214010171E-01    0.1586308516E-02    0.7895854541E-03    0.2875080163E-01
    0.1100000000E+02    0.4878786924E-01    0.2660769568E-01    0.1894650250E-02    0.9519094319E-03    0.3455512352E-01
    0.1300000000E+02    0.5688351795E-01    0.3092840305E-01    0.2188794843E-02    0.1109878988E-02    0.4016956411E-01
    0.1500000000E+02    0.6476480608E-01    0.3510937123E-01    0.2469498348E-02    0.1263669794E-02    0.4560334738E-01
    0.1700000000E+02    0.7244026711E-01    0.3915729096E-01    0.2737468287E-02    0.1413448151E-02    0.5086510844E-01
    0.1900000000E+02    0.7991798518E-01    0.4307843216E-01    0.2993367360E-02    0.1559371604E-02    0.5596293983E-01
    0.2100000000E+02    0.8720562428E-01    0.4687867658E-01    0.3237816823E-02    0.1701589510E-02    0.6090443345E-01
    0.2300000000E+02    0.9431045515E-01    0.5056354733E-01    0.3471399564E-02    0.1840243566E-02    0.6569671874E-01
    0.2500000000E+02    0.1012393802E+00    0.5413823585E-01    0.3694662917E-02    0.1975468291E-02    0.7034649738E-01
    0.2700000000E+02    0.1079989567E+00    0.5760762640E-01    0.3908121234E-02    0.2107391475E-02    0.7486007489E-01
    0.2900000000E+02    0.1145954177E+00    0.6097631851E-01    0.4112258239E-02    0.2236134598E-02    0.7924338953E-01
    0.3100000000E+02    0.1210346923E+00    0.6424864738E-01    0.4307529188E-02    0.2361813210E-02    0.8350203866E-01
    0.3300000000E+02    0.1273224236E+00    0.6742870266E-01    0.4494362849E-02    0.2484537293E-02    0.8764130283E-01
    0.3500000000E+02    0.1334639861E+00    0.7052034554E-01    0.4673163326E-02    0.2604411590E-02    0.9166616797E-01
    0.3700000000E+02    0.1394645010E+00    0.7352722452E-01    0.4844311733E-02    0.2721535916E-02    0.9558134560E-01
    0.3900000000E+02    0.1453288516E+00    0.7645278987E-01    0.5008167737E-02    0.2836005442E-02    0.9939129152E-01
    0.4100000000E+02    0.1510616964E+00    0.7930030689E-01    0.5165070981E-02    0.2947910965E-02    0.1031002229E+00
    0.4300000000E+02    0.1566674824E+00    0.8207286816E-01    0.5315342398E-02    0.3057339153E-02    0.1067121340E+00
    0.4500000000E+02    0.1621504565E+00    0.8477340482E-01    0.5459285425E-02    0.3164372783E-02    0.1102308110E+00
    0.4700000000E+02    0.1675146770E+00    0.8740469696E-01    0.5597187121E-02    0.3269090954E-02    0.1136598448E+00
    0.4900000000E+02    0.1727640240E+00    0.8996938324E-01    0.5729319212E-02    0.3371569288E-02    0.1170026443E+00
    0.1000000000E+02    0.4465686234E-01    0.2439272513E-01    0.1742303283E-02    0.8713031093E-03    0.3167729860E-01
    0.3000000000E+02    0.1178343441E+00    0.6262426720E-01    0.4210974574E-02    0.2299349967E-02    0.8138796009E-01
    0.5000000000E+02    0.1753467861E+00    0.9122753728E-01    0.5793302614E-02    0.3421991245E-02    0.1186427242E+00
    0.7000000000E+02    0.2217929932E+00    0.1134405086E+00    0.6825822550E-02    0.4328857336E-02    0.1476233737E+00
    0.9000000000E+02    0.2601227243E+00    0.1311945642E+00    0.7503671254E-02    0.5077443732E-02    0.1708257123E+00
    0.1100000000E+03    0.2923162916E+00    0.1457133127E+00    0.7945745373E-02    0.5706353128E-02    0.1898318459E+00
    0.1300000000E+03    0.3197536593E+00    0.1578097009E+00    0.8227371659E-02    0.6242487745E-02    0.2056935057E+00
    0.1500000000E+03    0.3434267300E+00    0.1680450329E+00    0.8397802584E-02    0.6705186230E-02    0.2191372800E+00
    0.1700000000E+03    0.3640673836E+00    0.1768193947E+00    0.8490089568E-02    0.7108718885E-02    0.2306813605E+00
    0.1900000000E+03    0.3822278571E+00    0.1844256931E+00    0.8526898417E-02    0.7463854218E-02    0.2407053352E+00
    0.2100000000E+03    0.3983329666E+00    0.1910833178E+00    0.8524059285E-02    0.7778876762E-02    0.2494936789E+00
    0.2300000000E+03    0.4127150573E+00    0.1969598622E+00    0.8492800393E-02    0.8060268271E-02    0.2572638269E+00
    0.2500000000E+03    0.4256380060E+00    0.2021855703E+00    0.8441190689E-02    0.8313175604E-02    0.2641848518E+00
    0.2700000000E+03    0.4373140889E+00    0.2068632010E+00    0.8375092968E-02    0.8541739509E-02    0.2703902225E+00
    0.2900000000E+03    0.4479160761E+00    0.2110749222E+00    0.8298806247E-02    0.8749330395E-02    0.2759867227E+00
    0.3100000000E+03    0.4575860621E+00    0.2148872274E+00    0.8215506414E-02    0.8938720492E-02    0.2810608142E+00
    0.3300000000E+03    0.4664420195E+00    0.2183545070E+00    0.8127553272E-02    0.9112211612E-02    0.2856832606E+00
    0.3500000000E+03    0.4745827336E+00    0.2215216852E+00    0.8036707528E-02    0.9271731364E-02    0.2899125424E+00
    0.3700000000E+03    0.4820915690E+00    0.2244261960E+00    0.7944286088E-02    0.9418906585E-02    0.2937974165E+00
    0.3900000000E+03    0.4890393780E+00    0.2270994834E+00    0.7851274471E-02    0.9555120059E-02    0.2973788611E+00
    0.4100000000E+03    0.4954867723E+00    0.2295681551E+00    0.7758409034E-02    0.9681554812E-02    0.3006915707E+00
    0.4300000000E+03    0.5014859155E+00    0.2318548789E+00    0.7666237671E-02    0.9799229067E-02    0.3037651187E+00
    0.4500000000E+03    0.5070819501E+00    0.2339790867E+00    0.7575165013E-02    0.9909024070E-02    0.3066248714E+00
    0.4700000000E+03    0.5123141441E+00    0.2359575331E+00    0.7485486333E-02    0.1001170645E-01    0.3092927116E+00
    0.4900000000E+03    0.5172168188E+00    0.2378047413E+00    0.7397413169E-02    0.1010794634E-01    0.3117876188E+00
    0.1000000000E+03    0.2768892330E+00    0.1388002288E+00    0.7748705680E-02    0.5404961346E-02    0.1807781232E+00
    0.3000000000E+03    0.4528596951E+00    0.2130273534E+00    0.8257869256E-02    0.8846146910E-02    0.2785843238E+00
    0.5000000000E+03    0.5195541484E+00    0.2386831496E+00    0.7354026759E-02    0.1015383705E-01    0.3129754765E+00
    0.7000000000E+03    0.5546776207E+00    0.2517143146E+00    0.6586060877E-02    0.1084428306E-01    0.3307335601E+00
    0.9000000000E+03    0.5763384212E+00    0.2595993045E+00    0.5989878853E-02    0.1127117227E-01    0.3416533407E+00
    0.1100000000E+04    0.5910214154E+00    0.2648804002E+00    0.5520425892E-02    0.1156128051E-01    0.3490841547E+00
    0.1300000000E+04    0.6016253048E+00    0.2686611981E+00    0.5141385099E-02    0.1177132597E-01    0.3544882197E+00
    0.1500000000E+04    0.6096398556E+00    0.2714986424E+00    0.4828132946E-02    0.1193048389E-01    0.3586075809E+00
    0.1700000000E+04    0.6159087879E+00    0.2737043535E+00    0.4564080070E-02    0.1205529179E-01    0.3618597110E+00
    0.1900000000E+04    0.6209455266E+00    0.2754663574E+00    0.4337793009E-02    0.1215582179E-01    0.3644978774E+00
    0.2100000000E+04    0.6250803213E+00    0.2769048514E+00    0.4141171127E-02    0.1223855812E-01    0.3666848574E+00
    0.2300000000E+04    0.6285351939E+00    0.2781002650E+00    0.3968320743E-02    0.1230786376E-01    0.3685301570E+00
    0.2500000000E+04    0.6314648879E+00    0.2791084507E+00    0.3814849782E-02    0.1236678221E-01    0.3701102254E+00
    0.2700000000E+04    0.6339805415E+00    0.2799694043E+00    0.3677414891E-02    0.1241750116E-01    0.3714800977E+00
    0.2900000000E+04    0.6361640265E+00    0.2807125174E+00    0.3553422886E-02    0.1246163362E-01    0.3726804308E+00
    0.3100000000E+04    0.6380769813E+00    0.2813598720E+00    0.3440828893E-02    0.1250039498E-01    0.3737419305E+00
    0.3300000000E+04    0.6397666937E+00    0.2819283778E+00    0.3337996622E-02    0.1253471847E-01    0.3746882338E+00
    0.3500000000E+04    0.6412700456E+00    0.2824312021E+00    0.3243599557E-02    0.1256533256E-01    0.3755378418E+00
    0.3700000000E+04    0.6426162242E+00    0.2828787494E+00    0.3156549718E-02    0.1259281425E-01    0.3763054497E+00
    0.3900000000E+04    0.6438286282E+00    0.2832793490E+00    0.3075945389E-02    0.1261762648E-01    0.3770028827E+00
    0.4100000000E+04    0.6449262347E+00    0.2836397471E+00    0.3001032141E-02    0.1264014505E-01    0.3776397680E+00
    0.4300000000E+04    0.6459245953E+00    0.2839654652E+00    0.2931173354E-02    0.1266067817E-01    0.3782240254E+00
    0.4500000000E+04    0.6468365759E+00    0.2842610655E+00    0.2865827629E-02    0.1267948104E-01    0.3787622322E+00
    0.4700000000E+04    0.6476729119E+00    0.2845303500E+00    0.2804531254E-02    0.1269676678E-01    0.3792598979E+00
    0.4900000000E+04    0.6484426315E+00    0.2847765120E+00    0.2746884465E-02    0.1271271479E-01    0.3797216739E+00
    0.1000000000E+04    0.5843235596E+00    0.2624777998E+00    0.5741894756E-02    0.1142885243E-01    0.3456890595E+00
    0.3000000000E+04    0.6371510819E+00    0.2810470059E+00    0.3495811664E-02    0.1248162180E-01    0.3732269181E+00
    0.5000000000E+04    0.6488049466E+00    0.2848917829E+00    0.2719319496E-02    0.1272023559E-01    0.3799403627E+00
    0.7000000000E+04    0.6539137828E+00    0.2864625975E+00    0.2295459513E-02    0.1282750544E-01    0.3831381884E+00
    0.9000000000E+04    0.6567808860E+00    0.2872748779E+00    0.2019420813E-02    0.1288918654E-01    0.3850668848E+00
    0.1100000000E+05    0.6586157318E+00    0.2877481806E+00    0.1821614684E-02    0.1292960472E-01    0.3863835329E+00
    0.1300000000E+05    0.6598904928E+00    0.2880435756E+00    0.1671049215E-02    0.1295834074E-01    0.3873538794E+00
    0.1500000000E+05    0.6608275164E+00    0.2882355141E+00    0.1551562927E-02    0.1297994510E-01    0.3881071577E+00
    0.1700000000E+05    0.6615452338E+00    0.2883628570E+00    0.1453797349E-02    0.1299686215E-01    0.3887142881E+00
    0.1900000000E+05    0.6621125106E+00    0.2884477152E+00    0.1371910972E-02    0.1301052510E-01    0.3892176808E+00
    0.2100000000E+05    0.6625721177E+00    0.2885035072E+00    0.1302045232E-02    0.1302183146E-01    0.3896443838E+00
    0.2300000000E+05    0.6629520206E+00    0.2885387947E+00    0.1241535974E-02    0.1303137285E-01    0.3900125346E+00
    0.2500000000E+05    0.6632712743E+00    0.2885592632E+00    0.1188476994E-02    0.1303955566E-01    0.3903347941E+00
    0.2700000000E+05    0.6635433099E+00    0.2885688133E+00    0.1141463825E-02    0.1304666863E-01    0.3906202961E+00
    0.2900000000E+05    0.6637778668E+00    0.2885701943E+00    0.1099435950E-02    0.1305292281E-01    0.3908758138E+00
    0.3100000000E+05    0.6639821789E+00    0.2885653889E+00    0.1061575680E-02    0.1305847620E-01    0.3911064880E+00
    0.3300000000E+05    0.6641617320E+00    0.2885558545E+00    0.1027241125E-02    0.1306344954E-01    0.3913162996E+00
    0.3500000000E+05    0.6643207611E+00    0.2885426807E+00    0.9959204585E-03    0.1306793678E-01    0.3915083849E+00
    0.3700000000E+05    0.6644625881E+00    0.2885266933E+00    0.9671999255E-03    0.1307201217E-01    0.3916852530E+00
    0.3900000000E+05    0.6645898551E+00    0.2885085266E+00    0.9407409622E-03    0.1307573524E-01    0.3918489382E+00
    0.4100000000E+05    0.6647046895E+00    0.2884886726E+00    0.9162635155E-03    0.1307915425E-01    0.3920011095E+00
    0.4300000000E+05    0.6648088240E+00    0.2884675167E+00    0.8935336689E-03    0.1308230883E-01    0.3921431511E+00
    0.4500000000E+05    0.6649036836E+00    0.2884453634E+00    0.8723543226E-03    0.1308523182E-01    0.3922762220E+00
    0.4700000000E+05    0.6649904514E+00    0.2884224547E+00    0.8525580725E-03    0.1308795066E-01    0.3924013011E+00
    0.4900000000E+05    0.6650701173E+00    0.2883989844E+00    0.8340017033E-03    0.1309048851E-01    0.3925192218E+00
    0.1000000000E+05    0.6577890830E+00    0.2875407897E+00    0.1913175955E-02    0.1291127896E-01    0.3857803703E+00
    0.3000000000E+05    0.6638834264E+00    0.2885684637E+00    0.1080028485E-02    0.1305577883E-01    0.3909939847E+00
    0.5000000000E+05    0.6651075532E+00    0.2883870886E+00    0.8251492533E-03    0.1309169582E-01    0.3925757252E+00
    0.7000000000E+05    0.6656309343E+00    0.2881447462E+00    0.6906231143E-03    0.1310986004E-01    0.3934599860E+00
    0.9000000000E+05    0.6659206859E+00    0.2879181826E+00    0.6045059834E-03    0.1312146376E-01    0.3940618460E+00
    0.1100000000E+06    0.6661043486E+00    0.2877151855E+00    0.5434518587E-03    0.1312980393E-01    0.3945139314E+00
    0.1300000000E+06    0.6662309699E+00    0.2875337398E+00    0.4973204860E-03    0.1313623757E-01    0.3948741798E+00
    0.1500000000E+06    0.6663234246E+00    0.2873705659E+00    0.4609097127E-03    0.1314143848E-01    0.3951727369E+00
    0.1700000000E+06    0.6663938124E+00    0.2872226855E+00    0.4312422202E-03    0.1314578454E-01    0.3954271680E+00
    0.1900000000E+06    0.6664491310E+00    0.2870876525E+00    0.4064759913E-03    0.1314950666E-01    0.3956485562E+00
    0.2100000000E+06    0.6664937076E+00    0.2869635046E+00    0.3854027732E-03    0.1315275531E-01    0.3958443210E+00
    0.2300000000E+06    0.6665303608E+00    0.2868486684E+00    0.3671930465E-03    0.1315563345E-01    0.3960196620E+00
    0.2500000000E+06    0.6665610049E+00    0.2867418741E+00    0.3512560789E-03    0.1315821443E-01    0.3961783581E+00
    0.2700000000E+06    0.6665869853E+00    0.2866420867E+00    0.3371583555E-03    0.1316055216E-01    0.3963232390E+00
    0.2900000000E+06    0.6666092748E+00    0.2865484546E+00    0.3245736435E-03    0.1316268736E-01    0.3964564759E+00
    0.3100000000E+06    0.6666285944E+00    0.2864602693E+00    0.3132511525E-03    0.1316465149E-01    0.3965797704E+00
    0.3300000000E+06    0.6666454894E+00    0.2863769364E+00    0.3029945211E-03    0.1316646932E-01    0.3966944797E+00
    0.3500000000E+06    0.6666603800E+00    0.2862979526E+00    0.2936475363E-03    0.1316816068E-01    0.3968017034E+00
    0.3700000000E+06    0.6666735950E+00    0.2862228883E+00    0.2850841753E-03    0.1316974170E-01    0.3969023441E+00
    0.3900000000E+06    0.6666853954E+00    0.2861513740E+00    0.2772015075E-03    0.1317122562E-01    0.3969971519E+00
    0.4100000000E+06    0.6666959910E+00    0.2860830898E+00    0.2699145319E-03    0.1317262349E-01    0.3970867566E+00
    0.4300000000E+06    0.6667055523E+00    0.2860177570E+00    0.2631523584E-03    0.1317394458E-01    0.3971716918E+00
    0.4500000000E+06    0.6667142192E+00    0.2859551312E+00    0.2568553364E-03    0.1317519676E-01    0.3972524138E+00
    0.4700000000E+06    0.6667221078E+00    0.2858949971E+00    0.2509728667E-03    0.1317638676E-01    0.3973293156E+00
    0.4900000000E+06    0.6667293149E+00    0.2858371640E+00    0.2454617117E-03    0.1317752040E-01    0.3974027379E+00
    0.1000000000E+06    0.6660217928E+00    0.2878137962E+00    0.5716476298E-03    0.1312593337E-01    0.3943020455E+00
    0.3000000000E+06    0.6666192683E+00    0.2865037206E+00    0.3187679756E-03    0.1316368912E-01    0.3965192742E+00
    0.5000000000E+06    0.6667326889E+00    0.2858090565E+00    0.2428335474E-03    0.1317806768E-01    0.3974382387E+00
    0.7000000000E+06    0.6667787609E+00    0.2853348749E+00    0.2029689527E-03    0.1318698853E-01    0.3980213574E+00
    0.9000000000E+06    0.6668029492E+00    0.2849743730E+00    0.1775184118E-03    0.1319345632E-01    0.3984483140E+00
    0.1100000000E+07    0.6668174443E+00    0.2846833851E+00    0.1595048061E-03    0.1319852922E-01    0.3987849301E+00
    0.1300000000E+07    0.6668268566E+00    0.2844393491E+00    0.1459095270E-03    0.1320270215E-01    0.3990626608E+00
    0.1500000000E+07    0.6668333010E+00    0.2842291735E+00    0.1351879133E-03    0.1320624636E-01    0.3992989789E+00
    0.1700000000E+07    0.6668378782E+00    0.2840445814E+00    0.1264575196E-03    0.1320932651E-01    0.3995045918E+00
    0.1900000000E+07    0.6668412142E+00    0.2838800051E+00    0.1191731374E-03    0.1321205009E-01    0.3996865343E+00
    0.2100000000E+07    0.6668436897E+00    0.2837315183E+00    0.1129775253E-03    0.1321449111E-01    0.3998496750E+00
    0.2300000000E+07    0.6668455484E+00    0.2835962486E+00    0.1076256334E-03    0.1321670272E-01    0.3999975223E+00
    0.2500000000E+07    0.6668469530E+00    0.2834720306E+00    0.1029430774E-03    0.1321872435E-01    0.4001326878E+00
    0.2700000000E+07    0.6668480159E+00    0.2833571913E+00    0.9880196052E-04    0.1322058608E-01    0.4002571678E+00
    0.2900000000E+07    0.6668488169E+00    0.2832504113E+00    0.9510608632E-04    0.1322231136E-01    0.4003725222E+00
    0.3100000000E+07    0.6668494139E+00    0.2831506318E+00    0.9178153709E-04    0.1322391883E-01    0.4004799929E+00
    0.3300000000E+07    0.6668498502E+00    0.2830569898E+00    0.8877046016E-04    0.1322542357E-01    0.4005805850E+00
    0.3500000000E+07    0.6668501581E+00    0.2829687728E+00    0.8602684730E-04    0.1322683793E-01    0.4006751232E+00
    0.3700000000E+07    0.6668503628E+00    0.2828853858E+00    0.8351359351E-04    0.1322817215E-01    0.4007642922E+00
    0.3900000000E+07    0.6668504836E+00    0.2828063265E+00    0.8120040111E-04    0.1322943484E-01    0.4008486673E+00
    0.4100000000E+07    0.6668505358E+00    0.2827311674E+00    0.7906225632E-04    0.1323063329E-01    0.4009287359E+00
    0.4300000000E+07    0.6668505317E+00    0.2826595411E+00    0.7707830251E-04    0.1323177371E-01    0.4010049148E+00
    0.4500000000E+07    0.6668504809E+00    0.2825911301E+00    0.7523099351E-04    0.1323286148E-01    0.4010775634E+00
    0.4700000000E+07    0.6668503915E+00    0.2825256577E+00    0.7350544841E-04    0.1323390124E-01    0.4011469932E+00
    0.4900000000E+07    0.6668502698E+00    0.2824628816E+00    0.7188895348E-04    0.1323489706E-01    0.4012134765E+00
    0.1000000000E+07    0.6668110322E+00    0.2848219065E+00    0.1678208042E-03    0.1319612875E-01    0.3986254863E+00
    0.3000000000E+07    0.6668491379E+00    0.2831997044E+00    0.9340133133E-04    0.1322312880E-01    0.4004271754E+00
    0.5000000000E+07    0.6668501986E+00    0.2824324369E+00    0.7111812189E-04    0.1323537962E-01    0.4012456891E+00
    0.7000000000E+07    0.6668479790E+00    0.2819244216E+00    0.5942933938E-04    0.1324339959E-01    0.4017805750E+00
    0.9000000000E+07    0.6668452745E+00    0.2815439677E+00    0.5197008735E-04    0.1324937331E-01    0.4021783325E+00
    0.1100000000E+08    0.6668426196E+00    0.2812396800E+00    0.4669191247E-04    0.1325413603E-01    0.4024950141E+00
    0.1300000000E+08    0.6668401355E+00    0.2809860812E+00    0.4270908923E-04    0.1325809722E-01    0.4027580897E+00
    0.1500000000E+08    0.6668378400E+00    0.2807686665E+00    0.3956855636E-04    0.1326148840E-01    0.4029830789E+00
    0.1700000000E+08    0.6668357222E+00    0.2805783857E+00    0.3701155792E-04    0.1326445328E-01    0.4031796102E+00
    0.1900000000E+08    0.6668337640E+00    0.2804092103E+00    0.3487825837E-04    0.1326708727E-01    0.4033540695E+00
    0.2100000000E+08    0.6668319470E+00    0.2802569219E+00    0.3306394502E-04    0.1326945692E-01    0.4035109100E+00
    0.2300000000E+08    0.6668302543E+00    0.2801184528E+00    0.3149679993E-04    0.1327161054E-01    0.4036533605E+00
    0.2500000000E+08    0.6668286715E+00    0.2799915022E+00    0.3012572126E-04    0.1327358428E-01    0.4037838369E+00
    0.2700000000E+08    0.6668271859E+00    0.2798743000E+00    0.2891323361E-04    0.1327540592E-01    0.4039041940E+00
