  Pressure (Pa) 22mC5-400 (mol/kg) 3mC6-400 (mol/kg) 33mC5-400 (mol/kg) 23mC5-400 (mol/kg) C7-400 (mol/kg)
    0.1000000000E+01    0.5283571365E-02    0.5281921348E-03    0.2584901931E-03    0.1855480654E-03    0.5142552660E-02
    0.3000000000E+01    0.1559207820E-01    0.1557753431E-02    0.7564736614E-03    0.5475695156E-03    0.1516769927E-01
    0.5000000000E+01    0.2556981429E-01    0.2553044238E-02    0.1230352575E-02    0.8979851707E-03    0.2486068664E-01
    0.7000000000E+01    0.3523271809E-01    0.3515753580E-02    0.1681506568E-02    0.1237354105E-02    0.3423786022E-01
    0.9000000000E+01    0.4459571551E-01    0.4447461185E-02    0.2111220112E-02    0.1566199881E-02    0.4331450856E-01
    0.1100000000E+02    0.5367279901E-01    0.5349646181E-02    0.2520690277E-02    0.1885013321E-02    0.5210494739E-01
    0.1300000000E+02    0.6247709933E-01    0.6223694986E-02    0.2911033758E-02    0.2194255028E-02    0.6062259584E-01
    0.1500000000E+02    0.7102095081E-01    0.7070908457E-02    0.3283293248E-02    0.2494357670E-02    0.6888004557E-01
    0.1700000000E+02    0.7931595081E-01    0.7892508390E-02    0.3638443230E-02    0.2785728069E-02    0.7688912360E-01
    0.1900000000E+02    0.8737301397E-01    0.8689643442E-02    0.3977395237E-02    0.3068749100E-02    0.8466094954E-01
    0.2100000000E+02    0.9520242164E-01    0.9463394520E-02    0.4301002647E-02    0.3343781426E-02    0.9220598773E-01
    0.2300000000E+02    0.1028138672E+00    0.1021477971E-01    0.4610065056E-02    0.3611165092E-02    0.9953409479E-01
    0.2500000000E+02    0.1102164976E+00    0.1094475876E-01    0.4905332269E-02    0.3871220968E-02    0.1066545632E+00
    0.2700000000E+02    0.1174189510E+00    0.1165423723E-01    0.5187507949E-02    0.4124252093E-02    0.1135761610E+00
    0.2900000000E+02    0.1244293922E+00    0.1234407025E-01    0.5457252958E-02    0.4370544889E-02    0.1203071685E+00
    0.3100000000E+02    0.1312555443E+00    0.1301506596E-01    0.5715188417E-02    0.4610370292E-02    0.1268554115E+00
    0.3300000000E+02    0.1379047183E+00    0.1366798874E-01    0.5961898515E-02    0.4843984780E-02    0.1332282923E+00
    0.3500000000E+02    0.1443838402E+00    0.1430356208E-01    0.6197933088E-02    0.5071631333E-02    0.1394328177E+00
    0.3700000000E+02    0.1506994761E+00    0.1492247135E-01    0.6423809989E-02    0.5293540304E-02    0.1454756255E+00
    0.3900000000E+02    0.1568578555E+00    0.1552536620E-01    0.6640017270E-02    0.5509930234E-02    0.1513630082E+00
    0.4100000000E+02    0.1628648921E+00    0.1611286292E-01    0.6847015198E-02    0.5721008601E-02    0.1571009350E+00
    0.4300000000E+02    0.1687262043E+00    0.1668554652E-01    0.7045238101E-02    0.5926972510E-02    0.1626950729E+00
    0.4500000000E+02    0.1744471331E+00    0.1724397270E-01    0.7235096086E-02    0.6128009339E-02    0.1681508051E+00
    0.4700000000E+02    0.1800327588E+00    0.1778866967E-01    0.7416976618E-02    0.6324297329E-02    0.1734732486E+00
    0.4900000000E+02    0.1854879172E+00    0.1832013982E-01    0.7591245981E-02    0.6516006141E-02    0.1786672708E+00
    0.1000000000E+02    0.4916915643E-01    0.4902155272E-02    0.2318414018E-02    0.1726831175E-02    0.4774464530E-01
    0.3000000000E+02    0.1278650382E+00    0.1268187401E-01    0.5587659535E-02    0.4491249657E-02    0.1236036633E+00
    0.5000000000E+02    0.1881680191E+00    0.1858106516E-01    0.7675635483E-02    0.6610194153E-02    0.1812175804E+00
    0.7000000000E+02    0.2359311590E+00    0.2320991618E-01    0.9038693310E-02    0.8289005724E-02    0.2264966851E+00
    0.9000000000E+02    0.2747471135E+00    0.2694014010E-01    0.9938028857E-02    0.9653736425E-02    0.2630433247E+00
    0.1100000000E+03    0.3069456451E+00    0.3001114395E-01    0.1053095033E-01    0.1078613613E-01    0.2931788761E+00
    0.1300000000E+03    0.3341055954E+00    0.3258410997E-01    0.1091613037E-01    0.1174161060E-01    0.3184670484E+00
    0.1500000000E+03    0.3573362075E+00    0.3477155000E-01    0.1115755340E-01    0.1255908983E-01    0.3399999514E+00
    0.1700000000E+03    0.3774405508E+00    0.3665439901E-01    0.1129787259E-01    0.1326676099E-01    0.3585636040E+00
    0.1900000000E+03    0.3950149550E+00    0.3829237521E-01    0.1136619089E-01    0.1388555682E-01    0.3747382789E+00
    0.2100000000E+03    0.4105119265E+00    0.3973051106E-01    0.1138276243E-01    0.1443136302E-01    0.3889617792E+00
    0.2300000000E+03    0.4242813161E+00    0.4100341059E-01    0.1136192356E-01    0.1491646262E-01    0.4015706999E+00
    0.2500000000E+03    0.4365980513E+00    0.4213810625E-01    0.1131397013E-01    0.1535050906E-01    0.4128281245E+00
    0.2700000000E+03    0.4476812973E+00    0.4315602477E-01    0.1124638868E-01    0.1574119858E-01    0.4229426901E+00
    0.2900000000E+03    0.4577079964E+00    0.4407437045E-01    0.1116468099E-01    0.1609474529E-01    0.4320820067E+00
    0.3100000000E+03    0.4668226253E+00    0.4490711782E-01    0.1107292647E-01    0.1641622362E-01    0.4403822897E+00
    0.3300000000E+03    0.4751443543E+00    0.4566573659E-01    0.1097417233E-01    0.1670981958E-01    0.4479553977E+00
    0.3500000000E+03    0.4827723825E+00    0.4635972965E-01    0.1087070822E-01    0.1697901800E-01    0.4548940558E+00
    0.3700000000E+03    0.4897899716E+00    0.4699703791E-01    0.1076426218E-01    0.1722674411E-01    0.4612757887E+00
    0.3900000000E+03    0.4962675366E+00    0.4758434906E-01    0.1065614219E-01    0.1745547204E-01    0.4671659201E+00
    0.4100000000E+03    0.5022650401E+00    0.4812733585E-01    0.1054733957E-01    0.1766730886E-01    0.4726198890E+00
    0.4300000000E+03    0.5078338690E+00    0.4863084184E-01    0.1043860520E-01    0.1786406048E-01    0.4776850552E+00
    0.4500000000E+03    0.5130183194E+00    0.4909902785E-01    0.1033050633E-01    0.1804728375E-01    0.4824021242E+00
    0.4700000000E+03    0.5178567815E+00    0.4953548836E-01    0.1022346918E-01    0.1821832808E-01    0.4868062790E+00
    0.4900000000E+03    0.5223826950E+00    0.4994334483E-01    0.1011781122E-01    0.1837836900E-01    0.4909280888E+00
    0.1000000000E+03    0.2915613387E+00    0.2854656428E-01    0.1026559988E-01    0.1024503972E-01    0.2788011298E+00
    0.3000000000E+03    0.4623713483E+00    0.4450067542E-01    0.1111984861E-01    0.1625921301E-01    0.4363295339E+00
    0.5000000000E+03    0.5245377358E+00    0.5013741156E-01    0.1006557507E-01    0.1845458977E-01    0.4928915893E+00
    0.7000000000E+03    0.5567130496E+00    0.5302507409E-01    0.9122680940E-02    0.1959413613E-01    0.5223213537E+00
    0.9000000000E+03    0.5763583755E+00    0.5477964983E-01    0.8368892400E-02    0.2029191022E-01    0.5404778415E+00
    0.1100000000E+04    0.5895882585E+00    0.5595714554E-01    0.7762578692E-02    0.2076316339E-01    0.5528477897E+00
    0.1300000000E+04    0.5990985616E+00    0.5680071494E-01    0.7264983713E-02    0.2110289277E-01    0.5618435046E+00
    0.1500000000E+04    0.6062617623E+00    0.5743369726E-01    0.6848416518E-02    0.2135950920E-01    0.5686950433E+00
    0.1700000000E+04    0.6118497719E+00    0.5792536237E-01    0.6493597236E-02    0.2156026644E-01    0.5740968068E+00
    0.1900000000E+04    0.6163298180E+00    0.5831762605E-01    0.6186908875E-02    0.2172167678E-01    0.5784711359E+00
    0.2100000000E+04    0.6200011652E+00    0.5863734291E-01    0.5918513275E-02    0.2185432672E-01    0.5820899916E+00
    0.2300000000E+04    0.6230643136E+00    0.5890251413E-01    0.5681135684E-02    0.2196531576E-01    0.5851365952E+00
    0.2500000000E+04    0.6256586079E+00    0.5912565759E-01    0.5469279880E-02    0.2205958272E-01    0.5877389978E+00
    0.2700000000E+04    0.6278838861E+00    0.5931574714E-01    0.5278712287E-02    0.2214066955E-01    0.5899894557E+00
    0.2900000000E+04    0.6298135444E+00    0.5947938310E-01    0.5106115300E-02    0.2221118264E-01    0.5919561622E+00
    0.3100000000E+04    0.6315027416E+00    0.5962152756E-01    0.4948849056E-02    0.2227308260E-01    0.5936906390E+00
    0.3300000000E+04    0.6329937290E+00    0.5974598232E-01    0.4804784196E-02    0.2232787270E-01    0.5952325561E+00
    0.3500000000E+04    0.6343194148E+00    0.5985570878E-01    0.4672182134E-02    0.2237672491E-01    0.5966129670E+00
    0.3700000000E+04    0.6355058100E+00    0.5995304757E-01    0.4549607776E-02    0.2242056645E-01    0.5978565363E+00
    0.3900000000E+04    0.6365737444E+00    0.6003987272E-01    0.4435864848E-02    0.2246014055E-01    0.5989831093E+00
    0.4100000000E+04    0.6375400948E+00    0.6011770215E-01    0.4329947248E-02    0.2249604997E-01    0.6000088390E+00
    0.4300000000E+04    0.6384186795E+00    0.6018777814E-01    0.4231001950E-02    0.2252878872E-01    0.6009470103E+00
    0.4500000000E+04    0.6392209214E+00    0.6025112703E-01    0.4138300370E-02    0.2255876553E-01    0.6018086520E+00
    0.4700000000E+04    0.6399563443E+00    0.6030860397E-01    0.4051215995E-02    0.2258632154E-01    0.6026029989E+00
    0.4900000000E+04    0.6406329526E+00    0.6036092706E-01    0.3969206740E-02    0.2261174371E-01    0.6033378435E+00
    0.1000000000E+04    0.5835620303E+00    0.5542127575E-01    0.8049997828E-02    0.2054834057E-01    0.5471953611E+00
    0.3000000000E+04    0.6306853059E+00    0.5955288131E-01    0.5025709294E-02    0.2224310630E-01    0.5928497160E+00
    0.5000000000E+04    0.6409513601E+00    0.6038534943E-01    0.3929955445E-02    0.2262373208E-01    0.6036850616E+00
    0.7000000000E+04    0.6454354758E+00    0.6071088994E-01    0.3323602037E-02    0.2279474572E-01    0.6086902487E+00
    0.9000000000E+04    0.6479470345E+00    0.6086967333E-01    0.2926216217E-02    0.2289317129E-01    0.6116200038E+00
    0.1100000000E+05    0.6495521826E+00    0.6095525442E-01    0.2640449127E-02    0.2295775892E-01    0.6135638071E+00
    0.1300000000E+05    0.6506661980E+00    0.6100321772E-01    0.2422453959E-02    0.2300375256E-01    0.6149581704E+00
    0.1500000000E+05    0.6514843492E+00    0.6102983107E-01    0.2249206012E-02    0.2303838956E-01    0.6160132820E+00
    0.1700000000E+05    0.6521105341E+00    0.6104348038E-01    0.2107309742E-02    0.2306555741E-01    0.6168433324E+00
    0.1900000000E+05    0.6526051181E+00    0.6104887134E-01    0.1988375496E-02    0.2308753596E-01    0.6175159214E+00
    0.2100000000E+05    0.6530055683E+00    0.6104881655E-01    0.1886847586E-02    0.2310575336E-01    0.6180737314E+00
    0.2300000000E+05    0.6533363686E+00    0.6104508081E-01    0.1798882632E-02    0.2312115143E-01    0.6185451004E+00
    0.2500000000E+05    0.6536141938E+00    0.6103881485E-01    0.1721726479E-02    0.2313437741E-01    0.6189496170E+00
    0.2700000000E+05    0.6538507924E+00    0.6103079254E-01    0.1653347401E-02    0.2314589142E-01    0.6193012768E+00
    0.2900000000E+05    0.6540546804E+00    0.6102154751E-01    0.1592209693E-02    0.2315602997E-01    0.6196103601E+00
    0.3100000000E+05    0.6542321810E+00    0.6101145544E-01    0.1537128297E-02    0.2316504509E-01    0.6198845972E+00
    0.3300000000E+05    0.6543880875E+00    0.6100078527E-01    0.1487172285E-02    0.2317312954E-01    0.6201299194E+00
    0.3500000000E+05    0.6545260996E+00    0.6098973221E-01    0.1441598925E-02    0.2318043337E-01    0.6203509578E+00
    0.3700000000E+05    0.6546491184E+00    0.6097843954E-01    0.1399807499E-02    0.2318707525E-01    0.6205513848E+00
    0.3900000000E+05    0.6547594505E+00    0.6096701329E-01    0.1361306248E-02    0.2319315035E-01    0.6207341519E+00
    0.4100000000E+05    0.6548589529E+00    0.6095553243E-01    0.1325688246E-02    0.2319873594E-01    0.6209016603E+00
    0.4300000000E+05    0.6549491376E+00    0.6094405602E-01    0.1292613499E-02    0.2320389544E-01    0.6210558847E+00
    0.4500000000E+05    0.6550312479E+00    0.6093262826E-01    0.1261795443E-02    0.2320868146E-01    0.6211984651E+00
    0.4700000000E+05    0.6551063156E+00    0.6092128220E-01    0.1232990635E-02    0.2321313800E-01    0.6213307754E+00
    0.4900000000E+05    0.6551752041E+00    0.6091004246E-01    0.1205990758E-02    0.2321730220E-01    0.6214539761E+00
    0.1000000000E+05    0.6488292469E+00    0.6091870964E-01    0.2772820757E-02    0.2292846230E-01    0.6126799984E+00
    0.3000000000E+05    0.6541463996E+00    0.6101658850E-01    0.1563975206E-02    0.2316066474E-01    0.6197514284E+00
    0.5000000000E+05    0.6552075633E+00    0.6090446833E-01    0.1193110611E-02    0.2321928472E-01    0.6215124747E+00
    0.7000000000E+05    0.6556589001E+00    0.6080092486E-01    0.9974214671E-03    0.2324924264E-01    0.6223813347E+00
    0.9000000000E+05    0.6559074955E+00    0.6071253924E-01    0.8722200595E-03    0.2326852708E-01    0.6229209147E+00
    0.1100000000E+06    0.6560642672E+00    0.6063660026E-01    0.7835067794E-03    0.2328246882E-01    0.6232981797E+00
    0.1300000000E+06    0.6561717927E+00    0.6057035741E-01    0.7165122745E-03    0.2329327320E-01    0.6235817768E+00
    0.1500000000E+06    0.6562498946E+00    0.6051173262E-01    0.6636604055E-03    0.2330204005E-01    0.6238056243E+00
    0.1700000000E+06    0.6563090405E+00    0.6045920495E-01    0.6206160256E-03    0.2330938856E-01    0.6239886126E+00
    0.1900000000E+06    0.6563552742E+00    0.6041164986E-01    0.5846976820E-03    0.2331569845E-01    0.6241421930E+00
    0.2100000000E+06    0.6563923266E+00    0.6036821985E-01    0.5541469386E-03    0.2332121788E-01    0.6242737602E+00
    0.2300000000E+06    0.6564226240E+00    0.6032826331E-01    0.5277568523E-03    0.2332611718E-01    0.6243883302E+00
    0.2500000000E+06    0.6564478115E+00    0.6029126978E-01    0.5046681244E-03    0.2333051793E-01    0.6244894417E+00
    0.2700000000E+06    0.6564690434E+00    0.6025683252E-01    0.4842503011E-03    0.2333450976E-01    0.6245796726E+00
    0.2900000000E+06    0.6564871529E+00    0.6022462255E-01    0.4660290577E-03    0.2333816049E-01    0.6246609521E+00
    0.3100000000E+06    0.6565027565E+00    0.6019437021E-01    0.4496398399E-03    0.2334152261E-01    0.6247347566E+00
    0.3300000000E+06    0.6565163197E+00    0.6016585175E-01    0.4347972747E-03    0.2334463753E-01    0.6248022385E+00
    0.3500000000E+06    0.6565282006E+00    0.6013887958E-01    0.4212743835E-03    0.2334753846E-01    0.6248643126E+00
    0.3700000000E+06    0.6565386789E+00    0.6011329490E-01    0.4088880917E-03    0.2335025243E-01    0.6249217155E+00
    0.3900000000E+06    0.6565479763E+00    0.6008896211E-01    0.3974888993E-03    0.2335280170E-01    0.6249750484E+00
    0.4100000000E+06    0.6565562707E+00    0.6006576453E-01    0.3869533711E-03    0.2335520484E-01    0.6250248077E+00
    0.4300000000E+06    0.6565637062E+00    0.6004360102E-01    0.3771785814E-03    0.2335747746E-01    0.6250714071E+00
    0.4500000000E+06    0.6565704013E+00    0.6002238338E-01    0.3680779386E-03    0.2335963284E-01    0.6251151953E+00
    0.4700000000E+06    0.6565764537E+00    0.6000203421E-01    0.3595780026E-03    0.2336168233E-01    0.6251564679E+00
    0.4900000000E+06    0.6565819451E+00    0.5998248523E-01    0.3516160279E-03    0.2336363574E-01    0.6251954781E+00
    0.1000000000E+06    0.6559938979E+00    0.6067320143E-01    0.8244699348E-03    0.2327598982E-01    0.6231243468E+00
    0.3000000000E+06    0.6564952359E+00    0.6020926661E-01    0.4576248562E-03    0.2333987482E-01    0.6246987102E+00
    0.5000000000E+06    0.6565845022E+00    0.5997299163E-01    0.3478196116E-03    0.2336457912E-01    0.6252142041E+00
    0.7000000000E+06    0.6566182256E+00    0.5981348044E-01    0.2902773156E-03    0.2337998556E-01    0.6255099104E+00
    0.9000000000E+06    0.6566344564E+00    0.5969290639E-01    0.2535880497E-03    0.2339118542E-01    0.6257136351E+00
    0.1100000000E+07    0.6566431919E+00    0.5959594248E-01    0.2276457917E-03    0.2339998426E-01    0.6258676482E+00
    0.1300000000E+07    0.6566481356E+00    0.5951484062E-01    0.2080826659E-03    0.2340723020E-01    0.6259908125E+00
    0.1500000000E+07    0.6566509503E+00    0.5944513493E-01    0.1926654043E-03    0.2341338936E-01    0.6260930862E+00
    0.1700000000E+07    0.6566524821E+00    0.5938401512E-01    0.1801190503E-03    0.2341874534E-01    0.6261803326E+00
    0.1900000000E+07    0.6566532008E+00    0.5932959736E-01    0.1696563569E-03    0.2342348355E-01    0.6262562803E+00
    0.2100000000E+07    0.6566533850E+00    0.5928055704E-01    0.1607617628E-03    0.2342773183E-01    0.6263234406E+00
    0.2300000000E+07    0.6566532084E+00    0.5923592718E-01    0.1530817855E-03    0.2343158206E-01    0.6263835813E+00
    0.2500000000E+07    0.6566527836E+00    0.5919498026E-01    0.1463649846E-03    0.2343510247E-01    0.6264379921E+00
    0.2700000000E+07    0.6566521861E+00    0.5915715512E-01    0.1404270215E-03    0.2343834515E-01    0.6264876417E+00
    0.2900000000E+07    0.6566514676E+00    0.5912200983E-01    0.1351292974E-03    0.2344135075E-01    0.6265332749E+00
    0.3100000000E+07    0.6566506646E+00    0.5908919012E-01    0.1303653482E-03    0.2344415159E-01    0.6265754768E+00
    0.3300000000E+07    0.6566498031E+00    0.5905840763E-01    0.1260518743E-03    0.2344677381E-01    0.6266147145E+00
    0.3500000000E+07    0.6566489019E+00    0.5902942451E-01    0.1221226499E-03    0.2344923885E-01    0.6266513671E+00
    0.3700000000E+07    0.6566479749E+00    0.5900204226E-01    0.1185242795E-03    0.2345156449E-01    0.6266857461E+00
    0.3900000000E+07    0.6566470322E+00    0.5897609352E-01    0.1152131748E-03    0.2345376568E-01    0.6267181105E+00
    0.4100000000E+07    0.6566460816E+00    0.5895143588E-01    0.1121533582E-03    0.2345585505E-01    0.6267486780E+00
    0.4300000000E+07    0.6566451287E+00    0.5892794712E-01    0.1093148384E-03    0.2345784345E-01    0.6267776331E+00
    0.4500000000E+07    0.6566441779E+00    0.5890552161E-01    0.1066723900E-03    0.2345974017E-01    0.6268051336E+00
    0.4700000000E+07    0.6566432323E+00    0.5888406742E-01    0.1042046240E-03    0.2346155331E-01    0.6268313156E+00
    0.4900000000E+07    0.6566422944E+00    0.5886350402E-01    0.1018932700E-03    0.2346328994E-01    0.6268562968E+00
    0.1000000000E+07    0.6566394572E+00    0.5964206404E-01    0.2396191849E-03    0.2339581926E-01    0.6257953761E+00
    0.3000000000E+07    0.6566510749E+00    0.5910532864E-01    0.1326862677E-03    0.2344277501E-01    0.6265547732E+00
    0.5000000000E+07    0.6566418290E+00    0.5885353389E-01    0.1007912504E-03    0.2346413152E-01    0.6268683699E+00
    0.7000000000E+07    0.6566331628E+00    0.5868740495E-01    0.8409379172E-04    0.2347812152E-01    0.6270661036E+00
    0.9000000000E+07    0.6566257635E+00    0.5856327256E-01    0.7345286552E-04    0.2348854526E-01    0.6272101487E+00
    0.1100000000E+08    0.6566194156E+00    0.5846415718E-01    0.6593127958E-04    0.2349685739E-01    0.6273232526E+00
    0.1300000000E+08    0.6566138875E+00    0.5838166193E-01    0.6026048659E-04    0.2350377151E-01    0.6274162584E+00
    0.1500000000E+08    0.6566090027E+00    0.5831101463E-01    0.5579219363E-04    0.2350969121E-01    0.6274951730E+00
    0.1700000000E+08    0.6566046320E+00    0.5824924194E-01    0.5215642048E-04    0.2351486710E-01    0.6275636681E+00
    0.1900000000E+08    0.6566006798E+00    0.5819436548E-01    0.4912477442E-04    0.2351946557E-01    0.6276241502E+00
    0.2100000000E+08    0.6565970743E+00    0.5814500225E-01    0.4654771331E-04    0.2352360274E-01    0.6276782812E+00
    0.2300000000E+08    0.6565937601E+00    0.5810014739E-01    0.4432272400E-04    0.2352736286E-01    0.6277272562E+00
    0.2500000000E+08    0.6565906943E+00    0.5805904778E-01    0.4237689651E-04    0.2353080902E-01    0.6277719634E+00
    0.2700000000E+08    0.6565878424E+00    0.5802112446E-01    0.4065678450E-04    0.2353398970E-01    0.6278130802E+00
