  Pressure (Pa) 22mC5-400 (mol/kg) 3mC6-400 (mol/kg) 33mC5-400 (mol/kg) 23mC5-400 (mol/kg) C7-400 (mol/kg)
    0.1000000000E+01    0.5284623751E-02    0.1053006448E-02    0.1933875072E-03    0.9279249716E-04    0.6834919683E-02
    0.3000000000E+01    0.1560121737E-01    0.3086306208E-02    0.5632189275E-03    0.2739451091E-03    0.2003498160E-01
    0.5000000000E+01    0.2559432381E-01    0.5028112815E-02    0.9117569030E-03    0.4494226217E-03    0.3264387864E-01
    0.7000000000E+01    0.3527912223E-01    0.6884470609E-02    0.1240443674E-02    0.6194912529E-03    0.4470060263E-01
    0.9000000000E+01    0.4466985328E-01    0.8660902867E-02    0.1550601763E-02    0.7844007637E-03    0.5624078678E-01
    0.1100000000E+02    0.5377989052E-01    0.1036246676E-01    0.1843445974E-02    0.9443857095E-03    0.6729705976E-01
    0.1300000000E+02    0.6262180536E-01    0.1199380152E-01    0.2120093971E-02    0.1099666579E-02    0.7789935594E-01
    0.1500000000E+02    0.7120742627E-01    0.1355917072E-01    0.2381575630E-02    0.1250450833E-02    0.8807518795E-01
    0.1700000000E+02    0.7954789284E-01    0.1506249956E-01    0.2628841333E-02    0.1396933851E-02    0.9784988679E-01
    0.1900000000E+02    0.8765370520E-01    0.1650740776E-01    0.2862769339E-02    0.1539299799E-02    0.1072468140E+00
    0.2100000000E+02    0.9553476926E-01    0.1789723873E-01    0.3084172347E-02    0.1677722424E-02    0.1162875493E+00
    0.2300000000E+02    0.1032004381E+00    0.1923508546E-01    0.3293803360E-02    0.1812365775E-02    0.1249920576E+00
    0.2500000000E+02    0.1106595502E+00    0.2052381349E-01    0.3492360931E-02    0.1943384878E-02    0.1333788372E+00
    0.2700000000E+02    0.1179204640E+00    0.2176608146E-01    0.3680493867E-02    0.2070926342E-02    0.1414650522E+00
    0.2900000000E+02    0.1249910905E+00    0.2296435948E-01    0.3858805458E-02    0.2195128927E-02    0.1492666503E+00
    0.3100000000E+02    0.1318789224E+00    0.2412094552E-01    0.4027857279E-02    0.2316124060E-02    0.1567984694E+00
    0.3300000000E+02    0.1385910619E+00    0.2523798015E-01    0.4188172629E-02    0.2434036314E-02    0.1640743320E+00
    0.3500000000E+02    0.1451342453E+00    0.2631745982E-01    0.4340239627E-02    0.2548983851E-02    0.1711071307E+00
    0.3700000000E+02    0.1515148667E+00    0.2736124875E-01    0.4484514023E-02    0.2661078829E-02    0.1779089055E+00
    0.3900000000E+02    0.1577389992E+00    0.2837108973E-01    0.4621421742E-02    0.2770427778E-02    0.1844909127E+00
    0.4100000000E+02    0.1638124152E+00    0.2934861385E-01    0.4751361197E-02    0.2877131950E-02    0.1908636880E+00
    0.4300000000E+02    0.1697406043E+00    0.3029534928E-01    0.4874705389E-02    0.2981287643E-02    0.1970371033E+00
    0.4500000000E+02    0.1755287910E+00    0.3121272929E-01    0.4991803824E-02    0.3082986500E-02    0.2030204178E+00
    0.4700000000E+02    0.1811819499E+00    0.3210209952E-01    0.5102984260E-02    0.3182315788E-02    0.2088223253E+00
    0.4900000000E+02    0.1867048212E+00    0.3296472451E-01    0.5208554297E-02    0.3279358657E-02    0.2144509966E+00
    0.1000000000E+02    0.4925915484E-01    0.9520744135E-02    0.1699116088E-02    0.8649947096E-03    0.6182748148E-01
    0.3000000000E+02    0.1284574030E+00    0.2354772668E-01    0.3944455274E-02    0.2256019484E-02    0.1530653956E+00
    0.5000000000E+02    0.1894188195E+00    0.3338638205E-01    0.5259326392E-02    0.3327047601E-02    0.2172027887E+00
    0.7000000000E+02    0.2378523500E+00    0.4066982287E-01    0.6041745662E-02    0.4178220766E-02    0.2647879639E+00
    0.9000000000E+02    0.2772979040E+00    0.4627951627E-01    0.6503373717E-02    0.4871639084E-02    0.3015187284E+00
    0.1100000000E+03    0.3100688812E+00    0.5073314289E-01    0.6764545788E-02    0.5447889991E-02    0.3307439230E+00
    0.1300000000E+03    0.3377424296E+00    0.5435474742E-01    0.6897155063E-02    0.5934646354E-02    0.3545613541E+00
    0.1500000000E+03    0.3614317611E+00    0.5735755274E-01    0.6945826846E-02    0.6351442575E-02    0.3743524233E+00
    0.1700000000E+03    0.3819457493E+00    0.5988761730E-01    0.6939108814E-02    0.6712473931E-02    0.3910641016E+00
    0.1900000000E+03    0.3998867482E+00    0.6204835882E-01    0.6895709005E-02    0.7028312385E-02    0.4053673966E+00
    0.2100000000E+03    0.4157128625E+00    0.6391506233E-01    0.6828126426E-02    0.7306998934E-02    0.4177511432E+00
    0.2300000000E+03    0.4297789009E+00    0.6554384091E-01    0.6744840824E-02    0.7554762028E-02    0.4285799595E+00
    0.2500000000E+03    0.4423640791E+00    0.6697737587E-01    0.6651673655E-02    0.7776503598E-02    0.4381313891E+00
    0.2700000000E+03    0.4536912302E+00    0.6824871053E-01    0.6552655879E-02    0.7976136087E-02    0.4466204603E+00
    0.2900000000E+03    0.4639404179E+00    0.6938382654E-01    0.6450593631E-02    0.8156821306E-02    0.4542163717E+00
    0.3100000000E+03    0.4732587730E+00    0.7040343549E-01    0.6347444112E-02    0.8321143025E-02    0.4610541008E+00
    0.3300000000E+03    0.4817677239E+00    0.7132425126E-01    0.6244569589E-02    0.8471233863E-02    0.4672426515E+00
    0.3500000000E+03    0.4895683960E+00    0.7215991060E-01    0.6142911586E-02    0.8608870026E-02    0.4728710242E+00
    0.3700000000E+03    0.4967456996E+00    0.7292165040E-01    0.6043111898E-02    0.8735543054E-02    0.4780126101E+00
    0.3900000000E+03    0.5033714650E+00    0.7361881363E-01    0.5945597631E-02    0.8852514846E-02    0.4827284750E+00
    0.4100000000E+03    0.5095068754E+00    0.7425923239E-01    0.5850641558E-02    0.8960860354E-02    0.4870698467E+00
    0.4300000000E+03    0.5152043742E+00    0.7484952153E-01    0.5758405336E-02    0.9061501064E-02    0.4910800229E+00
    0.4500000000E+03    0.5205091751E+00    0.7539530643E-01    0.5668970681E-02    0.9155231511E-02    0.4947958513E+00
    0.4700000000E+03    0.5254604697E+00    0.7590140136E-01    0.5582361995E-02    0.9242740459E-02    0.4982488895E+00
    0.4900000000E+03    0.5300923991E+00    0.7637195067E-01    0.5498562885E-02    0.9324627978E-02    0.5014663232E+00
    0.1000000000E+03    0.2944058038E+00    0.4862728129E-01    0.6653703052E-02    0.5172446920E-02    0.3169170565E+00
    0.3000000000E+03    0.4687078286E+00    0.6990694327E-01    0.6399058048E-02    0.8240884981E-02    0.4577226666E+00
    0.5000000000E+03    0.5322980873E+00    0.7659503582E-01    0.5457703691E-02    0.9363630434E-02    0.5029941720E+00
    0.7000000000E+03    0.5652448212E+00    0.7985060740E-01    0.4770020476E-02    0.9947001782E-02    0.5255205242E+00
    0.9000000000E+03    0.5853795269E+00    0.8176615828E-01    0.4270124299E-02    0.1030452965E-01    0.5390667486E+00
    0.1100000000E+04    0.5989500182E+00    0.8302150905E-01    0.3891749659E-02    0.1054617999E-01    0.5481396614E+00
    0.1300000000E+04    0.6087121749E+00    0.8390371896E-01    0.3594428495E-02    0.1072050586E-01    0.5546565997E+00
    0.1500000000E+04    0.6160697239E+00    0.8455484997E-01    0.3353592551E-02    0.1085226201E-01    0.5595734352E+00
    0.1700000000E+04    0.6218125546E+00    0.8505319849E-01    0.3153713782E-02    0.1095539153E-01    0.5634208409E+00
    0.1900000000E+04    0.6264190159E+00    0.8544542929E-01    0.2984543115E-02    0.1103834628E-01    0.5665173953E+00
    0.2100000000E+04    0.6301956431E+00    0.8576106280E-01    0.2839047229E-02    0.1110654751E-01    0.5690660912E+00
    0.2300000000E+04    0.6333478999E+00    0.8601967239E-01    0.2712234743E-02    0.1116363245E-01    0.5712024932E+00
    0.2500000000E+04    0.6360186414E+00    0.8623473925E-01    0.2600460092E-02    0.1121213236E-01    0.5730206442E+00
    0.2700000000E+04    0.6383102607E+00    0.8641584515E-01    0.2500994181E-02    0.1125386329E-01    0.5745878664E+00
    0.2900000000E+04    0.6402980602E+00    0.8656998279E-01    0.2411750028E-02    0.1129016206E-01    0.5759536449E+00
    0.3100000000E+04    0.6420386508E+00    0.8670237171E-01    0.2331101875E-02    0.1132203462E-01    0.5771551825E+00
    0.3300000000E+04    0.6435754095E+00    0.8681698445E-01    0.2257762568E-02    0.1135025249E-01    0.5782209982E+00
    0.3500000000E+04    0.6449421318E+00    0.8691689624E-01    0.2190698367E-02    0.1137541734E-01    0.5791733282E+00
    0.3700000000E+04    0.6461655373E+00    0.8700452341E-01    0.2129068460E-02    0.1139800530E-01    0.5800297708E+00
    0.3900000000E+04    0.6472670289E+00    0.8708178991E-01    0.2072181164E-02    0.1141839813E-01    0.5808044394E+00
    0.4100000000E+04    0.6482639519E+00    0.8715024581E-01    0.2019461667E-02    0.1143690550E-01    0.5815087874E+00
    0.4300000000E+04    0.6491705116E+00    0.8721115328E-01    0.1970427871E-02    0.1145378126E-01    0.5821522087E+00
    0.4500000000E+04    0.6499984533E+00    0.8726554996E-01    0.1924672066E-02    0.1146923551E-01    0.5827424821E+00
    0.4700000000E+04    0.6507575718E+00    0.8731429637E-01    0.1881846823E-02    0.1148344361E-01    0.5832861058E+00
    0.4900000000E+04    0.6514561007E+00    0.8735811178E-01    0.1841654030E-02    0.1149655311E-01    0.5837885512E+00
    0.1000000000E+04    0.5927673642E+00    0.8245345325E-01    0.4068757746E-02    0.1043600095E-01    0.5440096827E+00
    0.3000000000E+04    0.6411962850E+00    0.8663862309E-01    0.2370438691E-02    0.1130659878E-01    0.5765729905E+00
    0.5000000000E+04    0.6517848650E+00    0.8737836344E-01    0.1822462964E-02    0.1150273572E-01    0.5840258103E+00
    0.7000000000E+04    0.6564180207E+00    0.8763105897E-01    0.1529534702E-02    0.1159097102E-01    0.5874365614E+00
    0.9000000000E+04    0.6590162760E+00    0.8773281828E-01    0.1340805408E-02    0.1164179148E-01    0.5894275105E+00
    0.1100000000E+05    0.6606785046E+00    0.8777215183E-01    0.1206468270E-02    0.1167515677E-01    0.5907485893E+00
    0.1300000000E+05    0.6618331503E+00    0.8778144329E-01    0.1104688415E-02    0.1169892520E-01    0.5916978198E+00
    0.1500000000E+05    0.6626818210E+00    0.8777493701E-01    0.1024195780E-02    0.1171682979E-01    0.5924179552E+00
    0.1700000000E+05    0.6633318516E+00    0.8775968591E-01    0.9585118557E-03    0.1173087657E-01    0.5929862754E+00
    0.1900000000E+05    0.6638456363E+00    0.8773947977E-01    0.9036150440E-03    0.1174224239E-01    0.5934484180E+00
    0.2100000000E+05    0.6642619184E+00    0.8771647814E-01    0.8568604078E-03    0.1175166467E-01    0.5938331503E+00
    0.2300000000E+05    0.6646060263E+00    0.8769196550E-01    0.8164281531E-03    0.1175962980E-01    0.5941595506E+00
    0.2500000000E+05    0.6648952161E+00    0.8766672978E-01    0.7810200079E-03    0.1176647214E-01    0.5944407975E+00
    0.2700000000E+05    0.6651416503E+00    0.8764126454E-01    0.7496817778E-03    0.1177242941E-01    0.5946863040E+00
    0.2900000000E+05    0.6653541475E+00    0.8761588273E-01    0.7216944725E-03    0.1177767549E-01    0.5949029835E+00
    0.3100000000E+05    0.6655392578E+00    0.8759078323E-01    0.6965047495E-03    0.1178234063E-01    0.5950960354E+00
    0.3300000000E+05    0.6657019481E+00    0.8756609134E-01    0.6736789350E-03    0.1178652447E-01    0.5952694503E+00
    0.3500000000E+05    0.6658460530E+00    0.8754188404E-01    0.6528717264E-03    0.1179030456E-01    0.5954263457E+00
    0.3700000000E+05    0.6659745800E+00    0.8751820615E-01    0.6338043436E-03    0.1179374227E-01    0.5955691951E+00
    0.3900000000E+05    0.6660899212E+00    0.8749508093E-01    0.6162489335E-03    0.1179688678E-01    0.5956999879E+00
    0.4100000000E+05    0.6661940031E+00    0.8747251708E-01    0.6000172190E-03    0.1179977806E-01    0.5958203437E+00
    0.4300000000E+05    0.6662883943E+00    0.8745051353E-01    0.5849520917E-03    0.1180244890E-01    0.5959315958E+00
    0.4500000000E+05    0.6663743852E+00    0.8742906266E-01    0.5709212868E-03    0.1180492650E-01    0.5960348526E+00
    0.4700000000E+05    0.6664530468E+00    0.8740815253E-01    0.5578125588E-03    0.1180723362E-01    0.5961310433E+00
    0.4900000000E+05    0.6665252758E+00    0.8738776846E-01    0.5455299527E-03    0.1180938948E-01    0.5962209540E+00
    0.1000000000E+05    0.6599296707E+00    0.8775761904E-01    0.1268560565E-02    0.1166002074E-01    0.5901477462E+00
    0.3000000000E+05    0.6654497847E+00    0.8760328848E-01    0.7087793997E-03    0.1178007385E-01    0.5950021897E+00
    0.5000000000E+05    0.6665592190E+00    0.8737776863E-01    0.5396721835E-03    0.1181041588E-01    0.5962637674E+00
    0.7000000000E+05    0.6670339376E+00    0.8720121436E-01    0.4507931828E-03    0.1182592770E-01    0.5969106818E+00
    0.9000000000E+05    0.6672969426E+00    0.8705912146E-01    0.3940352443E-03    0.1183591460E-01    0.5973258303E+00
    0.1100000000E+06    0.6674637656E+00    0.8694077151E-01    0.3538629816E-03    0.1184313531E-01    0.5976243796E+00
    0.1300000000E+06    0.6675788514E+00    0.8683952341E-01    0.3235477826E-03    0.1184873141E-01    0.5978543579E+00
    0.1500000000E+06    0.6676629347E+00    0.8675111803E-01    0.2996445080E-03    0.1185327231E-01    0.5980398249E+00
    0.1700000000E+06    0.6677269866E+00    0.8667269040E-01    0.2801843392E-03    0.1185707863E-01    0.5981943582E+00
    0.1900000000E+06    0.6677773543E+00    0.8660222979E-01    0.2639506362E-03    0.1186034701E-01    0.5983262919E+00
    0.2100000000E+06    0.6678179634E+00    0.8653827398E-01    0.2501461327E-03    0.1186320595E-01    0.5984410725E+00
    0.2300000000E+06    0.6678513722E+00    0.8647972764E-01    0.2382239211E-03    0.1186574367E-01    0.5985424360E+00
    0.2500000000E+06    0.6678793182E+00    0.8642574969E-01    0.2277948059E-03    0.1186802314E-01    0.5986330467E+00
    0.2700000000E+06    0.6679030232E+00    0.8637568050E-01    0.2185733512E-03    0.1187009080E-01    0.5987148650E+00
    0.2900000000E+06    0.6679233708E+00    0.8632899338E-01    0.2103448784E-03    0.1187198176E-01    0.5987893725E+00
    0.3100000000E+06    0.6679410158E+00    0.8628526120E-01    0.2029444368E-03    0.1187372322E-01    0.5988577136E+00
    0.3300000000E+06    0.6679564540E+00    0.8624413279E-01    0.1962429342E-03    0.1187533663E-01    0.5989207892E+00
    0.3500000000E+06    0.6679700670E+00    0.8620531602E-01    0.1901377156E-03    0.1187683919E-01    0.5989793206E+00
    0.3700000000E+06    0.6679821539E+00    0.8616856523E-01    0.1845459976E-03    0.1187824489E-01    0.5990338933E+00
    0.3900000000E+06    0.6679929521E+00    0.8613367193E-01    0.1794001898E-03    0.1187956529E-01    0.5990849890E+00
    0.4100000000E+06    0.6680026522E+00    0.8610045764E-01    0.1746444943E-03    0.1188080998E-01    0.5991330080E+00
    0.4300000000E+06    0.6680114095E+00    0.8606876841E-01    0.1702323902E-03    0.1188198706E-01    0.5991782866E+00
    0.4500000000E+06    0.6680193513E+00    0.8603847050E-01    0.1661247442E-03    0.1188310340E-01    0.5992211101E+00
    0.4700000000E+06    0.6680265831E+00    0.8600944705E-01    0.1622883700E-03    0.1188416490E-01    0.5992617219E+00
    0.4900000000E+06    0.6680331933E+00    0.8598159530E-01    0.1586949170E-03    0.1188517662E-01    0.5993003319E+00
    0.1000000000E+06    0.6673887656E+00    0.8699746553E-01    0.3724081207E-03    0.1183977965E-01    0.5974858534E+00
    0.3000000000E+06    0.6679324970E+00    0.8630678142E-01    0.2065499350E-03    0.1187286973E-01    0.5988242527E+00
    0.5000000000E+06    0.6680362889E+00    0.8596808001E-01    0.1569815309E-03    0.1188566522E-01    0.5993189439E+00
    0.7000000000E+06    0.6680786477E+00    0.8574190380E-01    0.1310144533E-03    0.1189364429E-01    0.5996197642E+00
    0.9000000000E+06    0.6681009889E+00    0.8557189500E-01    0.1144598713E-03    0.1189944437E-01    0.5998348171E+00
    0.1100000000E+07    0.6681144408E+00    0.8543565613E-01    0.1027551396E-03    0.1190400081E-01    0.6000017165E+00
    0.1300000000E+07    0.6681232200E+00    0.8532198229E-01    0.9392880233E-04    0.1190775292E-01    0.6001378677E+00
    0.1500000000E+07    0.6681292642E+00    0.8522445860E-01    0.8697302940E-04    0.1191094215E-01    0.6002527212E+00
    0.1700000000E+07    0.6681335836E+00    0.8513906763E-01    0.8131251770E-04    0.1191371542E-01    0.6003519694E+00
    0.1900000000E+07    0.6681367536E+00    0.8506312612E-01    0.7659206023E-04    0.1191616874E-01    0.6004393016E+00
    0.2100000000E+07    0.6681391248E+00    0.8499475270E-01    0.7257904640E-04    0.1191836833E-01    0.6005172431E+00
    0.2300000000E+07    0.6681409219E+00    0.8493257717E-01    0.6911399787E-04    0.1192036179E-01    0.6005875966E+00
    0.2500000000E+07    0.6681422953E+00    0.8487557059E-01    0.6608347684E-04    0.1192218445E-01    0.6006516937E+00
    0.2700000000E+07    0.6681433489E+00    0.8482294065E-01    0.6340432012E-04    0.1192386329E-01    0.6007105453E+00
    0.2900000000E+07    0.6681441567E+00    0.8477406422E-01    0.6101400065E-04    0.1192541936E-01    0.6007649365E+00
    0.3100000000E+07    0.6681447725E+00    0.8472844239E-01    0.5886448888E-04    0.1192686939E-01    0.6008154894E+00
    0.3300000000E+07    0.6681452365E+00    0.8468566952E-01    0.5691820583E-04    0.1192822694E-01    0.6008627048E+00
    0.3500000000E+07    0.6681455789E+00    0.8464541132E-01    0.5514527511E-04    0.1192950309E-01    0.6009069920E+00
    0.3700000000E+07    0.6681458230E+00    0.8460738909E-01    0.5352160849E-04    0.1193070706E-01    0.6009486896E+00
    0.3900000000E+07    0.6681459871E+00    0.8457136798E-01    0.5202754209E-04    0.1193184659E-01    0.6009880809E+00
    0.4100000000E+07    0.6681460855E+00    0.8453714831E-01    0.5064684541E-04    0.1193292823E-01    0.6010254055E+00
    0.4300000000E+07    0.6681461295E+00    0.8450455884E-01    0.4936598849E-04    0.1193395757E-01    0.6010608674E+00
    0.4500000000E+07    0.6681461285E+00    0.8447345163E-01    0.4817359141E-04    0.1193493945E-01    0.6010946421E+00
    0.4700000000E+07    0.6681460898E+00    0.8444369801E-01    0.4706000487E-04    0.1193587806E-01    0.6011268814E+00
    0.4900000000E+07    0.6681460196E+00    0.8441518533E-01    0.4601698650E-04    0.1193677705E-01    0.6011577177E+00
    0.1000000000E+07    0.6681084821E+00    0.8550041075E-01    0.1081572883E-03    0.1190184401E-01    0.5999229325E+00
    0.3000000000E+07    0.6681444858E+00    0.8475087373E-01    0.5991170026E-04    0.1192615672E-01    0.6007906590E+00
    0.5000000000E+07    0.6681459742E+00    0.8440136290E-01    0.4551968600E-04    0.1193721270E-01    0.6011726466E+00
    0.7000000000E+07    0.6681442644E+00    0.8417121088E-01    0.3798432339E-04    0.1194445450E-01    0.6014194670E+00
    0.9000000000E+07    0.6681420177E+00    0.8399941683E-01    0.3318170633E-04    0.1194984993E-01    0.6016018294E+00
    0.1100000000E+08    0.6681397630E+00    0.8386233426E-01    0.2978666401E-04    0.1195415218E-01    0.6017463885E+00
    0.1300000000E+08    0.6681376304E+00    0.8374828977E-01    0.2722683246E-04    0.1195773070E-01    0.6018660913E+00
    0.1500000000E+08    0.6681356466E+00    0.8365065684E-01    0.2520968802E-04    0.1196079445E-01    0.6019682065E+00
    0.1700000000E+08    0.6681338082E+00    0.8356531029E-01    0.2356827920E-04    0.1196347316E-01    0.6020572232E+00
    0.1900000000E+08    0.6681321027E+00    0.8348950719E-01    0.2219954031E-04    0.1196585299E-01    0.6021361073E+00
    0.2100000000E+08    0.6681305161E+00    0.8342133105E-01    0.2103598530E-04    0.1196799403E-01    0.6022069210E+00
    0.2300000000E+08    0.6681290351E+00    0.8335938998E-01    0.2003134977E-04    0.1196993990E-01    0.6022711557E+00
    0.2500000000E+08    0.6681276479E+00    0.8330264121E-01    0.1915272810E-04    0.1197172327E-01    0.6023299249E+00
    0.2700000000E+08    0.6681263441E+00    0.8325028331E-01    0.1837599815E-04    0.1197336922E-01    0.6023840818E+00
