  Pressure (Pa) 22mC5-400 (mol/kg) 3mC6-400 (mol/kg) 33mC5-400 (mol/kg) 23mC5-400 (mol/kg) C7-400 (mol/kg)
    0.1000000000E+01    0.5283903536E-02    0.5269111412E-03    0.1934913650E-03    0.1855597248E-03    0.6840189203E-02
    0.3000000000E+01    0.1559494337E-01    0.1546662480E-02    0.5641077692E-03    0.5476700864E-03    0.2008031928E-01
    0.5000000000E+01    0.2557744610E-01    0.2523384133E-02    0.9141073120E-03    0.8982530605E-03    0.3276439196E-01
    0.7000000000E+01    0.3524706945E-01    0.3459745632E-02    0.1244833827E-02    0.1237857870E-02    0.4492684985E-01
    0.9000000000E+01    0.4461848818E-01    0.4358200109E-02    0.1557524671E-02    0.1566999263E-02    0.5659934574E-01
    0.1100000000E+02    0.5370547000E-01    0.5221005786E-02    0.1853320830E-02    0.1886160177E-02    0.6781101961E-01
    0.1300000000E+02    0.6252094449E-01    0.6050244955E-02    0.2133275904E-02    0.2195794154E-02    0.7858874315E-01
    0.1500000000E+02    0.7107706594E-01    0.6847840781E-02    0.2398364109E-02    0.2496327544E-02    0.8895733632E-01
    0.1700000000E+02    0.7938527054E-01    0.7615572223E-02    0.2649487413E-02    0.2788161511E-02    0.9893975961E-01
    0.1900000000E+02    0.8745632863E-01    0.8355087295E-02    0.2887481932E-02    0.3071673867E-02    0.1085572850E+00
    0.2100000000E+02    0.9530039248E-01    0.9067914901E-02    0.3113123654E-02    0.3347220745E-02    0.1178296483E+00
    0.2300000000E+02    0.1029270400E+00    0.9755475404E-02    0.3327133585E-02    0.3615138133E-02    0.1267751857E+00
    0.2500000000E+02    0.1103453147E+00    0.1041909009E-01    0.3530182382E-02    0.3875743279E-02    0.1354109554E+00
    0.2700000000E+02    0.1175637626E+00    0.1105998967E-01    0.3722894521E-02    0.4129335978E-02    0.1437528475E+00
    0.2900000000E+02    0.1245904661E+00    0.1167932187E-01    0.3905852075E-02    0.4376199760E-02    0.1518156818E+00
    0.3100000000E+02    0.1314330745E+00    0.1227815838E-01    0.4079598122E-02    0.4616602977E-02    0.1596132970E+00
    0.3300000000E+02    0.1380988333E+00    0.1285750099E-01    0.4244639836E-02    0.4850799806E-02    0.1671586301E+00
    0.3500000000E+02    0.1445946102E+00    0.1341828720E-01    0.4401451292E-02    0.5079031176E-02    0.1744637892E+00
    0.3700000000E+02    0.1509269193E+00    0.1396139536E-01    0.4550476021E-02    0.5301525617E-02    0.1815401185E+00
    0.3900000000E+02    0.1571019440E+00    0.1448764916E-01    0.4692129327E-02    0.5518500052E-02    0.1883982578E+00
    0.4100000000E+02    0.1631255574E+00    0.1499782193E-01    0.4826800404E-02    0.5730160526E-02    0.1950481963E+00
    0.4300000000E+02    0.1690033415E+00    0.1549264032E-01    0.4954854271E-02    0.5936702877E-02    0.2014993216E+00
    0.4500000000E+02    0.1747406057E+00    0.1597278787E-01    0.5076633535E-02    0.6138313366E-02    0.2077604646E+00
    0.4700000000E+02    0.1803424022E+00    0.1643890810E-01    0.5192460011E-02    0.6335169253E-02    0.2138399396E+00
    0.4900000000E+02    0.1858135426E+00    0.1689160741E-01    0.5302636196E-02    0.6527439338E-02    0.2197455823E+00
    0.1000000000E+02    0.4919670673E-01    0.4793924988E-02    0.1707466786E-02    0.1727798272E-02    0.6226105545E-01
    0.3000000000E+02    0.1280343202E+00    0.1198123791E-01    0.3993844032E-02    0.4497192732E-02    0.1557468130E+00
    0.5000000000E+02    0.1885015578E+00    0.1711310423E-01    0.5355695018E-02    0.6621905265E-02    0.2226355426E+00
    0.7000000000E+02    0.2364092555E+00    0.2096142100E-01    0.6181008330E-02    0.8305794337E-02    0.2728979456E+00
    0.9000000000E+02    0.2753398139E+00    0.2395445606E-01    0.6679449712E-02    0.9674551517E-02    0.3120699766E+00
    0.1100000000E+03    0.3076238145E+00    0.2634893837E-01    0.6971579594E-02    0.1080995505E-01    0.3434725604E+00
    0.1300000000E+03    0.3348443131E+00    0.2830814112E-01    0.7130064590E-02    0.1176755842E-01    0.3692192034E+00
    0.1500000000E+03    0.3581153209E+00    0.2994086971E-01    0.7200350380E-02    0.1258645883E-01    0.3907193300E+00
    0.1700000000E+03    0.3782442392E+00    0.3132243293E-01    0.7211711134E-02    0.1329499547E-01    0.4089491385E+00
    0.1900000000E+03    0.3958310224E+00    0.3250661632E-01    0.7183461498E-02    0.1391422832E-01    0.4246063118E+00
    0.2100000000E+03    0.4113310945E+00    0.3353286155E-01    0.7128596361E-02    0.1446014548E-01    0.4382028223E+00
    0.2300000000E+03    0.4250966074E+00    0.3443075118E-01    0.7055998359E-02    0.1494511079E-01    0.4501229301E+00
    0.2500000000E+03    0.4374042826E+00    0.3522290937E-01    0.6971816502E-02    0.1537884069E-01    0.4606607115E+00
    0.2700000000E+03    0.4484746752E+00    0.3592693519E-01    0.6880349060E-02    0.1576908024E-01    0.4700450812E+00
    0.2900000000E+03    0.4584857991E+00    0.3655672506E-01    0.6784621460E-02    0.1612208119E-01    0.4784569162E+00
    0.3100000000E+03    0.4675829557E+00    0.3712339828E-01    0.6686771844E-02    0.1644294697E-01    0.4860410453E+00
    0.3300000000E+03    0.4758859475E+00    0.3763595815E-01    0.6588312657E-02    0.1673588579E-01    0.4929148160E+00
    0.3500000000E+03    0.4834944572E+00    0.3810177269E-01    0.6490310786E-02    0.1700439949E-01    0.4991743270E+00
    0.3700000000E+03    0.4904921151E+00    0.3852692996E-01    0.6393513255E-02    0.1725142625E-01    0.5048990373E+00
    0.3900000000E+03    0.4969496156E+00    0.3891650458E-01    0.6298435956E-02    0.1747945003E-01    0.5101552236E+00
    0.4100000000E+03    0.5029271318E+00    0.3927476028E-01    0.6205426944E-02    0.1769058531E-01    0.5149986097E+00
    0.4300000000E+03    0.5084762075E+00    0.3960530573E-01    0.6114712002E-02    0.1788664353E-01    0.5194763903E+00
    0.4500000000E+03    0.5136412544E+00    0.3991121571E-01    0.6026427695E-02    0.1806918558E-01    0.5236288052E+00
    0.4700000000E+03    0.5184607463E+00    0.4019512642E-01    0.5940645539E-02    0.1823956385E-01    0.5274903773E+00
    0.4900000000E+03    0.5229681814E+00    0.4045931095E-01    0.5857389750E-02    0.1839895591E-01    0.5310908952E+00
    0.1000000000E+03    0.2922001849E+00    0.2521469870E-01    0.6845945759E-02    0.1026747649E-01    0.3285895088E+00
    0.3000000000E+03    0.4631406085E+00    0.3684734530E-01    0.6735855141E-02    0.1628624946E-01    0.4823445481E+00
    0.5000000000E+03    0.5251141804E+00    0.4058463209E-01    0.5816707181E-02    0.1847485916E-01    0.5328014698E+00
    0.7000000000E+03    0.5571379682E+00    0.4241891265E-01    0.5124094800E-02    0.1960908274E-01    0.5580802823E+00
    0.9000000000E+03    0.5766794898E+00    0.4350310799E-01    0.4612025400E-02    0.2030320863E-01    0.5733298456E+00
    0.1100000000E+04    0.5898376004E+00    0.4421574211E-01    0.4219886597E-02    0.2077193845E-01    0.5835598942E+00
    0.1300000000E+04    0.5992967820E+00    0.4471762110E-01    0.3909046979E-02    0.2110986998E-01    0.5909136307E+00
    0.1500000000E+04    0.6064224462E+00    0.4508864809E-01    0.3655537171E-02    0.2136516598E-01    0.5964633472E+00
    0.1700000000E+04    0.6119821348E+00    0.4537299029E-01    0.3443982797E-02    0.2156492675E-01    0.6008058160E+00
    0.1900000000E+04    0.6164403046E+00    0.4559703049E-01    0.3264121974E-02    0.2172556721E-01    0.6042999345E+00
    0.2100000000E+04    0.6200944087E+00    0.4577748840E-01    0.3108848837E-02    0.2185761019E-01    0.6071746887E+00
    0.2300000000E+04    0.6231437274E+00    0.4592546615E-01    0.2973082531E-02    0.2196811235E-01    0.6095831552E+00
    0.2500000000E+04    0.6257267611E+00    0.4604861975E-01    0.2853088364E-02    0.2206198279E-01    0.6116316072E+00
    0.2700000000E+04    0.6279427491E+00    0.4615239639E-01    0.2746055037E-02    0.2214274244E-01    0.6133961671E+00
    0.2900000000E+04    0.6298646538E+00    0.4624077500E-01    0.2649822299E-02    0.2221298242E-01    0.6149328138E+00
    0.3100000000E+04    0.6315473135E+00    0.4631672794E-01    0.2562700126E-02    0.2227465207E-01    0.6162836467E+00
    0.3300000000E+04    0.6330327384E+00    0.4638251906E-01    0.2483345394E-02    0.2232924618E-01    0.6174809467E+00
    0.3500000000E+04    0.6343536529E+00    0.4643990194E-01    0.2410675738E-02    0.2237793025E-01    0.6185498876E+00
    0.3700000000E+04    0.6355359254E+00    0.4649025525E-01    0.2343808097E-02    0.2242162648E-01    0.6195103952E+00
    0.3900000000E+04    0.6366002740E+00    0.4653467730E-01    0.2282014015E-02    0.2246107418E-01    0.6203784508E+00
    0.4100000000E+04    0.6375634868E+00    0.4657405338E-01    0.2224686590E-02    0.2249687299E-01    0.6211670238E+00
    0.4300000000E+04    0.6384393114E+00    0.4660910468E-01    0.2171315637E-02    0.2252951440E-01    0.6218867514E+00
    0.4500000000E+04    0.6392391127E+00    0.4664042435E-01    0.2121468777E-02    0.2255940515E-01    0.6225464419E+00
    0.4700000000E+04    0.6399723681E+00    0.4666850446E-01    0.2074776847E-02    0.2258688471E-01    0.6231534527E+00
    0.4900000000E+04    0.6406470431E+00    0.4669375647E-01    0.2030922513E-02    0.2261223868E-01    0.6237139784E+00
    0.1000000000E+04    0.5838440876E+00    0.4389305491E-01    0.4403815979E-02    0.2055826593E-01    0.5789018274E+00
    0.3000000000E+04    0.6307330111E+00    0.4628014928E-01    0.2605213314E-02    0.2224478616E-01    0.6156292462E+00
    0.5000000000E+04    0.6409645615E+00    0.4670543243E-01    0.2009972201E-02    0.2262419567E-01    0.6239784826E+00
    0.7000000000E+04    0.6454377119E+00    0.4685147585E-01    0.1689360447E-02    0.2279482219E-01    0.6277645067E+00
    0.9000000000E+04    0.6479445933E+00    0.4691071841E-01    0.1482041906E-02    0.2289308234E-01    0.6299542127E+00
    0.1100000000E+05    0.6495474214E+00    0.4693397297E-01    0.1334159669E-02    0.2295758774E-01    0.6313941971E+00
    0.1300000000E+05    0.6506601840E+00    0.4693986580E-01    0.1221963118E-02    0.2300353683E-01    0.6324199481E+00
    0.1500000000E+05    0.6514776274E+00    0.4693660323E-01    0.1133147418E-02    0.2303814856E-01    0.6331916795E+00
    0.1700000000E+05    0.6521034068E+00    0.4692825486E-01    0.1060620939E-02    0.2306530184E-01    0.6337958549E+00
    0.1900000000E+05    0.6525977631E+00    0.4691701096E-01    0.9999731632E-03    0.2308727212E-01    0.6342833755E+00
    0.2100000000E+05    0.6529980950E+00    0.4690412182E-01    0.9482991920E-03    0.2310548513E-01    0.6346862265E+00
    0.2300000000E+05    0.6533288462E+00    0.4689033255E-01    0.9035981108E-03    0.2312088127E-01    0.6350255544E+00
    0.2500000000E+05    0.6536066671E+00    0.4687610129E-01    0.8644411345E-03    0.2313410692E-01    0.6353159218E+00
    0.2700000000E+05    0.6538432911E+00    0.4686171585E-01    0.8297773608E-03    0.2314562166E-01    0.6355676982E+00
    0.2900000000E+05    0.6540472238E+00    0.4684735932E-01    0.7988144361E-03    0.2315576162E-01    0.6357884769E+00
    0.3100000000E+05    0.6542247820E+00    0.4683314864E-01    0.7709422362E-03    0.2316477863E-01    0.6359839515E+00
    0.3300000000E+05    0.6543807546E+00    0.4681915796E-01    0.7456823699E-03    0.2317286527E-01    0.6361584793E+00
    0.3500000000E+05    0.6545188380E+00    0.4680543325E-01    0.7226537814E-03    0.2318017148E-01    0.6363154542E+00
    0.3700000000E+05    0.6546419311E+00    0.4679200174E-01    0.7015487211E-03    0.2318681586E-01    0.6364575613E+00
    0.3900000000E+05    0.6547523391E+00    0.4677887801E-01    0.6821155839E-03    0.2319289353E-01    0.6365869542E+00
    0.4100000000E+05    0.6548519179E+00    0.4676606809E-01    0.6641464114E-03    0.2319848170E-01    0.6367053815E+00
    0.4300000000E+05    0.6549421788E+00    0.4675357226E-01    0.6474676316E-03    0.2320364378E-01    0.6368142784E+00
    0.4500000000E+05    0.6550243646E+00    0.4674138689E-01    0.6319330892E-03    0.2320843235E-01    0.6369148349E+00
    0.4700000000E+05    0.6550995066E+00    0.4672950578E-01    0.6174187271E-03    0.2321289141E-01    0.6370080461E+00
    0.4900000000E+05    0.6551684681E+00    0.4671792105E-01    0.6038184754E-03    0.2321705808E-01    0.6370947512E+00
    0.1000000000E+05    0.6488254598E+00    0.4692530957E-01    0.1402542903E-02    0.2292832566E-01    0.6307408395E+00
    0.3000000000E+05    0.6541389706E+00    0.4684023032E-01    0.7845245178E-03    0.2316039730E-01    0.6358890787E+00
    0.5000000000E+05    0.6552008631E+00    0.4671223708E-01    0.5973321069E-03    0.2321904182E-01    0.6371358912E+00
    0.7000000000E+05    0.6556528291E+00    0.4661181243E-01    0.4989028268E-03    0.2324902113E-01    0.6377447192E+00
    0.9000000000E+05    0.6559019047E+00    0.4653092392E-01    0.4360376725E-03    0.2326832185E-01    0.6381208921E+00
    0.1100000000E+06    0.6560590513E+00    0.4646352422E-01    0.3915413778E-03    0.2328227627E-01    0.6383832136E+00
    0.1300000000E+06    0.6561668783E+00    0.4640585065E-01    0.3579634079E-03    0.2329309081E-01    0.6385801541E+00
    0.1500000000E+06    0.6562452293E+00    0.4635548553E-01    0.3314881705E-03    0.2330186601E-01    0.6387355313E+00
    0.1700000000E+06    0.6563045853E+00    0.4631080080E-01    0.3099348726E-03    0.2330922154E-01    0.6388625550E+00
    0.1900000000E+06    0.6563509994E+00    0.4627065302E-01    0.2919557845E-03    0.2331553744E-01    0.6389692075E+00
    0.2100000000E+06    0.6563882088E+00    0.4623421027E-01    0.2766676985E-03    0.2332106207E-01    0.6390606304E+00
    0.2300000000E+06    0.6564186446E+00    0.4620084915E-01    0.2634647386E-03    0.2332596593E-01    0.6391403043E+00
    0.2500000000E+06    0.6564439554E+00    0.4617009083E-01    0.2519157408E-03    0.2333037074E-01    0.6392106808E+00
    0.2700000000E+06    0.6564652979E+00    0.4614155969E-01    0.2417044885E-03    0.2333436619E-01    0.6392735435E+00
    0.2900000000E+06    0.6564835076E+00    0.4611495578E-01    0.2325931538E-03    0.2333802018E-01    0.6393302257E+00
    0.3100000000E+06    0.6564992024E+00    0.4609003579E-01    0.2243990000E-03    0.2334138526E-01    0.6393817473E+00
    0.3300000000E+06    0.6565128492E+00    0.4606659969E-01    0.2169790174E-03    0.2334450288E-01    0.6394289035E+00
    0.3500000000E+06    0.6565248069E+00    0.4604448102E-01    0.2102194849E-03    0.2334740629E-01    0.6394723252E+00
    0.3700000000E+06    0.6565353564E+00    0.4602353984E-01    0.2040286966E-03    0.2335012254E-01    0.6395125206E+00
    0.3900000000E+06    0.6565447198E+00    0.4600365732E-01    0.1983317782E-03    0.2335267393E-01    0.6395499040E+00
    0.4100000000E+06    0.6565530756E+00    0.4598473178E-01    0.1930669197E-03    0.2335507902E-01    0.6395848174E+00
    0.4300000000E+06    0.6565605687E+00    0.4596667547E-01    0.1881825888E-03    0.2335735347E-01    0.6396175461E+00
    0.4500000000E+06    0.6565673177E+00    0.4594941219E-01    0.1836354373E-03    0.2335951055E-01    0.6396483303E+00
    0.4700000000E+06    0.6565734209E+00    0.4593287532E-01    0.1793887051E-03    0.2336156164E-01    0.6396773737E+00
    0.4900000000E+06    0.6565789601E+00    0.4591700631E-01    0.1754109891E-03    0.2336351655E-01    0.6397048508E+00
    0.1000000000E+06    0.6559885054E+00    0.4649581363E-01    0.4120826948E-03    0.2327579131E-01    0.6382624016E+00
    0.3000000000E+06    0.6564916372E+00    0.4610229868E-01    0.2283911573E-03    0.2333973602E-01    0.6393565774E+00
    0.5000000000E+06    0.6565815401E+00    0.4590930584E-01    0.1735144224E-03    0.2336446064E-01    0.6397180497E+00
    0.7000000000E+06    0.6566156198E+00    0.4578044984E-01    0.1447745627E-03    0.2337987804E-01    0.6399273472E+00
    0.9000000000E+06    0.6566320874E+00    0.4568360827E-01    0.1264561178E-03    0.2339108490E-01    0.6400726204E+00
    0.1100000000E+07    0.6566409955E+00    0.4560601380E-01    0.1135064367E-03    0.2339988868E-01    0.6401831073E+00
    0.1300000000E+07    0.6566460725E+00    0.4554127926E-01    0.1037426657E-03    0.2340713831E-01    0.6402719029E+00
    0.1500000000E+07    0.6566489944E+00    0.4548574806E-01    0.9604904743E-04    0.2341330032E-01    0.6403459458E+00
    0.1700000000E+07    0.6566506148E+00    0.4543713030E-01    0.8978874067E-04    0.2341865859E-01    0.6404093358E+00
    0.1900000000E+07    0.6566514086E+00    0.4539389661E-01    0.8456858137E-04    0.2342339866E-01    0.6404646885E+00
    0.2100000000E+07    0.6566516574E+00    0.4535497475E-01    0.8013112482E-04    0.2342764849E-01    0.6405137707E+00
    0.2300000000E+07    0.6566515372E+00    0.4531958382E-01    0.7629988029E-04    0.2343150002E-01    0.6405578299E+00
    0.2500000000E+07    0.6566511623E+00    0.4528713747E-01    0.7294931798E-04    0.2343502155E-01    0.6405977785E+00
    0.2700000000E+07    0.6566506092E+00    0.4525718419E-01    0.6998741595E-04    0.2343826519E-01    0.6406343031E+00
    0.2900000000E+07    0.6566499308E+00    0.4522936891E-01    0.6734499083E-04    0.2344127161E-01    0.6406679334E+00
    0.3100000000E+07    0.6566491641E+00    0.4520340736E-01    0.6496890314E-04    0.2344407318E-01    0.6406990859E+00
    0.3300000000E+07    0.6566483356E+00    0.4517906841E-01    0.6281757805E-04    0.2344669603E-01    0.6407280939E+00
    0.3500000000E+07    0.6566474648E+00    0.4515616161E-01    0.6085796399E-04    0.2344916163E-01    0.6407552286E+00
    0.3700000000E+07    0.6566465657E+00    0.4513452816E-01    0.5906341397E-04    0.2345148776E-01    0.6407807129E+00
    0.3900000000E+07    0.6566456490E+00    0.4511403428E-01    0.5741217629E-04    0.2345368938E-01    0.6408047328E+00
    0.4100000000E+07    0.6566447225E+00    0.4509456622E-01    0.5588629795E-04    0.2345577915E-01    0.6408274444E+00
    0.4300000000E+07    0.6566437920E+00    0.4507602642E-01    0.5447081368E-04    0.2345776789E-01    0.6408489807E+00
    0.4500000000E+07    0.6566428622E+00    0.4505833061E-01    0.5315313682E-04    0.2345966492E-01    0.6408694552E+00
    0.4700000000E+07    0.6566419363E+00    0.4504140550E-01    0.5192259526E-04    0.2346147834E-01    0.6408889662E+00
    0.4900000000E+07    0.6566410170E+00    0.4502518693E-01    0.5077007326E-04    0.2346321521E-01    0.6409075987E+00
    0.1000000000E+07    0.6566371805E+00    0.4564289334E-01    0.1194829315E-03    0.2339572141E-01    0.6401311861E+00
    0.3000000000E+07    0.6566495566E+00    0.4521617194E-01    0.6612648315E-04    0.2344269624E-01    0.6406837969E+00
    0.5000000000E+07    0.6566405604E+00    0.4501732468E-01    0.5022057641E-04    0.2346405691E-01    0.6409166092E+00
    0.7000000000E+07    0.6566320311E+00    0.4488643522E-01    0.4189548371E-04    0.2347804820E-01    0.6410646948E+00
    0.9000000000E+07    0.6566247215E+00    0.4478876171E-01    0.3659082216E-04    0.2348847220E-01    0.6411731477E+00
    0.1100000000E+08    0.6566184385E+00    0.4471084046E-01    0.3284157524E-04    0.2349678411E-01    0.6412586198E+00
    0.1300000000E+08    0.6566129601E+00    0.4464602631E-01    0.3001510480E-04    0.2350369778E-01    0.6413290981E+00
    0.1500000000E+08    0.6566081150E+00    0.4459054773E-01    0.2778813378E-04    0.2350961687E-01    0.6413890279E+00
    0.1700000000E+08    0.6566037769E+00    0.4454205718E-01    0.2597618324E-04    0.2351479209E-01    0.6414411363E+00
    0.1900000000E+08    0.6565998521E+00    0.4449899393E-01    0.2446538005E-04    0.2351938984E-01    0.6414872161E+00
    0.2100000000E+08    0.6565962701E+00    0.4446026761E-01    0.2318116899E-04    0.2352352627E-01    0.6415285084E+00
    0.2300000000E+08    0.6565929763E+00    0.4442508640E-01    0.2207244399E-04    0.2352728563E-01    0.6415659078E+00
    0.2500000000E+08    0.6565899284E+00    0.4439285714E-01    0.2110285866E-04    0.2353073104E-01    0.6416000800E+00
    0.2700000000E+08    0.6565870924E+00    0.4436312399E-01    0.2024577047E-04    0.2353391096E-01    0.6416315341E+00
