  Pressure (Pa) 22mC5-400 (mol/kg) 3mC6-400 (mol/kg) 33mC5-400 (mol/kg) 23mC5-400 (mol/kg) C7-400 (mol/kg)
    0.1000000000E+01    0.5283137626E-02    0.1055808675E-02    0.6458809746E-04    0.3710657242E-03    0.5139765244E-02
    0.3000000000E+01    0.1558821893E-01    0.3110499237E-02    0.1888191637E-03    0.1094868476E-02    0.1514344769E-01
    0.5000000000E+01    0.2555921703E-01    0.5092634147E-02    0.3067854255E-03    0.1795227395E-02    0.2479552486E-01
    0.7000000000E+01    0.3521218745E-01    0.7005985933E-02    0.4188565322E-03    0.2473268820E-02    0.3411424986E-01
    0.9000000000E+01    0.4456217190E-01    0.8854070105E-02    0.5253759654E-03    0.3130047977E-02    0.4311663320E-01
    0.1100000000E+02    0.5362327702E-01    0.1064016667E-01    0.6266632273E-03    0.3766554502E-02    0.5181854682E-01
    0.1300000000E+02    0.6240874590E-01    0.1236733954E-01    0.7230158157E-03    0.4383717461E-02    0.6023481773E-01
    0.1500000000E+02    0.7093102316E-01    0.1403845400E-01    0.8147110124E-03    0.4982409912E-02    0.6837931271E-01
    0.1700000000E+02    0.7920181422E-01    0.1565619260E-01    0.9020075010E-03    0.5563453062E-02    0.7626501473E-01
    0.1900000000E+02    0.8723213938E-01    0.1722306943E-01    0.9851468366E-03    0.6127620060E-02    0.8390409233E-01
    0.2100000000E+02    0.9503238321E-01    0.1874144319E-01    0.1064354780E-02    0.6675639463E-02    0.9130796248E-01
    0.2300000000E+02    0.1026123398E+00    0.2021352898E-01    0.1139842512E-02    0.7208198405E-02    0.9848734774E-01
    0.2500000000E+02    0.1099812539E+00    0.2164140908E-01    0.1211807739E-02    0.7725945497E-02    0.1054523283E+00
    0.2700000000E+02    0.1171478595E+00    0.2302704274E-01    0.1280435704E-02    0.8229493496E-02    0.1122123893E+00
    0.2900000000E+02    0.1241204137E+00    0.2437227515E-01    0.1345900107E-02    0.8719421744E-02    0.1187764641E+00
    0.3100000000E+02    0.1309067299E+00    0.2567884559E-01    0.1408363948E-02    0.9196278418E-02    0.1251529742E+00
    0.3300000000E+02    0.1375142063E+00    0.2694839498E-01    0.1467980301E-02    0.9660582600E-02    0.1313498647E+00
    0.3500000000E+02    0.1439498536E+00    0.2818247266E-01    0.1524893021E-02    0.1011282618E-01    0.1373746383E+00
    0.3700000000E+02    0.1502203200E+00    0.2938254274E-01    0.1579237390E-02    0.1055347561E-01    0.1432343849E+00
    0.3900000000E+02    0.1563319144E+00    0.3054998988E-01    0.1631140721E-02    0.1098297355E-01    0.1489358103E+00
    0.4100000000E+02    0.1622906274E+00    0.3168612458E-01    0.1680722901E-02    0.1140174033E-01    0.1544852615E+00
    0.4300000000E+02    0.1681021517E+00    0.3279218809E-01    0.1728096898E-02    0.1181017537E-01    0.1598887504E+00
    0.4500000000E+02    0.1737719000E+00    0.3386935693E-01    0.1773369228E-02    0.1220865847E-01    0.1651519757E+00
    0.4700000000E+02    0.1793050221E+00    0.3491874706E-01    0.1816640386E-02    0.1259755097E-01    0.1702803432E+00
    0.4900000000E+02    0.1847064208E+00    0.3594141770E-01    0.1858005238E-02    0.1297719690E-01    0.1752789840E+00
    0.1000000000E+02    0.4912798723E-01    0.9754670495E-02    0.5766545302E-03    0.3450775887E-02    0.4750419858E-01
    0.3000000000E+02    0.1275363798E+00    0.2503028834E-01    0.1377497306E-02    0.8959450927E-02    0.1219876574E+00
    0.5000000000E+02    0.1873591921E+00    0.3644304959E-01    0.1878000998E-02    0.1316365541E-01    0.1777311895E+00
    0.7000000000E+02    0.2345243147E+00    0.4529240292E-01    0.2197137493E-02    0.1647931627E-01    0.2210281068E+00
    0.9000000000E+02    0.2726769978E+00    0.5235380807E-01    0.2402041086E-02    0.1916222633E-01    0.2556361941E+00
    0.1100000000E+03    0.3041827521E+00    0.5811864704E-01    0.2532614126E-02    0.2137839389E-01    0.2839380053E+00
    0.1300000000E+03    0.3306441497E+00    0.6291338564E-01    0.2613571117E-02    0.2324029662E-01    0.3075173791E+00
    0.1500000000E+03    0.3531858181E+00    0.6696339902E-01    0.2660741716E-02    0.2482687527E-01    0.3274683426E+00
    0.1700000000E+03    0.3726204950E+00    0.7042928606E-01    0.2684550522E-02    0.2619518391E-01    0.3445709288E+00
    0.1900000000E+03    0.3895502973E+00    0.7342857970E-01    0.2692024538E-02    0.2738749534E-01    0.3593963239E+00
    0.2100000000E+03    0.4044309033E+00    0.7604927438E-01    0.2687994798E-02    0.2843580456E-01    0.3723724067E+00
    0.2300000000E+03    0.4176135881E+00    0.7835855619E-01    0.2675838608E-02    0.2936477849E-01    0.3838260603E+00
    0.2500000000E+03    0.4293735503E+00    0.8040860974E-01    0.2657950698E-02    0.3019374385E-01    0.3940113244E+00
    0.2700000000E+03    0.4399294795E+00    0.8224058320E-01    0.2636049471E-02    0.3093806035E-01    0.4031286267E+00
    0.2900000000E+03    0.4494573730E+00    0.8388735909E-01    0.2611380300E-02    0.3161009045E-01    0.4113382243E+00
    0.3100000000E+03    0.4581004822E+00    0.8537553009E-01    0.2584853006E-02    0.3221989750E-01    0.4187697940E+00
    0.3300000000E+03    0.4659765995E+00    0.8672683416E-01    0.2557136395E-02    0.3277575717E-01    0.4255293988E+00
    0.3500000000E+03    0.4731834798E+00    0.8795921374E-01    0.2528724240E-02    0.3328453808E-01    0.4317046328E+00
    0.3700000000E+03    0.4798029316E+00    0.8908760935E-01    0.2499981958E-02    0.3375198897E-01    0.4373684759E+00
    0.3900000000E+03    0.4859039442E+00    0.9012456206E-01    0.2471180036E-02    0.3418295826E-01    0.4425822223E+00
    0.4100000000E+03    0.4915451063E+00    0.9108067641E-01    0.2442518225E-02    0.3458156384E-01    0.4473977307E+00
    0.4300000000E+03    0.4967764956E+00    0.9196498024E-01    0.2414143240E-02    0.3495132579E-01    0.4518591746E+00
    0.4500000000E+03    0.5016411719E+00    0.9278520709E-01    0.2386161813E-02    0.3529527116E-01    0.4560044158E+00
    0.4700000000E+03    0.5061763649E+00    0.9354802008E-01    0.2358650408E-02    0.3561601741E-01    0.4598660940E+00
    0.4900000000E+03    0.5104144294E+00    0.9425919083E-01    0.2331662498E-02    0.3591583953E-01    0.4634724978E+00
    0.1000000000E+03    0.2891468063E+00    0.5537495639E-01    0.2474810685E-02    0.2032065659E-01    0.2704621624E+00
    0.3000000000E+03    0.4538816380E+00    0.8464981173E-01    0.2598302355E-02    0.3192221772E-01    0.4151441479E+00
    0.5000000000E+03    0.5124310095E+00    0.9459700630E-01    0.2318376658E-02    0.3605853488E-01    0.4651877979E+00
    0.7000000000E+03    0.5424376421E+00    0.9957520699E-01    0.2083449719E-02    0.3818488522E-01    0.4906729477E+00
    0.9000000000E+03    0.5606761460E+00    0.1025477535E+00    0.1900440958E-02    0.3948122919E-01    0.5061570595E+00
    0.1100000000E+04    0.5729311718E+00    0.1045144381E+00    0.1755485002E-02    0.4035490822E-01    0.5165815274E+00
    0.1300000000E+04    0.5817306514E+00    0.1059062632E+00    0.1637774414E-02    0.4098411944E-01    0.5240891733E+00
    0.1500000000E+04    0.5883546617E+00    0.1069393489E+00    0.1540005523E-02    0.4145919012E-01    0.5297607707E+00
    0.1700000000E+04    0.5935206952E+00    0.1077338976E+00    0.1457240907E-02    0.4183080115E-01    0.5342009209E+00
    0.1900000000E+04    0.5976620748E+00    0.1083620310E+00    0.1386059385E-02    0.4212959191E-01    0.5377744861E+00
    0.2100000000E+04    0.6010559379E+00    0.1088696093E+00    0.1324023006E-02    0.4237517806E-01    0.5407148112E+00
    0.2300000000E+04    0.6038877752E+00    0.1092871646E+00    0.1269348038E-02    0.4258070183E-01    0.5431781463E+00
    0.2500000000E+04    0.6062864138E+00    0.1096357966E+00    0.1220698248E-02    0.4275529996E-01    0.5452730939E+00
    0.2700000000E+04    0.6083441149E+00    0.1099305446E+00    0.1177051584E-02    0.4290552244E-01    0.5470775089E+00
    0.2900000000E+04    0.6101286854E+00    0.1101824105E+00    0.1137611880E-02    0.4303618798E-01    0.5486486759E+00
    0.3100000000E+04    0.6116910748E+00    0.1103996240E+00    0.1101748851E-02    0.4315092094E-01    0.5500296929E+00
    0.3300000000E+04    0.6130703062E+00    0.1105884608E+00    0.1068956371E-02    0.4325250009E-01    0.5512536138E+00
    0.3500000000E+04    0.6142967728E+00    0.1107537868E+00    0.1038822824E-02    0.4334309181E-01    0.5523462186E+00
    0.3700000000E+04    0.6153944978E+00    0.1108994318E+00    0.1011009641E-02    0.4342441018E-01    0.5533279138E+00
    0.3900000000E+04    0.6163827200E+00    0.1110284494E+00    0.9852354879E-03    0.4349782925E-01    0.5542150658E+00
    0.4100000000E+04    0.6172770278E+00    0.1111433032E+00    0.9612644303E-03    0.4356446350E-01    0.5550209558E+00
    0.4300000000E+04    0.6180901861E+00    0.1112460018E+00    0.9388969510E-03    0.4362522643E-01    0.5557564753E+00
    0.4500000000E+04    0.6188327476E+00    0.1113381986E+00    0.9179630438E-03    0.4368087398E-01    0.5564306422E+00
    0.4700000000E+04    0.6195135117E+00    0.1114212663E+00    0.8983168402E-03    0.4373203713E-01    0.5570509877E+00
    0.4900000000E+04    0.6201398746E+00    0.1114963536E+00    0.8798323825E-03    0.4377924677E-01    0.5576238515E+00
    0.1000000000E+04    0.5673513073E+00    0.1036225792E+00    0.1823977317E-02    0.3995678736E-01    0.5118317413E+00
    0.3000000000E+04    0.6109349791E+00    0.1102949182E+00    0.1119267429E-02    0.4309535571E-01    0.5493606896E+00
    0.5000000000E+04    0.6204346505E+00    0.1115312132E+00    0.8709910505E-03    0.4380151235E-01    0.5578941900E+00
    0.7000000000E+04    0.6245867298E+00    0.1119801095E+00    0.7348618400E-03    0.4411935147E-01    0.5617659915E+00
    0.9000000000E+04    0.6269125168E+00    0.1121802637E+00    0.6460810402E-03    0.4430249470E-01    0.5640102775E+00
    0.1100000000E+05    0.6283985798E+00    0.1122752035E+00    0.5824338144E-03    0.4442277282E-01    0.5654910123E+00
    0.1300000000E+05    0.6294294929E+00    0.1123180765E+00    0.5339851682E-03    0.4450847606E-01    0.5665499950E+00
    0.1500000000E+05    0.6301861798E+00    0.1123325774E+00    0.4955426087E-03    0.4457304773E-01    0.5673502677E+00
    0.1700000000E+05    0.6307649384E+00    0.1123306217E+00    0.4640954692E-03    0.4462371390E-01    0.5679797603E+00
    0.1900000000E+05    0.6312217302E+00    0.1123187282E+00    0.4377630554E-03    0.4466471476E-01    0.5684902208E+00
    0.2100000000E+05    0.6315912930E+00    0.1123006915E+00    0.4153025165E-03    0.4469870774E-01    0.5689141656E+00
    0.2300000000E+05    0.6318963282E+00    0.1122788260E+00    0.3958554964E-03    0.4472744603E-01    0.5692730975E+00
    0.2500000000E+05    0.6321522966E+00    0.1122545949E+00    0.3788077566E-03    0.4475213489E-01    0.5695818306E+00
    0.2700000000E+05    0.6323700909E+00    0.1122289496E+00    0.3637067108E-03    0.4477363138E-01    0.5698509201E+00
    0.2900000000E+05    0.6325576059E+00    0.1122025214E+00    0.3502106127E-03    0.4479256247E-01    0.5700881009E+00
    0.3100000000E+05    0.6327207030E+00    0.1121757361E+00    0.3380559790E-03    0.4480939787E-01    0.5702991778E+00
    0.3300000000E+05    0.6328638248E+00    0.1121488836E+00    0.3270359897E-03    0.4482449686E-01    0.5704885977E+00
    0.3500000000E+05    0.6329903998E+00    0.1121221622E+00    0.3169857487E-03    0.4483813921E-01    0.5706598278E+00
    0.3700000000E+05    0.6331031158E+00    0.1120957075E+00    0.3077719702E-03    0.4485054619E-01    0.5708156145E+00
    0.3900000000E+05    0.6332041097E+00    0.1120696114E+00    0.2992856041E-03    0.4486189529E-01    0.5709581633E+00
    0.4100000000E+05    0.6332951013E+00    0.1120439350E+00    0.2914364575E-03    0.4487233061E-01    0.5710892670E+00
    0.4300000000E+05    0.6333774906E+00    0.1120187179E+00    0.2841492067E-03    0.4488197050E-01    0.5712103992E+00
    0.4500000000E+05    0.6334524287E+00    0.1119939836E+00    0.2773603916E-03    0.4489091307E-01    0.5713227833E+00
    0.4700000000E+05    0.6335208705E+00    0.1119697448E+00    0.2710161209E-03    0.4489924045E-01    0.5714274441E+00
    0.4900000000E+05    0.6335836150E+00    0.1119460059E+00    0.2650702965E-03    0.4490702192E-01    0.5715252468E+00
    0.1000000000E+05    0.6277293446E+00    0.1122365189E+00    0.6118964439E-03    0.4436820508E-01    0.5648184890E+00
    0.3000000000E+05    0.6326419013E+00    0.1121891527E+00    0.3439796681E-03    0.4480121751E-01    0.5701965978E+00
    0.5000000000E+05    0.6336130655E+00    0.1119343238E+00    0.2622341789E-03    0.4491072670E-01    0.5715718109E+00
    0.7000000000E+05    0.6340218363E+00    0.1117250692E+00    0.2191680061E-03    0.4496671865E-01    0.5722751814E+00
    0.9000000000E+05    0.6342445473E+00    0.1115538918E+00    0.1916355054E-03    0.4500276927E-01    0.5727270184E+00
    0.1100000000E+06    0.6343834186E+00    0.1114101721E+00    0.1721358120E-03    0.4502883506E-01    0.5730527041E+00
    0.1300000000E+06    0.6344775603E+00    0.1112866472E+00    0.1574144085E-03    0.4504903643E-01    0.5733042869E+00
    0.1500000000E+06    0.6345451197E+00    0.1111784680E+00    0.1458031172E-03    0.4506542873E-01    0.5735077707E+00
    0.1700000000E+06    0.6345956465E+00    0.1110823013E+00    0.1363479022E-03    0.4507916933E-01    0.5736778081E+00
    0.1900000000E+06    0.6346346355E+00    0.1109957761E+00    0.1284588919E-03    0.4509096803E-01    0.5738233864E+00
    0.2100000000E+06    0.6346654667E+00    0.1109171522E+00    0.1217493818E-03    0.4510128873E-01    0.5739503773E+00
    0.2300000000E+06    0.6346903303E+00    0.1108451178E+00    0.1159540139E-03    0.4511044987E-01    0.5740628094E+00
    0.2500000000E+06    0.6347107059E+00    0.1107786604E+00    0.1108839011E-03    0.4511867881E-01    0.5741635564E+00
    0.2700000000E+06    0.6347276278E+00    0.1107169829E+00    0.1064004829E-03    0.4512614309E-01    0.5742547345E+00
    0.2900000000E+06    0.6347418401E+00    0.1106594471E+00    0.1023995276E-03    0.4513296953E-01    0.5743379439E+00
    0.3100000000E+06    0.6347538908E+00    0.1106055341E+00    0.9880093431E-04    0.4513925629E-01    0.5744144216E+00
    0.3300000000E+06    0.6347641926E+00    0.1105548164E+00    0.9554200688E-04    0.4514508079E-01    0.5744851426E+00
    0.3500000000E+06    0.6347730615E+00    0.1105069377E+00    0.9257288259E-04    0.4515050515E-01    0.5745508880E+00
    0.3700000000E+06    0.6347807434E+00    0.1104615980E+00    0.8985334668E-04    0.4515557988E-01    0.5746122926E+00
    0.3900000000E+06    0.6347874325E+00    0.1104185426E+00    0.8735056168E-04    0.4516034664E-01    0.5746698789E+00
    0.4100000000E+06    0.6347932839E+00    0.1103775529E+00    0.8503741690E-04    0.4516484013E-01    0.5747240819E+00
    0.4300000000E+06    0.6347984229E+00    0.1103384403E+00    0.8289130742E-04    0.4516908955E-01    0.5747752675E+00
    0.4500000000E+06    0.6348029520E+00    0.1103010410E+00    0.8089321654E-04    0.4517311972E-01    0.5748237459E+00
    0.4700000000E+06    0.6348069553E+00    0.1102652115E+00    0.7902701651E-04    0.4517695189E-01    0.5748697827E+00
    0.4900000000E+06    0.6348105030E+00    0.1102308256E+00    0.7727892869E-04    0.4518060439E-01    0.5749136066E+00
    0.1000000000E+06    0.6343212806E+00    0.1114791235E+00    0.1811388924E-03    0.4501672152E-01    0.5729014797E+00
    0.3000000000E+06    0.6347481072E+00    0.1106320664E+00    0.1005542003E-03    0.4513617512E-01    0.5743769580E+00
    0.5000000000E+06    0.6348121247E+00    0.1102141387E+00    0.7644540771E-04    0.4518236832E-01    0.5749347517E+00
    0.7000000000E+06    0.6348308406E+00    0.1099348236E+00    0.6381151690E-04    0.4521117473E-01    0.5752783198E+00
    0.9000000000E+06    0.6348364396E+00    0.1097248312E+00    0.5575559663E-04    0.4523211505E-01    0.5755260325E+00
    0.1100000000E+07    0.6348369574E+00    0.1095565467E+00    0.5005898901E-04    0.4524856574E-01    0.5757194728E+00
    0.1300000000E+07    0.6348352092E+00    0.1094161393E+00    0.4576283539E-04    0.4526211274E-01    0.5758780293E+00
    0.1500000000E+07    0.6348323823E+00    0.1092956863E+00    0.4237688375E-04    0.4527362765E-01    0.5760122951E+00
    0.1700000000E+07    0.6348290391E+00    0.1091902246E+00    0.3962125047E-04    0.4528364082E-01    0.5761286841E+00
    0.1900000000E+07    0.6348254665E+00    0.1090964387E+00    0.3732311268E-04    0.4529249890E-01    0.5762313715E+00
    0.2100000000E+07    0.6348218187E+00    0.1090120037E+00    0.3536928725E-04    0.4530044095E-01    0.5763232260E+00
    0.2300000000E+07    0.6348181807E+00    0.1089352264E+00    0.3368217066E-04    0.4530763877E-01    0.5764063028E+00
    0.2500000000E+07    0.6348145999E+00    0.1088648354E+00    0.3220656001E-04    0.4531421994E-01    0.5764821242E+00
    0.2700000000E+07    0.6348111024E+00    0.1087998513E+00    0.3090198312E-04    0.4532028186E-01    0.5765518489E+00
    0.2900000000E+07    0.6348077016E+00    0.1087395043E+00    0.2973800924E-04    0.4532590052E-01    0.5766163792E+00
    0.3100000000E+07    0.6348044035E+00    0.1086831778E+00    0.2869126233E-04    0.4533113636E-01    0.5766764313E+00
    0.3300000000E+07    0.6348012098E+00    0.1086303706E+00    0.2774345201E-04    0.4533603826E-01    0.5767325832E+00
    0.3500000000E+07    0.6347981194E+00    0.1085806695E+00    0.2688003638E-04    0.4534064628E-01    0.5767853081E+00
    0.3700000000E+07    0.6347951295E+00    0.1085337302E+00    0.2608929045E-04    0.4534499370E-01    0.5768349979E+00
    0.3900000000E+07    0.6347922366E+00    0.1084892626E+00    0.2536164255E-04    0.4534910843E-01    0.5768819813E+00
    0.4100000000E+07    0.6347894368E+00    0.1084470199E+00    0.2468919200E-04    0.4535301415E-01    0.5769265365E+00
    0.4300000000E+07    0.6347867257E+00    0.1084067905E+00    0.2406535256E-04    0.4535673106E-01    0.5769689007E+00
    0.4500000000E+07    0.6347840992E+00    0.1083683918E+00    0.2348458442E-04    0.4536027660E-01    0.5770092784E+00
    0.4700000000E+07    0.6347815531E+00    0.1083316646E+00    0.2294219018E-04    0.4536366588E-01    0.5770478465E+00
    0.4900000000E+07    0.6347790833E+00    0.1082964700E+00    0.2243415723E-04    0.4536691211E-01    0.5770847596E+00
    0.1000000000E+07    0.6348370992E+00    0.1096365324E+00    0.5268825600E-04    0.4524077872E-01    0.5756280318E+00
    0.3000000000E+07    0.6348060395E+00    0.1087108722E+00    0.2920122668E-04    0.4532856300E-01    0.5766469261E+00
    0.5000000000E+07    0.6347778758E+00    0.1082794085E+00    0.2219192874E-04    0.4536848526E-01    0.5771026384E+00
    0.7000000000E+07    0.6347569078E+00    0.1079953445E+00    0.1852125063E-04    0.4539463581E-01    0.5773989588E+00
    0.9000000000E+07    0.6347403760E+00    0.1077833301E+00    0.1618143721E-04    0.4541411954E-01    0.5776187068E+00
    0.1100000000E+08    0.6347267620E+00    0.1076141640E+00    0.1452720940E-04    0.4542965592E-01    0.5777933419E+00
    0.1300000000E+08    0.6347151991E+00    0.1074734331E+00    0.1327982698E-04    0.4544257900E-01    0.5779382192E+00
    0.1500000000E+08    0.6347051533E+00    0.1073529568E+00    0.1229681822E-04    0.4545364321E-01    0.5780619899E+00
    0.1700000000E+08    0.6346962739E+00    0.1072476431E+00    0.1149686425E-04    0.4546331708E-01    0.5781700110E+00
    0.1900000000E+08    0.6346883188E+00    0.1071541063E+00    0.1082976048E-04    0.4547191163E-01    0.5782658296E+00
    0.2100000000E+08    0.6346811140E+00    0.1070699810E+00    0.1026263171E-04    0.4547964391E-01    0.5783519165E+00
    0.2300000000E+08    0.6346745301E+00    0.1069935495E+00    0.9772939525E-05    0.4548667143E-01    0.5784300612E+00
    0.2500000000E+08    0.6346684688E+00    0.1069235248E+00    0.9344652698E-05    0.4549311212E-01    0.5785016014E+00
    0.2700000000E+08    0.6346628532E+00    0.1068589180E+00    0.8966018725E-05    0.4549905656E-01    0.5785675634E+00
