  Pressure (Pa) 22mC5-400 (mol/kg) 3mC6-400 (mol/kg) 33mC5-400 (mol/kg) 23mC5-400 (mol/kg) C7-400 (mol/kg)
    0.1000000000E+01    0.5282470287E-02    0.5295612764E-03    0.1942468927E-03    0.3710188760E-03    0.3437211964E-02
    0.3000000000E+01    0.1558246772E-01    0.1569721475E-02    0.5706640531E-03    0.1094464725E-02    0.1018910667E-01
    0.5000000000E+01    0.2554391074E-01    0.2585347115E-02    0.9316782661E-03    0.1794152838E-02    0.1678245966E-01
    0.7000000000E+01    0.3518342853E-01    0.3577299653E-02    0.1278081130E-02    0.2471249811E-02    0.2322283005E-01
    0.9000000000E+01    0.4451657497E-01    0.4546400641E-02    0.1610613797E-02    0.3126846816E-02    0.2951551957E-01
    0.1100000000E+02    0.5355791416E-01    0.5493434010E-02    0.1929970831E-02    0.3761965596E-02    0.3566558733E-01
    0.1300000000E+02    0.6232109782E-01    0.6419148202E-02    0.2236803736E-02    0.4377563900E-02    0.4167786351E-01
    0.1500000000E+02    0.7081893563E-01    0.7324258150E-02    0.2531724154E-02    0.4974540408E-02    0.4755696220E-01
    0.1700000000E+02    0.7906345911E-01    0.8209447141E-02    0.2815306793E-02    0.5553739217E-02    0.5330729334E-01
    0.1900000000E+02    0.8706597984E-01    0.9075368542E-02    0.3088092107E-02    0.6115953922E-02    0.5893307391E-01
    0.2100000000E+02    0.9483714249E-01    0.9922647421E-02    0.3350588738E-02    0.6661931340E-02    0.6443833837E-01
    0.2300000000E+02    0.1023869733E+00    0.1075188207E-01    0.3603275763E-02    0.7192374899E-02    0.6982694841E-01
    0.2500000000E+02    0.1097249242E+00    0.1156364541E-01    0.3846604752E-02    0.7707947756E-02    0.7510260215E-01
    0.2700000000E+02    0.1168599137E+00    0.1235848633E-01    0.4081001657E-02    0.8209275628E-02    0.8026884269E-01
    0.2900000000E+02    0.1238003637E+00    0.1313693095E-01    0.4306868553E-02    0.8696949409E-02    0.8532906615E-01
    0.3100000000E+02    0.1305542336E+00    0.1389948376E-01    0.4524585236E-02    0.9171527553E-02    0.9028652923E-01
    0.3300000000E+02    0.1371290519E+00    0.1464662874E-01    0.4734510703E-02    0.9633538280E-02    0.9514435629E-01
    0.3500000000E+02    0.1435319450E+00    0.1537883039E-01    0.4936984509E-02    0.1008348159E-01    0.9990554602E-01
    0.3700000000E+02    0.1497696632E+00    0.1609653468E-01    0.5132328029E-02    0.1052183113E-01    0.1045729777E+00
    0.3900000000E+02    0.1558486060E+00    0.1680017002E-01    0.5320845614E-02    0.1094903590E-01    0.1091494170E+00
    0.4100000000E+02    0.1617748439E+00    0.1749014804E-01    0.5502825675E-02    0.1136552186E-01    0.1136375218E+00
    0.4300000000E+02    0.1675541400E+00    0.1816686447E-01    0.5678541673E-02    0.1177169337E-01    0.1180398470E+00
    0.4500000000E+02    0.1731919687E+00    0.1883069986E-01    0.5848253046E-02    0.1216793455E-01    0.1223588498E+00
    0.4700000000E+02    0.1786935338E+00    0.1948202033E-01    0.6012206068E-02    0.1255461055E-01    0.1265968941E+00
    0.4900000000E+02    0.1840637849E+00    0.2012117821E-01    0.6170634641E-02    0.1293206867E-01    0.1307562552E+00
    0.1000000000E+02    0.4907284671E-01    0.5022628192E-02    0.1771897579E-02    0.3446904685E-02    0.3260807407E-01
    0.3000000000E+02    0.1272001408E+00    0.1352016312E-01    0.4416722763E-02    0.8935841738E-02    0.8782044444E-01
    0.5000000000E+02    0.1867011490E+00    0.2043630269E-01    0.6247847154E-02    0.1311744496E-01    0.1328071172E+00
    0.7000000000E+02    0.2335867331E+00    0.2617641932E-01    0.7550574670E-02    0.1641346817E-01    0.1701853357E+00
    0.9000000000E+02    0.2715209208E+00    0.3101809250E-01    0.8496103684E-02    0.1908102452E-01    0.2017478458E+00
    0.1100000000E+03    0.3028663505E+00    0.3515780416E-01    0.9192244922E-02    0.2128592217E-01    0.2287640531E+00
    0.1300000000E+03    0.3292164343E+00    0.3873855207E-01    0.9709595629E-02    0.2313999658E-01    0.2521581379E+00
    0.1500000000E+03    0.3516858983E+00    0.4186689846E-01    0.1009590632E-01    0.2472149385E-01    0.2726190419E+00
    0.1700000000E+03    0.3710786861E+00    0.4462388706E-01    0.1038437004E-01    0.2608685086E-01    0.2906709102E+00
    0.1900000000E+03    0.3879896748E+00    0.4707225586E-01    0.1059860760E-01    0.2727783214E-01    0.3067196409E+00
    0.2100000000E+03    0.4028687932E+00    0.4926133366E-01    0.1075577280E-01    0.2832602900E-01    0.3210844918E+00
    0.2300000000E+03    0.4160628369E+00    0.5123044414E-01    0.1086854621E-01    0.2925579377E-01    0.3340200587E+00
    0.2500000000E+03    0.4278435511E+00    0.5301132270E-01    0.1094644934E-01    0.3008621059E-01    0.3457318816E+00
    0.2700000000E+03    0.4384269796E+00    0.5462986457E-01    0.1099673144E-01    0.3083245329E-01    0.3563877359E+00
    0.2900000000E+03    0.4479871008E+00    0.5610741081E-01    0.1102498025E-01    0.3150674247E-01    0.3661259404E+00
    0.3100000000E+03    0.4566656302E+00    0.5746170855E-01    0.1103555054E-01    0.3211903353E-01    0.3750615618E+00
    0.3300000000E+03    0.4645791958E+00    0.5870763801E-01    0.1103186989E-01    0.3267752028E-01    0.3832911137E+00
    0.3500000000E+03    0.4718246721E+00    0.5985776974E-01    0.1101666020E-01    0.3318900944E-01    0.3908961584E+00
    0.3700000000E+03    0.4784832055E+00    0.6092279670E-01    0.1099210025E-01    0.3365920319E-01    0.3979461008E+00
    0.3900000000E+03    0.4846232906E+00    0.6191187269E-01    0.1095994675E-01    0.3409291514E-01    0.4045003771E+00
    0.4100000000E+03    0.4903031494E+00    0.6283288016E-01    0.1092162526E-01    0.3449423737E-01    0.4106101871E+00
    0.4300000000E+03    0.4955725918E+00    0.6369264385E-01    0.1087829940E-01    0.3486667109E-01    0.4163198764E+00
    0.4500000000E+03    0.5004744849E+00    0.6449710277E-01    0.1083092397E-01    0.3521322978E-01    0.4216680492E+00
    0.4700000000E+03    0.5050459237E+00    0.6525144963E-01    0.1078028610E-01    0.3553652144E-01    0.4266884710E+00
    0.4900000000E+03    0.5093191730E+00    0.6596024467E-01    0.1072703741E-01    0.3583881465E-01    0.4314108053E+00
    0.1000000000E+03    0.2879038127E+00    0.3316574031E-01    0.8870270838E-02    0.2023334558E-01    0.2157599181E+00
    0.3000000000E+03    0.4524287572E+00    0.5679897577E-01    0.1103224219E-01    0.3182008928E-01    0.3706876538E+00
    0.5000000000E+03    0.5113529290E+00    0.6629883580E-01    0.1069960692E-01    0.3598271637E-01    0.4336684895E+00
    0.7000000000E+03    0.5416441438E+00    0.7144249873E-01    0.1010564761E-01    0.3812906096E-01    0.4681431087E+00
    0.9000000000E+03    0.5600747964E+00    0.7467128216E-01    0.9528019205E-02    0.3943891142E-01    0.4900164945E+00
    0.1100000000E+04    0.5724616430E+00    0.7688722637E-01    0.9011715687E-02    0.4032185966E-01    0.5051879512E+00
    0.1300000000E+04    0.5813545927E+00    0.7850194168E-01    0.8557973218E-02    0.4095764530E-01    0.5163594763E+00
    0.1500000000E+04    0.5880470578E+00    0.7973032380E-01    0.8159161385E-02    0.4143753210E-01    0.5249469428E+00
    0.1700000000E+04    0.5932646715E+00    0.8069564205E-01    0.7806782348E-02    0.4181277285E-01    0.5317654877E+00
    0.1900000000E+04    0.5974458755E+00    0.8147371812E-01    0.7493339755E-02    0.4211436663E-01    0.5373183028E+00
    0.2100000000E+04    0.6008711341E+00    0.8211377314E-01    0.7212622338E-02    0.4236216296E-01    0.5419332144E+00
    0.2300000000E+04    0.6037281688E+00    0.8264916298E-01    0.6959577835E-02    0.4256946089E-01    0.5458331725E+00
    0.2500000000E+04    0.6061473456E+00    0.8310329901E-01    0.6730107574E-02    0.4274550536E-01    0.5491752112E+00
    0.2700000000E+04    0.6082220143E+00    0.8349309963E-01    0.6520873817E-02    0.4289692293E-01    0.5520732119E+00
    0.2900000000E+04    0.6100207692E+00    0.8383109652E-01    0.6329140766E-02    0.4302858766E-01    0.5546118233E+00
    0.3100000000E+04    0.6115951406E+00    0.8412677049E-01    0.6152649047E-02    0.4314416482E-01    0.5568553094E+00
    0.3300000000E+04    0.6129845882E+00    0.8438742684E-01    0.5989518181E-02    0.4324646384E-01    0.5588533601E+00
    0.3500000000E+04    0.6142198379E+00    0.8461878559E-01    0.5838171034E-02    0.4333767455E-01    0.5606450169E+00
    0.3700000000E+04    0.6153251704E+00    0.8482538931E-01    0.5697275149E-02    0.4341952913E-01    0.5622613916E+00
    0.3900000000E+04    0.6163200265E+00    0.8501089115E-01    0.5565696958E-02    0.4349341585E-01    0.5637275908E+00
    0.4100000000E+04    0.6172201548E+00    0.8517826230E-01    0.5442465779E-02    0.4356046046E-01    0.5650641040E+00
    0.4300000000E+04    0.6180384485E+00    0.8532994389E-01    0.5326745322E-02    0.4362158550E-01    0.5662878231E+00
    0.4500000000E+04    0.6187855640E+00    0.8546796004E-01    0.5217810954E-02    0.4367755421E-01    0.5674128023E+00
    0.4700000000E+04    0.6194703857E+00    0.8559400318E-01    0.5115031435E-02    0.4372900355E-01    0.5684508327E+00
    0.4900000000E+04    0.6201003794E+00    0.8570949921E-01    0.5017854129E-02    0.4377646931E-01    0.5694118822E+00
    0.1000000000E+04    0.5668217852E+00    0.7587355445E-01    0.9261736884E-02    0.3991951991E-01    0.4982281185E+00
    0.3000000000E+04    0.6108332991E+00    0.8398372430E-01    0.6239115171E-02    0.4308819475E-01    0.5557670630E+00
    0.5000000000E+04    0.6203968292E+00    0.8576367742E-01    0.4971212089E-02    0.4379885297E-01    0.5698662412E+00
    0.7000000000E+04    0.6245699056E+00    0.8650914128E-01    0.4240491989E-02    0.4411817429E-01    0.5764338538E+00
    0.9000000000E+04    0.6269050693E+00    0.8690189597E-01    0.3752059017E-02    0.4430198040E-01    0.5802931068E+00
    0.1100000000E+05    0.6283960650E+00    0.8713477745E-01    0.3396660329E-02    0.4442260783E-01    0.5828592262E+00
    0.1300000000E+05    0.6294298493E+00    0.8728281793E-01    0.3123409331E-02    0.4450851480E-01    0.5847025445E+00
    0.1500000000E+05    0.6301883246E+00    0.8738104861E-01    0.2905021435E-02    0.4457321370E-01    0.5860986806E+00
    0.1700000000E+05    0.6307682511E+00    0.8744790504E-01    0.2725393357E-02    0.4462396320E-01    0.5871977404E+00
    0.1900000000E+05    0.6312258315E+00    0.8749395145E-01    0.2574332921E-02    0.4466502055E-01    0.5880887427E+00
    0.2100000000E+05    0.6315959395E+00    0.8752564043E-01    0.2445036132E-02    0.4469905277E-01    0.5888279685E+00
    0.2300000000E+05    0.6319013574E+00    0.8754711378E-01    0.2332765854E-02    0.4472781877E-01    0.5894528227E+00
    0.2500000000E+05    0.6321575967E+00    0.8756113773E-01    0.2234109779E-02    0.4475252741E-01    0.5899891820E+00
    0.2700000000E+05    0.6323755830E+00    0.8756962069E-01    0.2146539784E-02    0.4477403806E-01    0.5904555472E+00
    0.2900000000E+05    0.6325632329E+00    0.8757391534E-01    0.2068137990E-02    0.4479297925E-01    0.5908655146E+00
    0.3100000000E+05    0.6327264232E+00    0.8757500247E-01    0.1997419806E-02    0.4480982178E-01    0.5912293126E+00
    0.3300000000E+05    0.6328696072E+00    0.8757360719E-01    0.1933215860E-02    0.4482492569E-01    0.5915547920E+00
    0.3500000000E+05    0.6329962210E+00    0.8757027460E-01    0.1874590976E-02    0.4483857127E-01    0.5918480849E+00
    0.3700000000E+05    0.6331089581E+00    0.8756542043E-01    0.1820787210E-02    0.4485098021E-01    0.5921140547E+00
    0.3900000000E+05    0.6332099594E+00    0.8755936584E-01    0.1771182948E-02    0.4486233028E-01    0.5923566113E+00
    0.4100000000E+05    0.6333009480E+00    0.8755236160E-01    0.1725262956E-02    0.4487276583E-01    0.5925789360E+00
    0.4300000000E+05    0.6333833262E+00    0.8754460553E-01    0.1682596105E-02    0.4488240535E-01    0.5927836456E+00
    0.4500000000E+05    0.6334582470E+00    0.8753625494E-01    0.1642818528E-02    0.4489134710E-01    0.5929729136E+00
    0.4700000000E+05    0.6335266666E+00    0.8752743593E-01    0.1605620725E-02    0.4489967330E-01    0.5931485611E+00
    0.4900000000E+05    0.6335893852E+00    0.8751825022E-01    0.1570737562E-02    0.4490745333E-01    0.5933121267E+00
    0.1000000000E+05    0.6277247186E+00    0.8703223033E-01    0.3561696119E-02    0.4436789051E-01    0.5816919323E+00
    0.3000000000E+05    0.6326475794E+00    0.8757480957E-01    0.2031897829E-02    0.4480163817E-01    0.5910526473E+00
    0.5000000000E+05    0.6336188216E+00    0.8751354629E-01    0.1554091282E-02    0.4491115730E-01    0.5933897955E+00
    0.7000000000E+05    0.6340272503E+00    0.8741373219E-01    0.1300769015E-02    0.4496712832E-01    0.5945437371E+00
    0.9000000000E+05    0.6342496270E+00    0.8731699617E-01    0.1138313336E-02    0.4500315793E-01    0.5952608109E+00
    0.1100000000E+06    0.6343882124E+00    0.8722896135E-01    0.1023038445E-02    0.4502920576E-01    0.5957624919E+00
    0.1300000000E+06    0.6344821132E+00    0.8714957734E-01    0.9359003195E-03    0.4504939207E-01    0.5961398517E+00
    0.1500000000E+06    0.6345494679E+00    0.8707778048E-01    0.8671081454E-03    0.4506577169E-01    0.5964378918E+00
    0.1700000000E+06    0.6345998189E+00    0.8701245316E-01    0.8110507026E-03    0.4507950147E-01    0.5966816776E+00
    0.1900000000E+06    0.6346386550E+00    0.8695262530E-01    0.7642531638E-03    0.4509129086E-01    0.5968864046E+00
    0.2100000000E+06    0.6346693518E+00    0.8689749531E-01    0.7244347329E-03    0.4510160344E-01    0.5970618868E+00
    0.2300000000E+06    0.6346940961E+00    0.8684640863E-01    0.6900287813E-03    0.4511075746E-01    0.5972147817E+00
    0.2500000000E+06    0.6347143649E+00    0.8679883019E-01    0.6599192517E-03    0.4511898007E-01    0.5973497867E+00
    0.2700000000E+06    0.6347311905E+00    0.8675431989E-01    0.6332868931E-03    0.4512643871E-01    0.5974703246E+00
    0.2900000000E+06    0.6347453153E+00    0.8671251289E-01    0.6095150700E-03    0.4513326008E-01    0.5975789569E+00
    0.3100000000E+06    0.6347572862E+00    0.8667310411E-01    0.5881296727E-03    0.4513954224E-01    0.5976776445E+00
    0.3300000000E+06    0.6347675147E+00    0.8663583636E-01    0.5687594460E-03    0.4514536258E-01    0.5977679183E+00
    0.3500000000E+06    0.6347763160E+00    0.8660049103E-01    0.5511090162E-03    0.4515078312E-01    0.5978509933E+00
    0.3700000000E+06    0.6347839353E+00    0.8656688095E-01    0.5349400813E-03    0.4515585437E-01    0.5979278486E+00
    0.3900000000E+06    0.6347905661E+00    0.8653484471E-01    0.5200579962E-03    0.4516061791E-01    0.5979992831E+00
    0.4100000000E+06    0.6347963632E+00    0.8650424220E-01    0.5063020180E-03    0.4516510843E-01    0.5980659566E+00
    0.4300000000E+06    0.6348014514E+00    0.8647495109E-01    0.4935380864E-03    0.4516935510E-01    0.5981284193E+00
    0.4500000000E+06    0.6348059327E+00    0.8644686397E-01    0.4816533958E-03    0.4517338272E-01    0.5981871345E+00
    0.4700000000E+06    0.6348098912E+00    0.8641988603E-01    0.4705522585E-03    0.4517721251E-01    0.5982424959E+00
    0.4900000000E+06    0.6348133965E+00    0.8639393316E-01    0.4601529088E-03    0.4518086278E-01    0.5982948399E+00
    0.1000000000E+06    0.6343262112E+00    0.8727184826E-01    0.1076282670E-02    0.4501710081E-01    0.5955312927E+00
    0.3000000000E+06    0.6347515416E+00    0.8669252580E-01    0.5985493176E-03    0.4513646331E-01    0.5976294396E+00
    0.5000000000E+06    0.6348149979E+00    0.8638131740E-01    0.4551940340E-03    0.4518262565E-01    0.5983199726E+00
    0.7000000000E+06    0.6348333979E+00    0.8616829075E-01    0.3800108689E-03    0.4521141641E-01    0.5987174096E+00
    0.9000000000E+06    0.6348387871E+00    0.8600616037E-01    0.3320526978E-03    0.4523234738E-01    0.5989918844E+00
    0.1100000000E+07    0.6348391522E+00    0.8587523056E-01    0.2981324736E-03    0.4524879201E-01    0.5991997724E+00
    0.1300000000E+07    0.6348372863E+00    0.8576540427E-01    0.2725476036E-03    0.4526233488E-01    0.5993662716E+00
    0.1500000000E+07    0.6348343652E+00    0.8567081063E-01    0.2523813172E-03    0.4527384690E-01    0.5995047031E+00
    0.1700000000E+07    0.6348309441E+00    0.8558773281E-01    0.2359679970E-03    0.4528385802E-01    0.5996229203E+00
    0.1900000000E+07    0.6348273058E+00    0.8551366805E-01    0.2222789557E-03    0.4529271465E-01    0.5997259226E+00
    0.2100000000E+07    0.6348236016E+00    0.8544685036E-01    0.2106403967E-03    0.4530065569E-01    0.5998170803E+00
    0.2300000000E+07    0.6348199145E+00    0.8538598699E-01    0.2005902800E-03    0.4530785283E-01    0.5998987685E+00
    0.2500000000E+07    0.6348162905E+00    0.8533010305E-01    0.1917999043E-03    0.4531443358E-01    0.5999727211E+00
    0.2700000000E+07    0.6348127545E+00    0.8527844513E-01    0.1840282623E-03    0.4532049527E-01    0.6000402411E+00
    0.2900000000E+07    0.6348093191E+00    0.8523041891E-01    0.1770941307E-03    0.4532611386E-01    0.6001023316E+00
    0.3100000000E+07    0.6348059898E+00    0.8518554729E-01    0.1708582910E-03    0.4533134976E-01    0.6001597807E+00
    0.3300000000E+07    0.6348027677E+00    0.8514344142E-01    0.1652118079E-03    0.4533625182E-01    0.6002132181E+00
    0.3500000000E+07    0.6347996512E+00    0.8510378022E-01    0.1600680680E-03    0.4534086009E-01    0.6002631551E+00
    0.3700000000E+07    0.6347966374E+00    0.8506629549E-01    0.1553572335E-03    0.4534520782E-01    0.6003100121E+00
    0.3900000000E+07    0.6347937225E+00    0.8503076087E-01    0.1510222906E-03    0.4534932293E-01    0.6003541387E+00
    0.4100000000E+07    0.6347909022E+00    0.8499698358E-01    0.1470161775E-03    0.4535322907E-01    0.6003958289E+00
    0.4300000000E+07    0.6347881721E+00    0.8496479811E-01    0.1432996612E-03    0.4535694645E-01    0.6004353321E+00
    0.4500000000E+07    0.6347855278E+00    0.8493406126E-01    0.1398397416E-03    0.4536049248E-01    0.6004728617E+00
    0.4700000000E+07    0.6347829650E+00    0.8490464834E-01    0.1366084359E-03    0.4536388229E-01    0.6005086014E+00
    0.4900000000E+07    0.6347804796E+00    0.8487645011E-01    0.1335818405E-03    0.4536712908E-01    0.6005427109E+00
    0.1000000000E+07    0.6348393649E+00    0.8593756311E-01    0.3137890506E-03    0.4524100772E-01    0.5991021762E+00
    0.3000000000E+07    0.6348076411E+00    0.8520761487E-01    0.1738963349E-03    0.4532877636E-01    0.6001315938E+00
    0.5000000000E+07    0.6347792646E+00    0.8486277596E-01    0.1321387710E-03    0.4536870251E-01    0.6005591986E+00
    0.7000000000E+07    0.6347581827E+00    0.8463472718E-01    0.1102710850E-03    0.4539485934E-01    0.6008295075E+00
    0.9000000000E+07    0.6347415776E+00    0.8446410793E-01    0.9633239155E-04    0.4541434967E-01    0.6010267308E+00
    0.1100000000E+08    0.6347279117E+00    0.8432775815E-01    0.8647825567E-04    0.4542989253E-01    0.6011817601E+00
    0.1300000000E+08    0.6347163098E+00    0.8421420174E-01    0.7904796965E-04    0.4544282181E-01    0.6013093469E+00
    0.1500000000E+08    0.6347062333E+00    0.8411690775E-01    0.7319270040E-04    0.4545389194E-01    0.6014176741E+00
    0.1700000000E+08    0.6346973292E+00    0.8403180295E-01    0.6842796205E-04    0.4546357144E-01    0.6015117487E+00
    0.1900000000E+08    0.6346893536E+00    0.8395617507E-01    0.6445464680E-04    0.4547217136E-01    0.6015948553E+00
    0.2100000000E+08    0.6346821315E+00    0.8388812686E-01    0.6107689461E-04    0.4547990877E-01    0.6016692637E+00
    0.2300000000E+08    0.6346755329E+00    0.8382627911E-01    0.5816043086E-04    0.4548694121E-01    0.6017366074E+00
    0.2500000000E+08    0.6346694588E+00    0.8376959770E-01    0.5560974970E-04    0.4549338661E-01    0.6017981006E+00
    0.2700000000E+08    0.6346638320E+00    0.8371728731E-01    0.5335483689E-04    0.4549933558E-01    0.6018546703E+00
