  Pressure (Pa) 22mC5-400 (mol/kg) 2mC6-400 (mol/kg) 3mC6-400 (mol/kg) 33mC5-400 (mol/kg) C7-400 (mol/kg)
    0.1000000000E+01    0.5303762139E-03    0.3176254575E-02    0.1579294090E-02    0.6465610167E-03    0.3416985143E-02
    0.3000000000E+01    0.1576970948E-02    0.9305281606E-02    0.4627821482E-02    0.1894425645E-02    0.1001387297E-01
    0.5000000000E+01    0.2605231905E-02    0.1515348709E-01    0.7538381784E-02    0.3085424521E-02    0.1631353957E-01
    0.7000000000E+01    0.3615783809E-02    0.2073979261E-01    0.1032063930E-01    0.4223392817E-02    0.2233677596E-01
    0.9000000000E+01    0.4609222120E-02    0.2608141449E-01    0.1298336536E-01    0.5311819594E-02    0.2810245342E-01
    0.1100000000E+02    0.5586114756E-02    0.3119405482E-01    0.1553453950E-01    0.6353886616E-02    0.3362774100E-01
    0.1300000000E+02    0.6547003691E-02    0.3609206716E-01    0.1798143722E-01    0.7352502015E-02    0.3892829401E-01
    0.1500000000E+02    0.7492406441E-02    0.4078860072E-01    0.2033070628E-01    0.8310329585E-02    0.4401841801E-01
    0.1700000000E+02    0.8422817454E-02    0.4529572629E-01    0.2258843325E-01    0.9229814354E-02    0.4891121190E-01
    0.1900000000E+02    0.9338709399E-02    0.4962454647E-01    0.2476020181E-01    0.1011320498E-01    0.5361869311E-01
    0.2100000000E+02    0.1024053437E-01    0.5378529257E-01    0.2685114383E-01    0.1096257342E-01    0.5815190751E-01
    0.2300000000E+02    0.1112872503E-01    0.5778740999E-01    0.2886598446E-01    0.1177983228E-01    0.6252102618E-01
    0.2500000000E+02    0.1200369562E-01    0.6163963355E-01    0.3080908177E-01    0.1256675007E-01    0.6673543077E-01
    0.2700000000E+02    0.1286584300E-01    0.6535005433E-01    0.3268446196E-01    0.1332496482E-01    0.7080378909E-01
    0.2900000000E+02    0.1371554752E-01    0.6892617895E-01    0.3449585052E-01    0.1405599610E-01    0.7473412209E-01
    0.3100000000E+02    0.1455317390E-01    0.7237498236E-01    0.3624669992E-01    0.1476125571E-01    0.7853386350E-01
    0.3300000000E+02    0.1537907207E-01    0.7570295497E-01    0.3794021436E-01    0.1544205724E-01    0.8220991288E-01
    0.3500000000E+02    0.1619357787E-01    0.7891614475E-01    0.3957937179E-01    0.1609962468E-01    0.8576868310E-01
    0.3700000000E+02    0.1699701380E-01    0.8202019499E-01    0.4116694367E-01    0.1673509998E-01    0.8921614277E-01
    0.3900000000E+02    0.1778968970E-01    0.8502037818E-01    0.4270551269E-01    0.1734955000E-01    0.9255785432E-01
    0.4100000000E+02    0.1857190332E-01    0.8792162656E-01    0.4419748864E-01    0.1794397267E-01    0.9579900819E-01
    0.4300000000E+02    0.1934394099E-01    0.9072855959E-01    0.4564512280E-01    0.1851930257E-01    0.9894445366E-01
    0.4500000000E+02    0.2010607811E-01    0.9344550880E-01    0.4705052077E-01    0.1907641598E-01    0.1019987266E+00
    0.4700000000E+02    0.2085857972E-01    0.9607654031E-01    0.4841565422E-01    0.1961613541E-01    0.1049660747E+00
    0.4900000000E+02    0.2160170095E-01    0.9862547514E-01    0.4974237143E-01    0.2013923378E-01    0.1078504799E+00
    0.1000000000E+02    0.5099702184E-02    0.2866543043E-01    0.1427242614E-01    0.5838460266E-02    0.3089413405E-01
    0.3000000000E+02    0.1413584827E-01    0.7066607931E-01    0.3537863680E-01    0.1441176307E-01    0.7664987358E-01
    0.5000000000E+02    0.2196982108E-01    0.9987028796E-01    0.5039187016E-01    0.2039477895E-01    0.1092627557E+00
    0.7000000000E+02    0.2889497777E-01    0.1212256669E+00    0.6173424983E-01    0.2478864047E-01    0.1339494959E+00
    0.9000000000E+02    0.3511289632E-01    0.1374009976E+00    0.7068026646E-01    0.2813304356E-01    0.1534569526E+00
    0.1100000000E+03    0.4076712851E-01    0.1499731786E+00    0.7796715617E-01    0.3074678328E-01    0.1693751171E+00
    0.1300000000E+03    0.4596298617E-01    0.1599379159E+00    0.8405249651E-01    0.3283114642E-01    0.1826914813E+00
    0.1500000000E+03    0.5077969099E-01    0.1679565273E+00    0.8923620913E-01    0.3451984033E-01    0.1940537109E+00
    0.1700000000E+03    0.5527813195E-01    0.1744860697E+00    0.9372362385E-01    0.3590530212E-01    0.2039054800E+00
    0.1900000000E+03    0.5950598589E-01    0.1798527570E+00    0.9766040005E-01    0.3705353553E-01    0.2125617189E+00
    0.2100000000E+03    0.6350119577E-01    0.1842956867E+00    0.1011529718E+00    0.3801294474E-01    0.2202526866E+00
    0.2300000000E+03    0.6729439351E-01    0.1879940646E+00    0.1042810820E+00    0.3881983310E-01    0.2271510007E+00
    0.2500000000E+03    0.7091062508E-01    0.1910847916E+00    0.1071057711E+00    0.3950195495E-01    0.2333888698E+00
    0.2700000000E+03    0.7437060314E-01    0.1936741879E+00    0.1096746384E+00    0.4008088308E-01    0.2390694504E+00
    0.2900000000E+03    0.7769163257E-01    0.1958460191E+00    0.1120254100E+00    0.4057362976E-01    0.2442745472E+00
    0.3100000000E+03    0.8088830520E-01    0.1976671231E+00    0.1141884173E+00    0.4099378299E-01    0.2490699676E+00
    0.3300000000E+03    0.8397302864E-01    0.1991914337E+00    0.1161883586E+00    0.4135231934E-01    0.2535093267E+00
    0.3500000000E+03    0.8695643419E-01    0.2004629122E+00    0.1180455749E+00    0.4165819621E-01    0.2576368048E+00
    0.3700000000E+03    0.8984769501E-01    0.2015177172E+00    0.1197769906E+00    0.4191879024E-01    0.2614891812E+00
    0.3900000000E+03    0.9265477714E-01    0.2023858339E+00    0.1213968180E+00    0.4214022668E-01    0.2650973577E+00
    0.4100000000E+03    0.9538463941E-01    0.2030923138E+00    0.1229170922E+00    0.4232763003E-01    0.2684875161E+00
    0.4300000000E+03    0.9804339419E-01    0.2036582294E+00    0.1243480827E+00    0.4248531711E-01    0.2716820089E+00
    0.4500000000E+03    0.1006364376E+00    0.2041014165E+00    0.1256986143E+00    0.4261694731E-01    0.2747000534E+00
    0.4700000000E+03    0.1031685560E+00    0.2044370583E+00    0.1269763187E+00    0.4272564077E-01    0.2775582775E+00
    0.4900000000E+03    0.1056440136E+00    0.2046781482E+00    0.1281878351E+00    0.4281407212E-01    0.2802711543E+00
    0.1000000000E+03    0.3800316458E-01    0.1440653097E+00    0.7449777989E-01    0.2951665669E-01    0.1617927983E+00
    0.3000000000E+03    0.7930469210E-01    0.1967967775E+00    0.1131287254E+00    0.4079204114E-01    0.2467198667E+00
    0.5000000000E+03    0.1068617025E+00    0.2047667904E+00    0.1287706166E+00    0.4285142228E-01    0.2815771081E+00
    0.7000000000E+03    0.1289855551E+00    0.2036022795E+00    0.1380419425E+00    0.4295410100E-01    0.3024461303E+00
    0.9000000000E+03    0.1481068284E+00    0.1996520439E+00    0.1444406603E+00    0.4241741892E-01    0.3169669677E+00
    0.1100000000E+04    0.1652642965E+00    0.1947657730E+00    0.1492362964E+00    0.4163573286E-01    0.3279258154E+00
    0.1300000000E+04    0.1809998917E+00    0.1896165634E+00    0.1530215645E+00    0.4075832157E-01    0.3366289242E+00
    0.1500000000E+04    0.1956339434E+00    0.1844794224E+00    0.1561176874E+00    0.3984983936E-01    0.3437868603E+00
    0.1700000000E+04    0.2093728233E+00    0.1794722809E+00    0.1587169342E+00    0.3894063791E-01    0.3498263755E+00
    0.1900000000E+04    0.2223581865E+00    0.1746446709E+00    0.1609428727E+00    0.3804558566E-01    0.3550225883E+00
    0.2100000000E+04    0.2346921436E+00    0.1700144178E+00    0.1628792834E+00    0.3717201515E-01    0.3595625705E+00
    0.2300000000E+04    0.2464512469E+00    0.1655841440E+00    0.1645853932E+00    0.3632339036E-01    0.3635789256E+00
    0.2500000000E+04    0.2576947768E+00    0.1613491507E+00    0.1661044985E+00    0.3550111608E-01    0.3671688356E+00
    0.2700000000E+04    0.2684699134E+00    0.1573013443E+00    0.1674691320E+00    0.3470547736E-01    0.3704054992E+00
    0.2900000000E+04    0.2788151012E+00    0.1534312430E+00    0.1687043079E+00    0.3393614707E-01    0.3733453259E+00
    0.3100000000E+04    0.2887623149E+00    0.1497290134E+00    0.1698296373E+00    0.3319246815E-01    0.3760326378E+00
    0.3300000000E+04    0.2983386318E+00    0.1461850000E+00    0.1708607556E+00    0.3247361404E-01    0.3785028456E+00
    0.3500000000E+04    0.3075673495E+00    0.1427899839E+00    0.1718103112E+00    0.3177868091E-01    0.3807846523E+00
    0.3700000000E+04    0.3164687978E+00    0.1395352971E+00    0.1726886673E+00    0.3110674103E-01    0.3829016213E+00
    0.3900000000E+04    0.3250609389E+00    0.1364128564E+00    0.1735044115E+00    0.3045687325E-01    0.3848733149E+00
    0.4100000000E+04    0.3333598192E+00    0.1334151573E+00    0.1742647319E+00    0.2982818010E-01    0.3867161372E+00
    0.4300000000E+04    0.3413799138E+00    0.1305352460E+00    0.1749756996E+00    0.2921979685E-01    0.3884439673E+00
    0.4500000000E+04    0.3491343927E+00    0.1277666817E+00    0.1756424839E+00    0.2863089582E-01    0.3900686438E+00
    0.4700000000E+04    0.3566353285E+00    0.1251034964E+00    0.1762695195E+00    0.2806068772E-01    0.3916003385E+00
    0.4900000000E+04    0.3638938612E+00    0.1225401542E+00    0.1768606356E+00    0.2750842150E-01    0.3930478502E+00
    0.1000000000E+04    0.1568900288E+00    0.1972697469E+00    0.1469927829E+00    0.4204489833E-01    0.3227901964E+00
    0.3000000000E+04    0.2838366626E+00    0.1515597559E+00    0.1692796463E+00    0.3356115020E-01    0.3747181537E+00
    0.5000000000E+04    0.3674354853E+00    0.1212943031E+00    0.1771437810E+00    0.2723879204E-01    0.3937424696E+00
    0.7000000000E+04    0.4277290929E+00    0.1005446210E+00    0.1815391057E+00    0.2263244628E-01    0.4046419659E+00
    0.9000000000E+04    0.4724242450E+00    0.8564837154E-01    0.1844442561E+00    0.1919309524E-01    0.4119893225E+00
    0.1100000000E+05    0.5062152009E+00    0.7458934298E-01    0.1865460229E+00    0.1657058120E-01    0.4173949014E+00
    0.1300000000E+05    0.5322318183E+00    0.6614909401E-01    0.1881559005E+00    0.1453180550E-01    0.4215976741E+00
    0.1500000000E+05    0.5526131784E+00    0.5955147787E-01    0.1894387137E+00    0.1291785524E-01    0.4249925427E+00
    0.1700000000E+05    0.5688420352E+00    0.5428443459E-01    0.1904910374E+00    0.1161857049E-01    0.4278128790E+00
    0.1900000000E+05    0.5819604791E+00    0.5000058125E-01    0.1913737386E+00    0.1055637729E-01    0.4302068843E+00
    0.2100000000E+05    0.5927117636E+00    0.4645845486E-01    0.1921273465E+00    0.9675771337E-02    0.4322739173E+00
    0.2300000000E+05    0.6016341315E+00    0.4348648995E-01    0.1927800349E+00    0.8936400371E-02    0.4340834791E+00
    0.2500000000E+05    0.6091233166E+00    0.4096031267E-01    0.1933520782E+00    0.8308465994E-02    0.4356858762E+00
    0.2700000000E+05    0.6154745841E+00    0.3878808416E-01    0.1938584882E+00    0.7769630913E-02    0.4371185607E+00
    0.2900000000E+05    0.6209113473E+00    0.3690083412E-01    0.1943106488E+00    0.7302911217E-02    0.4384100808E+00
    0.3100000000E+05    0.6256049004E+00    0.3524595684E-01    0.1947173695E+00    0.6895219949E-02    0.4395826389E+00
    0.3300000000E+05    0.6296882124E+00    0.3378275314E-01    0.1950855883E+00    0.6536346519E-02    0.4406538032E+00
    0.3500000000E+05    0.6332656998E+00    0.3247932097E-01    0.1954208529E+00    0.6218231566E-02    0.4416376863E+00
    0.3700000000E+05    0.6364202435E+00    0.3131035131E-01    0.1957276590E+00    0.5934444761E-02    0.4425457754E+00
    0.3900000000E+05    0.6392182900E+00    0.3025554193E-01    0.1960096933E+00    0.5679803886E-02    0.4433875313E+00
    0.4100000000E+05    0.6417136080E+00    0.2929843963E-01    0.1962700111E+00    0.5450093528E-02    0.4441708275E+00
    0.4300000000E+05    0.6439500841E+00    0.2842558394E-01    0.1965111687E+00    0.5241854909E-02    0.4449022786E+00
    0.4500000000E+05    0.6459638287E+00    0.2762586610E-01    0.1967353232E+00    0.5052227132E-02    0.4455874883E+00
    0.4700000000E+05    0.6477847774E+00    0.2689004350E-01    0.1969443089E+00    0.4878826001E-02    0.4462312409E+00
    0.4900000000E+05    0.6494379211E+00    0.2621036804E-01    0.1971396969E+00    0.4719650637E-02    0.4468376499E+00
    0.1000000000E+05    0.4904588676E+00    0.7972863301E-01    0.1855711736E+00    0.1779642678E-01    0.4148771446E+00
    0.3000000000E+05    0.6233419468E+00    0.3604712990E-01    0.1945192181E+00    0.7092382932E-02    0.4390100393E+00
    0.5000000000E+05    0.6502082630E+00    0.2588950076E-01    0.1972327224E+00    0.4644858937E-02    0.4471279817E+00
    0.7000000000E+05    0.6604799685E+00    0.2126383627E-01    0.1986275271E+00    0.3597286033E-02    0.4516307410E+00
    0.9000000000E+05    0.6656938757E+00    0.1851805274E-01    0.1994943011E+00    0.3009726048E-02    0.4546166102E+00
    0.1100000000E+06    0.6687907679E+00    0.1665138379E-01    0.2000903003E+00    0.2628568970E-02    0.4567931838E+00
    0.1300000000E+06    0.6708223774E+00    0.1527542811E-01    0.2005269448E+00    0.2358159774E-02    0.4584763453E+00
    0.1500000000E+06    0.6722493367E+00    0.1420570118E-01    0.2008610925E+00    0.2154452560E-02    0.4598316989E+00
    0.1700000000E+06    0.6733026846E+00    0.1334222685E-01    0.2011250696E+00    0.1994286830E-02    0.4609557520E+00
    0.1900000000E+06    0.6741101488E+00    0.1262556616E-01    0.2013387281E+00    0.1864274717E-02    0.4619091492E+00
    0.2100000000E+06    0.6747477174E+00    0.1201787306E-01    0.2015149871E+00    0.1756108834E-02    0.4627322200E+00
    0.2300000000E+06    0.6752632639E+00    0.1149374591E-01    0.2016626435E+00    0.1664342761E-02    0.4634529959E+00
    0.2500000000E+06    0.6756883690E+00    0.1103540868E-01    0.2017879092E+00    0.1585245542E-02    0.4640916638E+00
    0.2700000000E+06    0.6760446676E+00    0.1062999334E-01    0.2018953038E+00    0.1516168203E-02    0.4646631911E+00
    0.2900000000E+06    0.6763474552E+00    0.1026792019E-01    0.2019881992E+00    0.1455173218E-02    0.4651789488E+00
    0.3100000000E+06    0.6766078393E+00    0.9941887721E-02    0.2020691646E+00    0.1400807443E-02    0.4656477563E+00
    0.3300000000E+06    0.6768340728E+00    0.9646218107E-02    0.2021401943E+00    0.1351957436E-02    0.4660765765E+00
    0.3500000000E+06    0.6770324111E+00    0.9376419126E-02    0.2022028606E+00    0.1307754114E-02    0.4664709921E+00
    0.3700000000E+06    0.6772076792E+00    0.9128882669E-02    0.2022584210E+00    0.1267508096E-02    0.4668355402E+00
    0.3900000000E+06    0.6773636561E+00    0.8900672136E-02    0.2023078933E+00    0.1230664735E-02    0.4671739530E+00
    0.4100000000E+06    0.6775033430E+00    0.8689369285E-02    0.2023521107E+00    0.1196772142E-02    0.4674893330E+00
    0.4300000000E+06    0.6776291523E+00    0.8492961812E-02    0.2023917619E+00    0.1165457999E-02    0.4677842843E+00
    0.4500000000E+06    0.6777430446E+00    0.8309759432E-02    0.2024274213E+00    0.1136412444E-02    0.4680610117E+00
    0.4700000000E+06    0.6778466298E+00    0.8138330281E-02    0.2024595719E+00    0.1109375246E-02    0.4683213962E+00
    0.4900000000E+06    0.6779412413E+00    0.7977452058E-02    0.2024886226E+00    0.1084126049E-02    0.4685670546E+00
    0.1000000000E+06    0.6674200076E+00    0.1750626543E-01    0.1998173287E+00    0.2801151856E-02    0.4557812490E+00
    0.3000000000E+06    0.6764823768E+00    0.1010078584E-01    0.2020300371E+00    0.1427237929E-02    0.4654187491E+00
    0.5000000000E+06    0.6779855374E+00    0.7900635354E-02    0.2025020966E+00    0.1072112107E-02    0.4686848059E+00
    0.7000000000E+06    0.6785942114E+00    0.6726364152E-02    0.2026715073E+00    0.8917985963E-03    0.4705246099E+00
    0.9000000000E+06    0.6789232876E+00    0.5965599609E-02    0.2027365304E+00    0.7782678398E-03    0.4717627134E+00
    0.1100000000E+07    0.6791295349E+00    0.5420510643E-02    0.2027551776E+00    0.6984914270E-03    0.4726774444E+00
    0.1300000000E+07    0.6792710234E+00    0.5004852668E-02    0.2027503079E+00    0.6385389269E-03    0.4733935223E+00
    0.1500000000E+07    0.6793742010E+00    0.4674135469E-02    0.2027325718E+00    0.5913873671E-03    0.4739766377E+00
    0.1700000000E+07    0.6794528335E+00    0.4402747153E-02    0.2027074970E+00    0.5530631420E-03    0.4744652619E+00
    0.1900000000E+07    0.6795147915E+00    0.4174751692E-02    0.2026781751E+00    0.5211275257E-03    0.4748836914E+00
    0.2100000000E+07    0.6795649017E+00    0.3979639502E-02    0.2026464307E+00    0.4939902686E-03    0.4752481638E+00
    0.2300000000E+07    0.6796062889E+00    0.3810158680E-02    0.2026133836E+00    0.4705644736E-03    0.4755700200E+00
    0.2500000000E+07    0.6796410658E+00    0.3661120355E-02    0.2025797407E+00    0.4500788212E-03    0.4758574658E+00
    0.2700000000E+07    0.6796707122E+00    0.3528699705E-02    0.2025459568E+00    0.4319688457E-03    0.4761166131E+00
    0.2900000000E+07    0.6796962960E+00    0.3410006455E-02    0.2025123282E+00    0.4158107293E-03    0.4763521262E+00
    0.3100000000E+07    0.6797186068E+00    0.3302810022E-02    0.2024790481E+00    0.4012792692E-03    0.4765676379E+00
    0.3300000000E+07    0.6797382418E+00    0.3205357495E-02    0.2024462416E+00    0.3881202364E-03    0.4767660286E+00
    0.3500000000E+07    0.6797556603E+00    0.3116249516E-02    0.2024139881E+00    0.3761316462E-03    0.4769496170E+00
    0.3700000000E+07    0.6797712222E+00    0.3034353460E-02    0.2023823359E+00    0.3651507316E-03    0.4771202951E+00
    0.3900000000E+07    0.6797852129E+00    0.2958741352E-02    0.2023513117E+00    0.3550446774E-03    0.4772796250E+00
    0.4100000000E+07    0.6797978622E+00    0.2888644591E-02    0.2023209274E+00    0.3457038942E-03    0.4774289101E+00
    0.4300000000E+07    0.6798093566E+00    0.2823420360E-02    0.2022911847E+00    0.3370370508E-03    0.4775692484E+00
    0.4500000000E+07    0.6798198497E+00    0.2762526299E-02    0.2022620783E+00    0.3289673449E-03    0.4777015727E+00
    0.4700000000E+07    0.6798294689E+00    0.2705501162E-02    0.2022335978E+00    0.3214296638E-03    0.4778266818E+00
    0.4900000000E+07    0.6798383205E+00    0.2651949833E-02    0.2022057297E+00    0.3143683952E-03    0.4779452643E+00
    0.1000000000E+07    0.6790370123E+00    0.5672903571E-02    0.2027497970E+00    0.7352677540E-03    0.4722507168E+00
    0.3000000000E+07    0.6797078194E+00    0.3355090213E-02    0.2024956355E+00    0.4083589665E-03    0.4764621871E+00
    0.5000000000E+07    0.6798424871E+00    0.2626368518E-02    0.2021920205E+00    0.3110012061E-03    0.4780022980E+00
    0.7000000000E+07    0.6799013822E+00    0.2234617953E-02    0.2019458070E+00    0.2599381986E-03    0.4789111896E+00
    0.9000000000E+07    0.6799347758E+00    0.1980420539E-02    0.2017419845E+00    0.2273439811E-03    0.4795441993E+00
    0.1100000000E+08    0.6799564386E+00    0.1798261962E-02    0.2015685174E+00    0.2042739683E-03    0.4800248302E+00
    0.1300000000E+08    0.6799717076E+00    0.1659400641E-02    0.2014175674E+00    0.1868614662E-03    0.4804097182E+00
    0.1500000000E+08    0.6799830945E+00    0.1548967748E-02    0.2012839242E+00    0.1731284985E-03    0.4807292779E+00
    0.1700000000E+08    0.6799919406E+00    0.1458392077E-02    0.2011639841E+00    0.1619452275E-03    0.4810016233E+00
    0.1900000000E+08    0.6799990292E+00    0.1382337211E-02    0.2010551607E+00    0.1526136259E-03    0.4812383658E+00
    0.2100000000E+08    0.6800048491E+00    0.1317283053E-02    0.2009555375E+00    0.1446763179E-03    0.4814473700E+00
    0.2300000000E+08    0.6800097217E+00    0.1260800627E-02    0.2008636557E+00    0.1378195570E-03    0.4816341958E+00
    0.2500000000E+08    0.6800138673E+00    0.1211152169E-02    0.2007783795E+00    0.1318200628E-03    0.4818029113E+00
    0.2700000000E+08    0.6800174422E+00    0.1167056991E-02    0.2006988074E+00    0.1265140696E-03    0.4819565779E+00
