  Pressure (Pa) 22mC5-400 (mol/kg) 2mC6-400 (mol/kg) 3mC6-400 (mol/kg) 33mC5-400 (mol/kg) C7-400 (mol/kg)
    0.1000000000E+01    0.5306446916E-03    0.3127606008E-02    0.1549278389E-02    0.1273577892E-03    0.1676180068E-01
    0.3000000000E+01    0.1579334247E-02    0.8905601421E-02    0.4379416677E-02    0.3628403800E-03    0.4739492175E-01
    0.5000000000E+01    0.2611654405E-02    0.1413568122E-01    0.6901285638E-02    0.5762562917E-03    0.7470763936E-01
    0.7000000000E+01    0.3628102523E-02    0.1890390214E-01    0.9163437352E-02    0.7710864937E-03    0.9922210609E-01
    0.9000000000E+01    0.4629155176E-02    0.2327872008E-01    0.1120469538E-01    0.9500976064E-03    0.1213559297E+00
    0.1100000000E+02    0.5615269251E-02    0.2731526869E-01    0.1305647811E-01    0.1115515893E-02    0.1414471288E+00
    0.1300000000E+02    0.6586882966E-02    0.3105845226E-01    0.1474448638E-01    0.1269152977E-02    0.1597722618E+00
    0.1500000000E+02    0.7544416830E-02    0.3454521813E-01    0.1628994954E-01    0.1412498170E-02    0.1765598142E+00
    0.1700000000E+02    0.8488274541E-02    0.3780625114E-01    0.1771055901E-01    0.1546787279E-02    0.1920002305E+00
    0.1900000000E+02    0.9418843832E-02    0.4086725401E-01    0.1902117728E-01    0.1673054582E-02    0.2062535321E+00
    0.2100000000E+02    0.1033649727E-01    0.4374992680E-01    0.2023438276E-01    0.1792172558E-02    0.2194551743E+00
    0.2300000000E+02    0.1124159298E-01    0.4647272454E-01    0.2136089337E-01    0.1904882608E-02    0.2317205984E+00
    0.2500000000E+02    0.1213447538E-01    0.4905144930E-01    0.2240989908E-01    0.2011819049E-02    0.2431488074E+00
    0.2700000000E+02    0.1301547583E-01    0.5149971739E-01    0.2338932555E-01    0.2113528039E-02    0.2538251996E+00
    0.2900000000E+02    0.1388491324E-01    0.5382933116E-01    0.2430604493E-01    0.2210482620E-02    0.2638238363E+00
    0.3100000000E+02    0.1474309467E-01    0.5605057743E-01    0.2516604583E-01    0.2303094801E-02    0.2732092686E+00
    0.3300000000E+02    0.1559031591E-01    0.5817246873E-01    0.2597457130E-01    0.2391725302E-02    0.2820380221E+00
    0.3500000000E+02    0.1642686194E-01    0.6020293985E-01    0.2673623180E-01    0.2476691504E-02    0.2903598114E+00
    0.3700000000E+02    0.1725300749E-01    0.6214900894E-01    0.2745509809E-01    0.2558273949E-02    0.2982185402E+00
    0.3900000000E+02    0.1806901748E-01    0.6401691040E-01    0.2813477831E-01    0.2636721707E-02    0.3056531295E+00
    0.4100000000E+02    0.1887514745E-01    0.6581220521E-01    0.2877848206E-01    0.2712256825E-02    0.3126982084E+00
    0.4300000000E+02    0.1967164399E-01    0.6753987300E-01    0.2938907426E-01    0.2785078034E-02    0.3193846925E+00
    0.4500000000E+02    0.2045874514E-01    0.6920438925E-01    0.2996912032E-01    0.2855363867E-02    0.3257402708E+00
    0.4700000000E+02    0.2123668076E-01    0.7080979044E-01    0.3052092453E-01    0.2923275273E-02    0.3317898182E+00
    0.4900000000E+02    0.2200567289E-01    0.7235972919E-01    0.3104656253E-01    0.2988957842E-02    0.3375557461E+00
    0.1000000000E+02    0.5124051721E-02    0.2533626173E-01    0.1215254724E-01    0.1034384125E-02    0.1316383080E+00
    0.3000000000E+02    0.1431539221E-01    0.5495290958E-01    0.2474279146E-01    0.2257307864E-02    0.2685894975E+00
    0.5000000000E+02    0.2238688246E-01    0.7311494833E-01    0.3130016226E-01    0.3021005080E-02    0.3403387573E+00
    0.7000000000E+02    0.2959010233E-01    0.8597203088E-01    0.3536961904E-01    0.3571399108E-02    0.3851190207E+00
    0.9000000000E+02    0.3610376589E-01    0.9572611692E-01    0.3816321938E-01    0.3996185655E-02    0.4160287878E+00
    0.1100000000E+03    0.4205865489E-01    0.1034229245E+00    0.4021117710E-01    0.4337013842E-02    0.4388091692E+00
    0.1300000000E+03    0.4755290866E-01    0.1096504454E+00    0.4178345473E-01    0.4617370653E-02    0.4563889082E+00
    0.1500000000E+03    0.5266177261E-01    0.1147769786E+00    0.4303255159E-01    0.4852034110E-02    0.4704255626E+00
    0.1700000000E+03    0.5744402359E-01    0.1190505486E+00    0.4405140211E-01    0.5051008666E-02    0.4819311570E+00
    0.1900000000E+03    0.6194632813E-01    0.1226469065E+00    0.4490001960E-01    0.5221422740E-02    0.4915604292E+00
    0.2100000000E+03    0.6620627354E-01    0.1256953291E+00    0.4561897220E-01    0.5368548883E-02    0.4997567845E+00
    0.2300000000E+03    0.7025452295E-01    0.1282936560E+00    0.4623671857E-01    0.5496399278E-02    0.5068318377E+00
    0.2500000000E+03    0.7411637775E-01    0.1305176183E+00    0.4677384352E-01    0.5608096050E-02    0.5130113909E+00
    0.2700000000E+03    0.7781293036E-01    0.1324269145E+00    0.4724562488E-01    0.5706113165E-02    0.5184633301E+00
    0.2900000000E+03    0.8136192814E-01    0.1340693262E+00    0.4766365340E-01    0.5792440785E-02    0.5233152472E+00
    0.3100000000E+03    0.8477843019E-01    0.1354835934E+00    0.4803689066E-01    0.5868700519E-02    0.5276659633E+00
    0.3300000000E+03    0.8807531303E-01    0.1367014779E+00    0.4837238073E-01    0.5936228374E-02    0.5315932883E+00
    0.3500000000E+03    0.9126366466E-01    0.1377492756E+00    0.4867574143E-01    0.5996135779E-02    0.5351593822E+00
    0.3700000000E+03    0.9435309492E-01    0.1386489463E+00    0.4895151104E-01    0.6049355317E-02    0.5384145449E+00
    0.3900000000E+03    0.9735198225E-01    0.1394189708E+00    0.4920339810E-01    0.6096675548E-02    0.5413999478E+00
    0.4100000000E+03    0.1002676720E+00    0.1400750111E+00    0.4943446443E-01    0.6138767896E-02    0.5441496387E+00
    0.4300000000E+03    0.1031066365E+00    0.1406304244E+00    0.4964726157E-01    0.6176207668E-02    0.5466920369E+00
    0.4500000000E+03    0.1058746064E+00    0.1410966680E+00    0.4984393381E-01    0.6209490669E-02    0.5490510645E+00
    0.4700000000E+03    0.1085766780E+00    0.1414836222E+00    0.5002629710E-01    0.6239046459E-02    0.5512470126E+00
    0.4900000000E+03    0.1112174022E+00    0.1417998487E+00    0.5019590017E-01    0.6265249032E-02    0.5532972141E+00
    0.1000000000E+03    0.3914429297E-01    0.9978802969E-01    0.3925973976E-01    0.4175353057E-02    0.4282110996E+00
    0.3000000000E+03    0.8308589028E-01    0.1348028491E+00    0.4785539235E-01    0.5831739747E-02    0.5255479719E+00
    0.5000000000E+03    0.1125160505E+00    0.1419338066E+00    0.5027633955E-01    0.6277196709E-02    0.5542723995E+00
    0.7000000000E+03    0.1360674674E+00    0.1422810563E+00    0.5145689610E-01    0.6401290468E-02    0.5688412619E+00
    0.9000000000E+03    0.1563507980E+00    0.1402074784E+00    0.5216432481E-01    0.6398394415E-02    0.5778903719E+00
    0.1100000000E+04    0.1744929539E+00    0.1371352019E+00    0.5263802971E-01    0.6335434838E-02    0.5841575896E+00
    0.1300000000E+04    0.1910835017E+00    0.1336391471E+00    0.5297820821E-01    0.6241177734E-02    0.5888053500E+00
    0.1500000000E+04    0.2064710048E+00    0.1299835180E+00    0.5323456492E-01    0.6129819308E-02    0.5924180697E+00
    0.1700000000E+04    0.2208798986E+00    0.1262999846E+00    0.5343469216E-01    0.6009063516E-02    0.5953243245E+00
    0.1900000000E+04    0.2344641592E+00    0.1226574884E+00    0.5359519055E-01    0.5883389137E-02    0.5977242271E+00
    0.2100000000E+04    0.2473347784E+00    0.1190929553E+00    0.5372667178E-01    0.5755537078E-02    0.5997472166E+00
    0.2300000000E+04    0.2595750241E+00    0.1156260283E+00    0.5383624840E-01    0.5627250533E-02    0.6014810538E+00
    0.2500000000E+04    0.2712494743E+00    0.1122666205E+00    0.5392887284E-01    0.5499669990E-02    0.6029875370E+00
    0.2700000000E+04    0.2824096435E+00    0.1090189962E+00    0.5400810325E-01    0.5373556275E-02    0.6043115584E+00
    0.2900000000E+04    0.2930976348E+00    0.1058840723E+00    0.5407656399E-01    0.5249422529E-02    0.6054865905E+00
    0.3100000000E+04    0.3033485930E+00    0.1028607601E+00    0.5413623436E-01    0.5127615456E-02    0.6065381500E+00
    0.3300000000E+04    0.3131924017E+00    0.9994677086E-01    0.5418863606E-01    0.5008367052E-02    0.6074860633E+00
    0.3500000000E+04    0.3226548852E+00    0.9713910952E-01    0.5423495868E-01    0.4891828551E-02    0.6083459932E+00
    0.3700000000E+04    0.3317586791E+00    0.9443438303E-01    0.5427614590E-01    0.4778093273E-02    0.6091304946E+00
    0.3900000000E+04    0.3405238719E+00    0.9182899543E-01    0.5431295610E-01    0.4667212374E-02    0.6098497619E+00
    0.4100000000E+04    0.3489684855E+00    0.8931927224E-01    0.5434600585E-01    0.4559205932E-02    0.6105121687E+00
    0.4300000000E+04    0.3571088412E+00    0.8690154005E-01    0.5437580161E-01    0.4454070902E-02    0.6111246640E+00
    0.4500000000E+04    0.3649598415E+00    0.8457217728E-01    0.5440276332E-01    0.4351786918E-02    0.6116930687E+00
    0.4700000000E+04    0.3725351894E+00    0.8232764618E-01    0.5442724215E-01    0.4252320596E-02    0.6122222999E+00
    0.4900000000E+04    0.3798475620E+00    0.8016451242E-01    0.5444953405E-01    0.4155628769E-02    0.6127165434E+00
    0.1000000000E+04    0.1656449199E+00    0.1387495268E+00    0.5242239672E-01    0.6372129385E-02    0.5812792941E+00
    0.3000000000E+04    0.2982757680E+00    0.1043585866E+00    0.5410739385E-01    0.5188211435E-02    0.6060264525E+00
    0.5000000000E+04    0.3834088481E+00    0.7911242753E-01    0.5445993989E-01    0.4108307746E-02    0.6129516864E+00
    0.7000000000E+04    0.4433269548E+00    0.6160322933E-01    0.5459803770E-01    0.3293106596E-02    0.6164696638E+00
    0.9000000000E+04    0.4868019045E+00    0.4920609760E-01    0.5466339519E-01    0.2684205670E-02    0.6186577814E+00
    0.1100000000E+05    0.5190938750E+00    0.4021775481E-01    0.5469621698E-01    0.2225374379E-02    0.6201711558E+00
    0.1300000000E+05    0.5436068708E+00    0.3354614239E-01    0.5471214534E-01    0.1874535674E-02    0.6212901070E+00
    0.1500000000E+05    0.5625974085E+00    0.2848315932E-01    0.5471845229E-01    0.1601874092E-02    0.6221567483E+00
    0.1700000000E+05    0.5775877932E+00    0.2456181995E-01    0.5471893332E-01    0.1386519541E-02    0.6228514430E+00
    0.1900000000E+05    0.5896235826E+00    0.2146806208E-01    0.5471573724E-01    0.1213808744E-02    0.6234232769E+00
    0.2100000000E+05    0.5994363298E+00    0.1898631165E-01    0.5471015601E-01    0.1073328302E-02    0.6239040167E+00
    0.2300000000E+05    0.6075474280E+00    0.1696558493E-01    0.5470300284E-01    0.9575809269E-03    0.6243151746E+00
    0.2500000000E+05    0.6143351776E+00    0.1529807756E-01    0.5469480835E-01    0.8610888227E-03    0.6246718628E+00
    0.2700000000E+05    0.6200787368E+00    0.1390540932E-01    0.5468592867E-01    0.7797903188E-03    0.6249850254E+00
    0.2900000000E+05    0.6249873878E+00    0.1272962557E-01    0.5467660827E-01    0.7106305854E-03    0.6252627937E+00
    0.3100000000E+05    0.6292203488E+00    0.1172720240E-01    0.5466701800E-01    0.6512808039E-03    0.6255113433E+00
    0.3300000000E+05    0.6329004079E+00    0.1086498111E-01    0.5465727889E-01    0.5999429698E-03    0.6257354544E+00
    0.3500000000E+05    0.6361234531E+00    0.1011736379E-01    0.5464747755E-01    0.5552123789E-03    0.6259388891E+00
    0.3700000000E+05    0.6389652387E+00    0.9464347463E-02    0.5463767637E-01    0.5159794480E-03    0.6261246520E+00
    0.3900000000E+05    0.6414862549E+00    0.8890124846E-02    0.5462792044E-01    0.4813587014E-03    0.6262951741E+00
    0.4100000000E+05    0.6437352839E+00    0.8382074299E-02    0.5461824234E-01    0.4506367614E-03    0.6264524453E+00
    0.4300000000E+05    0.6457520267E+00    0.7930020852E-02    0.5460866544E-01    0.4232338035E-03    0.6265981119E+00
    0.4500000000E+05    0.6475690689E+00    0.7525688855E-02    0.5459920639E-01    0.3986746674E-03    0.6267335481E+00
    0.4700000000E+05    0.6492133670E+00    0.7162291799E-02    0.5458987673E-01    0.3765669750E-03    0.6268599119E+00
    0.4900000000E+05    0.6507073848E+00    0.6834221592E-02    0.5458068427E-01    0.3565843886E-03    0.6269781858E+00
    0.1000000000E+05    0.5040998100E+00    0.4436524822E-01    0.5468260247E-01    0.2438987551E-02    0.6194765788E+00
    0.3000000000E+05    0.6271799293E+00    0.1220902148E-01    0.5467183835E-01    0.6798524266E-03    0.6253903945E+00
    0.5000000000E+05    0.6514040500E+00    0.6681944058E-02    0.5457614113E-01    0.3473028440E-03    0.6270345565E+00
    0.7000000000E+05    0.6607395486E+00    0.4686623617E-02    0.5449281384E-01    0.2257234194E-03    0.6278892346E+00
    0.9000000000E+05    0.6655366793E+00    0.3693911563E-02    0.5442225904E-01    0.1660128892E-03    0.6284383225E+00
    0.1100000000E+06    0.6684215554E+00    0.3104890210E-02    0.5436159209E-01    0.1314203099E-03    0.6288315191E+00
    0.1300000000E+06    0.6703363354E+00    0.2714666602E-02    0.5430850789E-01    0.1091518335E-03    0.6291323452E+00
    0.1500000000E+06    0.6716959019E+00    0.2436072601E-02    0.5426135656E-01    0.9373163017E-04    0.6293729934E+00
    0.1700000000E+06    0.6727096244E+00    0.2226220926E-02    0.5421895374E-01    0.8246780421E-04    0.6295717745E+00
    0.1900000000E+06    0.6734939784E+00    0.2061692864E-02    0.5418043041E-01    0.7389822838E-04    0.6297399874E+00
    0.2100000000E+06    0.6741186875E+00    0.1928656871E-02    0.5414513343E-01    0.6716652841E-04    0.6298850412E+00
    0.2300000000E+06    0.6746279420E+00    0.1818428281E-02    0.5411256074E-01    0.6174059296E-04    0.6300120279E+00
    0.2500000000E+06    0.6750510619E+00    0.1725280076E-02    0.5408231864E-01    0.5727368400E-04    0.6301245820E+00
    0.2700000000E+06    0.6754082446E+00    0.1645280979E-02    0.5405409293E-01    0.5353083983E-04    0.6302253781E+00
    0.2900000000E+06    0.6757138453E+00    0.1575640663E-02    0.5402762897E-01    0.5034753904E-04    0.6303164361E+00
    0.3100000000E+06    0.6759783417E+00    0.1514321889E-02    0.5400271754E-01    0.4760533156E-04    0.6303993143E+00
    0.3300000000E+06    0.6762095566E+00    0.1459800886E-02    0.5397918470E-01    0.4521687148E-04    0.6304752380E+00
    0.3500000000E+06    0.6764134475E+00    0.1410913888E-02    0.5395688426E-01    0.4311639566E-04    0.6305451859E+00
    0.3700000000E+06    0.6765946299E+00    0.1366755747E-02    0.5393569220E-01    0.4125347949E-04    0.6306099511E+00
    0.3900000000E+06    0.6767567346E+00    0.1326611098E-02    0.5391550237E-01    0.3958883098E-04    0.6306701842E+00
    0.4100000000E+06    0.6769026568E+00    0.1289906489E-02    0.5389622326E-01    0.3809139052E-04    0.6307264250E+00
    0.4300000000E+06    0.6770347333E+00    0.1256176387E-02    0.5387777538E-01    0.3673628848E-04    0.6307791256E+00
    0.4500000000E+06    0.6771548705E+00    0.1225038562E-02    0.5386008924E-01    0.3550337979E-04    0.6308286683E+00
    0.4700000000E+06    0.6772646397E+00    0.1196175960E-02    0.5384310378E-01    0.3437617455E-04    0.6308753787E+00
    0.4900000000E+06    0.6773653469E+00    0.1169323153E-02    0.5382676502E-01    0.3334104564E-04    0.6309195364E+00
    0.1000000000E+06    0.6671403632E+00    0.3366019931E-02    0.5439085115E-01    0.1466409126E-03    0.6286493648E+00
    0.3000000000E+06    0.6758506913E+00    0.1544046238E-02    0.5401499079E-01    0.4892735519E-04    0.6303588144E+00
    0.5000000000E+06    0.6774126515E+00    0.1156579008E-02    0.5381882296E-01    0.3285438451E-04    0.6309407348E+00
    0.7000000000E+06    0.6780746798E+00    0.9674447807E-03    0.5368467710E-01    0.2598258228E-04    0.6312752010E+00
    0.9000000000E+06    0.6784449851E+00    0.8498314699E-03    0.5358244293E-01    0.2203809554E-04    0.6315046415E+00
    0.1100000000E+07    0.6786835954E+00    0.7675074614E-03    0.5349974652E-01    0.1942189518E-04    0.6316770913E+00
    0.1300000000E+07    0.6788512075E+00    0.7056694262E-03    0.5343027006E-01    0.1753177160E-04    0.6318141710E+00
    0.1500000000E+07    0.6789760074E+00    0.6569824140E-03    0.5337034455E-01    0.1608706486E-04    0.6319273384E+00
    0.1700000000E+07    0.6790729119E+00    0.6173381718E-03    0.5331764728E-01    0.1493792449E-04    0.6320233491E+00
    0.1900000000E+07    0.6791505766E+00    0.5842307882E-03    0.5327061357E-01    0.1399639678E-04    0.6321064986E+00
    0.2100000000E+07    0.6792143802E+00    0.5560323167E-03    0.5322813861E-01    0.1320712435E-04    0.6321796772E+00
    0.2300000000E+07    0.6792678474E+00    0.5316325723E-03    0.5318941303E-01    0.1253334529E-04    0.6322449168E+00
    0.2500000000E+07    0.6793133880E+00    0.5102446737E-03    0.5315382596E-01    0.1194958612E-04    0.6323036970E+00
    0.2700000000E+07    0.6793527079E+00    0.4912930807E-03    0.5312090495E-01    0.1143757531E-04    0.6323571267E+00
    0.2900000000E+07    0.6793870498E+00    0.4743456911E-03    0.5309027700E-01    0.1098382690E-04    0.6324060572E+00
    0.3100000000E+07    0.6794173415E+00    0.4590708582E-03    0.5306164244E-01    0.1057814456E-04    0.6324511551E+00
    0.3300000000E+07    0.6794442903E+00    0.4452091856E-03    0.5303475686E-01    0.1021265921E-04    0.6324929520E+00
    0.3500000000E+07    0.6794684454E+00    0.4325544440E-03    0.5300941831E-01    0.9881189138E-05    0.6325318782E+00
    0.3700000000E+07    0.6794902400E+00    0.4209403136E-03    0.5298545796E-01    0.9578802539E-05    0.6325682863E+00
    0.3900000000E+07    0.6795100207E+00    0.4102309596E-03    0.5296273323E-01    0.9301510897E-05    0.6326024692E+00
    0.4100000000E+07    0.6795280680E+00    0.4003141948E-03    0.5294112265E-01    0.9046049443E-05    0.6326346720E+00
    0.4300000000E+07    0.6795446118E+00    0.3910964300E-03    0.5292052181E-01    0.8809716908E-05    0.6326651026E+00
    0.4500000000E+07    0.6795598425E+00    0.3824988831E-03    0.5290084038E-01    0.8590256559E-05    0.6326939382E+00
    0.4700000000E+07    0.6795739187E+00    0.3744546937E-03    0.5288199964E-01    0.8385766522E-05    0.6327213310E+00
    0.4900000000E+07    0.6795869741E+00    0.3669066962E-03    0.5286393057E-01    0.8194631242E-05    0.6327474130E+00
    0.1000000000E+07    0.6785758111E+00    0.8054418476E-03    0.5353913314E-01    0.2061297300E-04    0.6315962969E+00
    0.3000000000E+07    0.6794026534E+00    0.4665168524E-03    0.5307572695E-01    0.1077551512E-04    0.6324290492E+00
    0.5000000000E+07    0.6795931551E+00    0.3633031205E-03    0.5285516611E-01    0.8103631761E-05    0.6327599989E+00
    0.7000000000E+07    0.6796834232E+00    0.3082796247E-03    0.5270879158E-01    0.6734365502E-05    0.6329643752E+00
    0.9000000000E+07    0.6797377319E+00    0.2727300188E-03    0.5259904004E-01    0.5869971503E-05    0.6331112170E+00
    0.1100000000E+08    0.6797746790E+00    0.2473254755E-03    0.5251119889E-01    0.5262196669E-05    0.6332253579E+00
    0.1300000000E+08    0.6798017801E+00    0.2279976969E-03    0.5243795834E-01    0.4805510998E-05    0.6333184841E+00
    0.1500000000E+08    0.6798226972E+00    0.2126501498E-03    0.5237515016E-01    0.4446496836E-05    0.6333970030E+00
    0.1700000000E+08    0.6798394451E+00    0.2000776245E-03    0.5232017057E-01    0.4154863405E-05    0.6334647983E+00
    0.1900000000E+08    0.6798532315E+00    0.1895313490E-03    0.5227128352E-01    0.3911997374E-05    0.6335243967E+00
    0.2100000000E+08    0.6798648287E+00    0.1805182429E-03    0.5222727334E-01    0.3705753294E-05    0.6335775325E+00
    0.2300000000E+08    0.6798747553E+00    0.1726985404E-03    0.5218725544E-01    0.3527827469E-05    0.6336254460E+00
    0.2500000000E+08    0.6798833740E+00    0.1658294496E-03    0.5215056607E-01    0.3372326638E-05    0.6336690544E+00
    0.2700000000E+08    0.6798909467E+00    0.1597322207E-03    0.5211669435E-01    0.3234938257E-05    0.6337090545E+00
