  Pressure (Pa) 22mC5-400 (mol/kg) 2mC6-400 (mol/kg) 3mC6-400 (mol/kg) 33mC5-400 (mol/kg) C7-400 (mol/kg)
    0.1000000000E+01    0.5305452997E-03    0.3163254475E-02    0.3665925826E-02    0.3219758736E-03    0.5099051715E-02
    0.3000000000E+01    0.1578458635E-02    0.9195466352E-02    0.1063607824E-01    0.9361982211E-03    0.1479634402E-01
    0.5000000000E+01    0.2609272971E-02    0.1486664696E-01    0.1716367134E-01    0.1513957428E-02    0.2388078771E-01
    0.7000000000E+01    0.3623531300E-02    0.2021020913E-01    0.2329099317E-01    0.2058635931E-02    0.3241085721E-01
    0.9000000000E+01    0.4621752902E-02    0.2525541995E-01    0.2905506684E-01    0.2573195485E-02    0.4043775214E-01
    0.1100000000E+02    0.5604434650E-02    0.3002803202E-01    0.3448844712E-01    0.3060241318E-02    0.4800649755E-01
    0.1300000000E+02    0.6572052220E-02    0.3455080245E-01    0.3961987663E-01    0.3522074873E-02    0.5515685017E-01
    0.1500000000E+02    0.7525061230E-02    0.3884392226E-01    0.4447482952E-01    0.3960737426E-02    0.6192404944E-01
    0.1700000000E+02    0.8463898301E-02    0.4292537364E-01    0.4907596459E-01    0.4378046377E-02    0.6833944345E-01
    0.1900000000E+02    0.9388982052E-02    0.4681122894E-01    0.5344350503E-01    0.4775625608E-02    0.7443101355E-01
    0.2100000000E+02    0.1030071403E-01    0.5051590206E-01    0.5759555822E-01    0.5154931008E-02    0.8022381611E-01
    0.2300000000E+02    0.1119947961E-01    0.5405236102E-01    0.6154838632E-01    0.5517272041E-02    0.8574035652E-01
    0.2500000000E+02    0.1208564875E-01    0.5743230835E-01    0.6531663640E-01    0.5863830057E-02    0.9100090703E-01
    0.2700000000E+02    0.1295957687E-01    0.6066633500E-01    0.6891353685E-01    0.6195673904E-02    0.9602377825E-01
    0.2900000000E+02    0.1382160545E-01    0.6376405213E-01    0.7235106581E-01    0.6513773296E-02    0.1008255519E+00
    0.3100000000E+02    0.1467206283E-01    0.6673420446E-01    0.7564009606E-01    0.6819010302E-02    0.1054212809E+00
    0.3300000000E+02    0.1551126477E-01    0.6958476805E-01    0.7879052026E-01    0.7112189261E-02    0.1098246629E+00
    0.3500000000E+02    0.1633951510E-01    0.7232303504E-01    0.8181135947E-01    0.7394045373E-02    0.1140481897E+00
    0.3700000000E+02    0.1715710626E-01    0.7495568729E-01    0.8471085751E-01    0.7665252155E-02    0.1181032780E+00
    0.3900000000E+02    0.1796431985E-01    0.7748886063E-01    0.8749656336E-01    0.7926427955E-02    0.1220003833E+00
    0.4100000000E+02    0.1876142714E-01    0.7992820100E-01    0.9017540321E-01    0.8178141632E-02    0.1257490997E+00
    0.4300000000E+02    0.1954868956E-01    0.8227891380E-01    0.9275374375E-01    0.8420917558E-02    0.1293582468E+00
    0.4500000000E+02    0.2032635911E-01    0.8454580726E-01    0.9523744787E-01    0.8655240004E-02    0.1328359473E+00
    0.4700000000E+02    0.2109467884E-01    0.8673333072E-01    0.9763192379E-01    0.8881557018E-02    0.1361896948E+00
    0.4900000000E+02    0.2185388320E-01    0.8884560856E-01    0.9994216859E-01    0.9100283850E-02    0.1394264136E+00
    0.1000000000E+02    0.5115006045E-02    0.2767431372E-01    0.3181121475E-01    0.2820007207E-02    0.4427679474E-01
    0.3000000000E+02    0.1424826052E-01    0.6526455843E-01    0.7401350335E-01    0.6667947611E-02    0.1031482860E+00
    0.5000000000E+02    0.2223013814E-01    0.8987473782E-01    0.1010671631E+00    0.9206922501E-02    0.1410029089E+00
    0.7000000000E+02    0.2932775883E-01    0.1073059793E+00    0.1201028725E+00    0.1102162606E-01    0.1677166713E+00
    0.9000000000E+02    0.3572851324E-01    0.1202732224E+00    0.1343496460E+00    0.1238523497E-01    0.1877663672E+00
    0.1100000000E+03    0.4156812440E-01    0.1302443121E+00    0.1454898128E+00    0.1344533475E-01    0.2034867571E+00
    0.1300000000E+03    0.4694756515E-01    0.1380943111E+00    0.1544898380E+00    0.1428991202E-01    0.2162204289E+00
    0.1500000000E+03    0.5194369118E-01    0.1443826990E+00    0.1619465330E+00    0.1497525718E-01    0.2267972565E+00
    0.1700000000E+03    0.5661616486E-01    0.1494863760E+00    0.1682495454E+00    0.1553933221E-01    0.2357595654E+00
    0.1900000000E+03    0.6101210282E-01    0.1536697115E+00    0.1736647852E+00    0.1600880324E-01    0.2434778054E+00
    0.2100000000E+03    0.6516927915E-01    0.1571241943E+00    0.1783803805E+00    0.1640301846E-01    0.2502143084E+00
    0.2300000000E+03    0.6911838479E-01    0.1599921974E+00    0.1825334738E+00    0.1673639143E-01    0.2561604850E+00
    0.2500000000E+03    0.7288465434E-01    0.1623818990E+00    0.1862265961E+00    0.1701989735E-01    0.2614595675E+00
    0.2700000000E+03    0.7648905875E-01    0.1643770159E+00    0.1895380734E+00    0.1726204922E-01    0.2662210728E+00
    0.2900000000E+03    0.7994919442E-01    0.1660433598E+00    0.1925288679E+00    0.1746955571E-01    0.2705303142E+00
    0.3100000000E+03    0.8327995564E-01    0.1674333763E+00    0.1952472057E+00    0.1764777674E-01    0.2744548402E+00
    0.3300000000E+03    0.8649405017E-01    0.1685893612E+00    0.1977317881E+00    0.1780104656E-01    0.2780489053E+00
    0.3500000000E+03    0.8960239928E-01    0.1695457866E+00    0.2000140702E+00    0.1793290764E-01    0.2813566430E+00
    0.3700000000E+03    0.9261445169E-01    0.1703310135E+00    0.2021199094E+00    0.1804628297E-01    0.2844143631E+00
    0.3900000000E+03    0.9553843246E-01    0.1709685733E+00    0.2040707789E+00    0.1814360509E-01    0.2872522444E+00
    0.4100000000E+03    0.9838154218E-01    0.1714781394E+00    0.2058846760E+00    0.1822691412E-01    0.2898956011E+00
    0.4300000000E+03    0.1011501177E+00    0.1718762742E+00    0.2075768112E+00    0.1829793312E-01    0.2923658451E+00
    0.4500000000E+03    0.1038497632E+00    0.1721770090E+00    0.2091601376E+00    0.1835812671E-01    0.2946812251E+00
    0.4700000000E+03    0.1064854572E+00    0.1723923002E+00    0.2106457634E+00    0.1840874723E-01    0.2968574027E+00
    0.4900000000E+03    0.1090616414E+00    0.1725323902E+00    0.2120432749E+00    0.1845087131E-01    0.2989079051E+00
    0.1000000000E+03    0.3871148385E-01    0.1255689666E+00    0.1402362307E+00    0.1294675701E-01    0.1960679781E+00
    0.3000000000E+03    0.8162990652E-01    0.1667700584E+00    0.1939194822E+00    0.1756203507E-01    0.2725370064E+00
    0.5000000000E+03    0.1103286768E+00    0.1725770393E+00    0.2127116321E+00    0.1846904292E-01    0.2998897617E+00
    0.7000000000E+03    0.1333234078E+00    0.1711243333E+00    0.2229952397E+00    0.1855671458E-01    0.3151102521E+00
    0.9000000000E+03    0.1531554317E+00    0.1674362245E+00    0.2296942373E+00    0.1836159713E-01    0.3251668897E+00
    0.1100000000E+04    0.1709172330E+00    0.1629921365E+00    0.2344912034E+00    0.1804990541E-01    0.3324591067E+00
    0.1300000000E+04    0.1871796327E+00    0.1583358913E+00    0.2381377369E+00    0.1768698704E-01    0.3380658942E+00
    0.1500000000E+04    0.2022800230E+00    0.1536922351E+00    0.2410266093E+00    0.1730244505E-01    0.3425545273E+00
    0.1700000000E+04    0.2164356553E+00    0.1491590664E+00    0.2433856341E+00    0.1691098410E-01    0.3462558703E+00
    0.1900000000E+04    0.2297955778E+00    0.1447785878E+00    0.2453571967E+00    0.1652036858E-01    0.3493777940E+00
    0.2100000000E+04    0.2424672068E+00    0.1405669119E+00    0.2470354454E+00    0.1613485729E-01    0.3520584206E+00
    0.2300000000E+04    0.2545310872E+00    0.1365274573E+00    0.2484854357E+00    0.1575682664E-01    0.3543936365E+00
    0.2500000000E+04    0.2660496321E+00    0.1326573916E+00    0.2497537421E+00    0.1538759344E-01    0.3564523927E+00
    0.2700000000E+04    0.2770725716E+00    0.1289508685E+00    0.2508746938E+00    0.1502785576E-01    0.3582857290E+00
    0.2900000000E+04    0.2876404909E+00    0.1254007035E+00    0.2518742190E+00    0.1467793996E-01    0.3599323530E+00
    0.3100000000E+04    0.2977872120E+00    0.1219992540E+00    0.2527723118E+00    0.1433794432E-01    0.3614222314E+00
    0.3300000000E+04    0.3075414406E+00    0.1187388809E+00    0.2535846672E+00    0.1400782517E-01    0.3627789784E+00
    0.3500000000E+04    0.3169279364E+00    0.1156121858E+00    0.2543237988E+00    0.1368744987E-01    0.3640214919E+00
    0.3700000000E+04    0.3259683602E+00    0.1126121239E+00    0.2549998207E+00    0.1337663011E-01    0.3651651014E+00
    0.3900000000E+04    0.3346818999E+00    0.1097320504E+00    0.2556210065E+00    0.1307514324E-01    0.3662223916E+00
    0.4100000000E+04    0.3430857400E+00    0.1069657293E+00    0.2561941977E+00    0.1278274614E-01    0.3672038051E+00
    0.4300000000E+04    0.3511954190E+00    0.1043073225E+00    0.2567251065E+00    0.1249918437E-01    0.3681180903E+00
    0.4500000000E+04    0.3590251051E+00    0.1017513702E+00    0.2572185439E+00    0.1222419821E-01    0.3689726399E+00
    0.4700000000E+04    0.3665878115E+00    0.9929276527E-01    0.2576785940E+00    0.1195752676E-01    0.3697737503E+00
    0.4900000000E+04    0.3738955659E+00    0.9692672823E-01    0.2581087490E+00    0.1169891068E-01    0.3705268224E+00
    0.1000000000E+04    0.1622519190E+00    0.1652634178E+00    0.2322714052E+00    0.1821499430E-01    0.3290738982E+00
    0.3000000000E+04    0.2927646028E+00    0.1236818704E+00    0.2523348779E+00    0.1450670226E-01    0.3606952827E+00
    0.5000000000E+04    0.3774573592E+00    0.9577701228E-01    0.2583135716E+00    0.1157254326E-01    0.3708868266E+00
    0.7000000000E+04    0.4376765160E+00    0.7669162257E-01    0.2613899185E+00    0.9408740442E-02    0.3764221962E+00
    0.9000000000E+04    0.4817525943E+00    0.6314476794E-01    0.2633136019E+00    0.7797387139E-02    0.3800382934E+00
    0.1100000000E+05    0.5147213555E+00    0.5323949028E-01    0.2646479686E+00    0.6578851857E-02    0.3826433250E+00
    0.1300000000E+05    0.5398848114E+00    0.4580590332E-01    0.2656356612E+00    0.5641456497E-02    0.3846383720E+00
    0.1500000000E+05    0.5594603212E+00    0.4009530772E-01    0.2664001233E+00    0.4907766636E-02    0.3862318782E+00
    0.1700000000E+05    0.5749606244E+00    0.3561523614E-01    0.2670114302E+00    0.4323923993E-02    0.3875443785E+00
    0.1900000000E+05    0.5874344489E+00    0.3203381357E-01    0.2675125940E+00    0.3852098774E-02    0.3886510759E+00
    0.2100000000E+05    0.5976212122E+00    0.2912227301E-01    0.2679316123E+00    0.3465363231E-02    0.3896016474E+00
    0.2300000000E+05    0.6060512310E+00    0.2671953861E-01    0.2682875639E+00    0.3144263239E-02    0.3904304051E+00
    0.2500000000E+05    0.6131112655E+00    0.2470992683E-01    0.2685939378E+00    0.2874528760E-02    0.3911619149E+00
    0.2700000000E+05    0.6190879263E+00    0.2300881383E-01    0.2688605636E+00    0.2645535178E-02    0.3918142915E+00
    0.2900000000E+05    0.6241968334E+00    0.2155323703E-01    0.2690947878E+00    0.2449258319E-02    0.3924012277E+00
    0.3100000000E+05    0.6286025010E+00    0.2029561281E-01    0.2693022204E+00    0.2279555761E-02    0.3929332932E+00
    0.3300000000E+05    0.6324321047E+00    0.1919945955E-01    0.2694872255E+00    0.2131665833E-02    0.3934187965E+00
    0.3500000000E+05    0.6357851568E+00    0.1823643515E-01    0.2696532524E+00    0.2001853560E-02    0.3938643725E+00
    0.3700000000E+05    0.6387404040E+00    0.1738425145E-01    0.2698030668E+00    0.1887157071E-02    0.3942753929E+00
    0.3900000000E+05    0.6413608125E+00    0.1662518344E-01    0.2699389136E+00    0.1785203579E-02    0.3946562609E+00
    0.4100000000E+05    0.6436972185E+00    0.1594498839E-01    0.2700626355E+00    0.1694074195E-02    0.3950106250E+00
    0.4300000000E+05    0.6457910332E+00    0.1533211165E-01    0.2701757604E+00    0.1612203416E-02    0.3953415383E+00
    0.4500000000E+05    0.6476762720E+00    0.1477709587E-01    0.2702795662E+00    0.1538303581E-02    0.3956515782E+00
    0.4700000000E+05    0.6493810913E+00    0.1427213639E-01    0.2703751310E+00    0.1471307470E-02    0.3959429381E+00
    0.4900000000E+05    0.6509289665E+00    0.1381074297E-01    0.2704633707E+00    0.1410324268E-02    0.3962174983E+00
    0.1000000000E+05    0.4993878298E+00    0.5782254517E-01    0.2640352249E+00    0.7146948009E-02    0.3814356103E+00
    0.3000000000E+05    0.6264788781E+00    0.2090218129E-01    0.2692015556E+00    0.2361410485E-02    0.3926735549E+00
    0.5000000000E+05    0.6516503343E+00    0.1359464950E-01    0.2705049929E+00    0.1381848810E-02    0.3963489944E+00
    0.7000000000E+05    0.6612808164E+00    0.1061256963E-01    0.2710945643E+00    0.9970151789E-03    0.3983950390E+00
    0.9000000000E+05    0.6661875544E+00    0.8970938177E-02    0.2714200147E+00    0.7953214250E-03    0.3997640112E+00
    0.1100000000E+06    0.6691141214E+00    0.7913058986E-02    0.2716183985E+00    0.6714236269E-03    0.4007721214E+00
    0.1300000000E+06    0.6710416594E+00    0.7163327920E-02    0.2717461546E+00    0.5873497904E-03    0.4015597149E+00
    0.1500000000E+06    0.6724005164E+00    0.6597545096E-02    0.2718308633E+00    0.5263026755E-03    0.4022002447E+00
    0.1700000000E+06    0.6734069777E+00    0.6151297096E-02    0.2718876021E+00    0.4797611478E-03    0.4027365343E+00
    0.1900000000E+06    0.6741808783E+00    0.5787678842E-02    0.2719252964E+00    0.4429559884E-03    0.4031955373E+00
    0.2100000000E+06    0.6747936701E+00    0.5483918263E-02    0.2719495545E+00    0.4130127923E-03    0.4035952199E+00
    0.2300000000E+06    0.6752904668E+00    0.5225136010E-02    0.2719640673E+00    0.3880961522E-03    0.4039481043E+00
    0.2500000000E+06    0.6757010917E+00    0.5001157699E-02    0.2719713553E+00    0.3669785603E-03    0.4042632357E+00
    0.2700000000E+06    0.6760460167E+00    0.4804764546E-02    0.2719731928E+00    0.3488073393E-03    0.4045473421E+00
    0.2900000000E+06    0.6763397434E+00    0.4630675983E-02    0.2719708604E+00    0.3329711635E-03    0.4048055520E+00
    0.3100000000E+06    0.6765928219E+00    0.4474928897E-02    0.2719653021E+00    0.3190198694E-03    0.4050418560E+00
    0.3300000000E+06    0.6768131045E+00    0.4334483278E-02    0.2719572266E+00    0.3066142922E-03    0.4052594157E+00
    0.3500000000E+06    0.6770065532E+00    0.4206962965E-02    0.2719471743E+00    0.2954937835E-03    0.4054607742E+00
    0.3700000000E+06    0.6771777737E+00    0.4090480073E-02    0.2719355623E+00    0.2854545373E-03    0.4056480056E+00
    0.3900000000E+06    0.6773303790E+00    0.3983513006E-02    0.2719227171E+00    0.2763347470E-03    0.4058228214E+00
    0.4100000000E+06    0.6774672423E+00    0.3884819744E-02    0.2719088963E+00    0.2680042017E-03    0.4059866490E+00
    0.4300000000E+06    0.6775906763E+00    0.3793374984E-02    0.2718943052E+00    0.2603568445E-03    0.4061406906E+00
    0.4500000000E+06    0.6777025633E+00    0.3708323729E-02    0.2718791087E+00    0.2533053511E-03    0.4062859671E+00
    0.4700000000E+06    0.6778044505E+00    0.3628946487E-02    0.2718634401E+00    0.2467771142E-03    0.4064233523E+00
    0.4900000000E+06    0.6778976214E+00    0.3554632794E-02    0.2718474080E+00    0.2407112259E-03    0.4065535997E+00
    0.1000000000E+06    0.6678172768E+00    0.8391663806E-02    0.2715305678E+00    0.7267796171E-03    0.4003021424E+00
    0.3000000000E+06    0.6764708208E+00    0.4550717849E-02    0.2719684356E+00    0.3257832594E-03    0.4049262280E+00
    0.5000000000E+06    0.6779412806E+00    0.3519208698E-02    0.2718392839E+00    0.2378352505E-03    0.4066162543E+00
    0.7000000000E+06    0.6785439975E+00    0.2982104077E-02    0.2716723936E+00    0.1954300241E-03    0.4076158240E+00
    0.9000000000E+06    0.6788725411E+00    0.2638039296E-02    0.2715126393E+00    0.1694063794E-03    0.4083134917E+00
    0.1100000000E+07    0.6790797484E+00    0.2393111253E-02    0.2713662350E+00    0.1513978000E-03    0.4088442304E+00
    0.1300000000E+07    0.6792226227E+00    0.2207129628E-02    0.2712328672E+00    0.1380010557E-03    0.4092699596E+00
    0.1500000000E+07    0.6793272633E+00    0.2059594716E-02    0.2711110094E+00    0.1275406224E-03    0.4096239534E+00
    0.1700000000E+07    0.6794073133E+00    0.1938795599E-02    0.2709990758E+00    0.1190842727E-03    0.4099260448E+00
    0.1900000000E+07    0.6794706016E+00    0.1837486079E-02    0.2708956767E+00    0.1120669945E-03    0.4101889570E+00
    0.2100000000E+07    0.6795219446E+00    0.1750907585E-02    0.2707996493E+00    0.1061239147E-03    0.4104213148E+00
    0.2300000000E+07    0.6795644690E+00    0.1675787492E-02    0.2707100319E+00    0.1010075763E-03    0.4106292201E+00
    0.2500000000E+07    0.6796002943E+00    0.1609790477E-02    0.2706260291E+00    0.9654347781E-04    0.4108171409E+00
    0.2700000000E+07    0.6796309084E+00    0.1551198950E-02    0.2705469792E+00    0.9260458576E-04    0.4109884422E+00
    0.2900000000E+07    0.6796573873E+00    0.1498717415E-02    0.2704723282E+00    0.8909594216E-04    0.4111457182E+00
    0.3100000000E+07    0.6796805282E+00    0.1451347663E-02    0.2704016083E+00    0.8594496032E-04    0.4112910090E+00
    0.3300000000E+07    0.6797009351E+00    0.1408306330E-02    0.2703344219E+00    0.8309508149E-04    0.4114259469E+00
    0.3500000000E+07    0.6797190734E+00    0.1368968800E-02    0.2702704282E+00    0.8050149851E-04    0.4115518571E+00
    0.3700000000E+07    0.6797353081E+00    0.1332830054E-02    0.2702093333E+00    0.7812819534E-04    0.4116698294E+00
    0.3900000000E+07    0.6797499296E+00    0.1299476713E-02    0.2701508820E+00    0.7594584928E-04    0.4117807707E+00
    0.4100000000E+07    0.6797631714E+00    0.1268566680E-02    0.2700948513E+00    0.7393031393E-04    0.4118854432E+00
    0.4300000000E+07    0.6797752239E+00    0.1239814061E-02    0.2700410453E+00    0.7206150199E-04    0.4119844935E+00
    0.4500000000E+07    0.6797862438E+00    0.1212977806E-02    0.2699892911E+00    0.7032254911E-04    0.4120784745E+00
    0.4700000000E+07    0.6797963611E+00    0.1187853044E-02    0.2699394352E+00    0.6869917893E-04    0.4121678625E+00
    0.4900000000E+07    0.6798056848E+00    0.1164264376E-02    0.2698913408E+00    0.6717921448E-04    0.4122530709E+00
    0.1000000000E+07    0.6789866535E+00    0.2506367193E-02    0.2714377332E+00    0.1596727427E-03    0.4085948985E+00
    0.3000000000E+07    0.6796693335E+00    0.1474446804E-02    0.2704365032E+00    0.8747959614E-04    0.4112197515E+00
    0.5000000000E+07    0.6798100784E+00    0.1152998011E-02    0.2698679154E+00    0.6645468278E-04    0.4122942222E+00
    0.7000000000E+07    0.6798725588E+00    0.9806088818E-03    0.2694679300E+00    0.5548716459E-04    0.4129654230E+00
    0.9000000000E+07    0.6799083827E+00    0.8688819665E-03    0.2691582364E+00    0.4850413449E-04    0.4134509256E+00
    0.1100000000E+08    0.6799318341E+00    0.7888750261E-03    0.2689050758E+00    0.4356882851E-04    0.4138300390E+00
    0.1300000000E+08    0.6799484917E+00    0.7279139138E-03    0.2686907431E+00    0.3984737743E-04    0.4141403992E+00
    0.1500000000E+08    0.6799609981E+00    0.6794495518E-03    0.2685047702E+00    0.3691429263E-04    0.4144027675E+00
    0.1700000000E+08    0.6799707723E+00    0.6397097856E-03    0.2683404423E+00    0.3452694998E-04    0.4146297846E+00
    0.1900000000E+08    0.6799786468E+00    0.6063475171E-03    0.2681931898E+00    0.3253564239E-04    0.4148297069E+00
    0.2100000000E+08    0.6799851437E+00    0.5778152555E-03    0.2680597594E+00    0.3084237021E-04    0.4150082175E+00
    0.2300000000E+08    0.6799906076E+00    0.5530455926E-03    0.2679377515E+00    0.2937995970E-04    0.4151693922E+00
    0.2500000000E+08    0.6799952758E+00    0.5312751135E-03    0.2678253446E+00    0.2810063554E-04    0.4153162512E+00
    0.2700000000E+08    0.6799993168E+00    0.5119413501E-03    0.2677211229E+00    0.2696937459E-04    0.4154510936E+00
