  Pressure (Pa) 22mC5-400 (mol/kg) 2mC6-400 (mol/kg) 3mC6-400 (mol/kg) 33mC5-400 (mol/kg) C7-400 (mol/kg)
    0.1000000000E+01    0.5290150766E-03    0.6277191688E-02    0.1558728056E-02    0.1277917220E-03    0.1011807812E-01
    0.3000000000E+01    0.1565087033E-02    0.1798166558E-01    0.4456054018E-02    0.3661923959E-03    0.2893171372E-01
    0.5000000000E+01    0.2573191046E-02    0.2868114915E-01    0.7094227075E-02    0.5842796061E-03    0.4607034929E-01
    0.7000000000E+01    0.3554797656E-02    0.3850542526E-01    0.9507957541E-02    0.7846808989E-03    0.6175800819E-01
    0.9000000000E+01    0.4511271457E-02    0.4756212657E-01    0.1172596219E-01    0.9695744856E-03    0.7618005918E-01
    0.1100000000E+02    0.5443880637E-02    0.5594133479E-01    0.1377220830E-01    0.1140782678E-02    0.8949123619E-01
    0.1300000000E+02    0.6353805486E-02    0.6371907356E-01    0.1566685992E-01    0.1299842827E-02    0.1018217386E+00
    0.1500000000E+02    0.7242146018E-02    0.7095999405E-01    0.1742700616E-01    0.1448061846E-02    0.1132819276E+00
    0.1700000000E+02    0.8109928807E-02    0.7771946332E-01    0.1906722819E-01    0.1586558596E-02    0.1239659818E+00
    0.1900000000E+02    0.8958113124E-02    0.8404520514E-01    0.2060004494E-01    0.1716297180E-02    0.1339547722E+00
    0.2100000000E+02    0.9787596469E-02    0.8997860170E-01    0.2203626696E-01    0.1838113339E-02    0.1433181437E+00
    0.2300000000E+02    0.1059921955E-01    0.9555573559E-01    0.2338527959E-01    0.1952735586E-02    0.1521167424E+00
    0.2500000000E+02    0.1139377082E-01    0.1008082306E+00    0.2465527158E-01    0.2060802244E-02    0.1604034897E+00
    0.2700000000E+02    0.1217199052E-01    0.1057639359E+00    0.2585342093E-01    0.2162875311E-02    0.1682247816E+00
    0.2900000000E+02    0.1293457438E-01    0.1104474858E+00    0.2698604712E-01    0.2259451805E-02    0.1756214708E+00
    0.3100000000E+02    0.1368217704E-01    0.1148807626E+00    0.2805873647E-01    0.2350973124E-02    0.1826296755E+00
    0.3300000000E+02    0.1441541503E-01    0.1190832795E+00    0.2907644617E-01    0.2437832809E-02    0.1892814511E+00
    0.3500000000E+02    0.1513486960E-01    0.1230725012E+00    0.3004359103E-01    0.2520383029E-02    0.1956053496E+00
    0.3700000000E+02    0.1584108926E-01    0.1268641125E+00    0.3096411618E-01    0.2598940016E-02    0.2016268891E+00
    0.3900000000E+02    0.1653459209E-01    0.1304722457E+00    0.3184155842E-01    0.2673788660E-02    0.2073689495E+00
    0.4100000000E+02    0.1721586790E-01    0.1339096729E+00    0.3267909806E-01    0.2745186403E-02    0.2128521079E+00
    0.4300000000E+02    0.1788538011E-01    0.1371879700E+00    0.3347960313E-01    0.2813366553E-02    0.2180949230E+00
    0.4500000000E+02    0.1854356763E-01    0.1403176573E+00    0.3424566710E-01    0.2878541128E-02    0.2231141796E+00
    0.4700000000E+02    0.1919084640E-01    0.1433083208E+00    0.3497964124E-01    0.2940903293E-02    0.2279250969E+00
    0.4900000000E+02    0.1982761102E-01    0.1461687155E+00    0.3568366251E-01    0.3000629471E-02    0.2325415088E+00
    0.1000000000E+02    0.4980483390E-02    0.5183137118E-01    0.1276921511E-01    0.1056787200E-02    0.8296585531E-01
    0.3000000000E+02    0.1331020897E-01    0.1126941373E+00    0.2752956042E-01    0.2305818725E-02    0.1791720421E+00
    0.5000000000E+02    0.2014216830E-01    0.1475525936E+00    0.3602505601E-01    0.3029555073E-02    0.2347807583E+00
    0.7000000000E+02    0.2596297739E-01    0.1700192303E+00    0.4167195509E-01    0.3502483980E-02    0.2718900886E+00
    0.9000000000E+02    0.3106123454E-01    0.1855117486E+00    0.4576235020E-01    0.3833779750E-02    0.2988702839E+00
    0.1100000000E+03    0.3562029469E-01    0.1966686494E+00    0.4889883033E-01    0.4076645066E-02    0.3196304335E+00
    0.1300000000E+03    0.3976301502E-01    0.2049448495E+00    0.5140281678E-01    0.4260459330E-02    0.3362584762E+00
    0.1500000000E+03    0.4357528154E-01    0.2112132298E+00    0.5346266726E-01    0.4402884308E-02    0.3499795886E+00
    0.1700000000E+03    0.4711924785E-01    0.2160305635E+00    0.5519673709E-01    0.4515213143E-02    0.3615646045E+00
    0.1900000000E+03    0.5044120523E-01    0.2197689674E+00    0.5668350980E-01    0.4605014489E-02    0.3715253188E+00
    0.2100000000E+03    0.5357647829E-01    0.2226864891E+00    0.5797730718E-01    0.4677552951E-02    0.3802164007E+00
    0.2300000000E+03    0.5655258877E-01    0.2249675155E+00    0.5911706259E-01    0.4736602820E-02    0.3878923525E+00
    0.2500000000E+03    0.5939136779E-01    0.2267471171E+00    0.6013150006E-01    0.4784938737E-02    0.3947411597E+00
    0.2700000000E+03    0.6211040628E-01    0.2281263380E+00    0.6104233522E-01    0.4824644226E-02    0.4009051038E+00
    0.2900000000E+03    0.6472407562E-01    0.2291821397E+00    0.6186633113E-01    0.4857312601E-02    0.4064941407E+00
    0.3100000000E+03    0.6724426160E-01    0.2299740631E+00    0.6261666302E-01    0.4884181734E-02    0.4115947870E+00
    0.3300000000E+03    0.6968090236E-01    0.2305488042E+00    0.6330385012E-01    0.4906226785E-02    0.4162761930E+00
    0.3500000000E+03    0.7204238947E-01    0.2309434303E+00    0.6393640795E-01    0.4924225454E-02    0.4205943963E+00
    0.3700000000E+03    0.7433587168E-01    0.2311876820E+00    0.6452131490E-01    0.4938804797E-02    0.4245953667E+00
    0.3900000000E+03    0.7656748804E-01    0.2313056521E+00    0.6506435249E-01    0.4950475401E-02    0.4283172284E+00
    0.4100000000E+03    0.7874254920E-01    0.2313170268E+00    0.6557035785E-01    0.4959656725E-02    0.4317919099E+00
    0.4300000000E+03    0.8086568003E-01    0.2312380183E+00    0.6604341387E-01    0.4966696150E-02    0.4350463878E+00
    0.4500000000E+03    0.8294093289E-01    0.2310820726E+00    0.6648699462E-01    0.4971883487E-02    0.4381036377E+00
    0.4700000000E+03    0.8497187862E-01    0.2308604138E+00    0.6690407772E-01    0.4975462145E-02    0.4409833708E+00
    0.4900000000E+03    0.8696168017E-01    0.2305824665E+00    0.6729723240E-01    0.4977637834E-02    0.4437026105E+00
    0.1000000000E+03    0.3339941106E-01    0.1915229700E+00    0.4742551200E-01    0.3964062686E-02    0.3098699600E+00
    0.3000000000E+03    0.6599519250E-01    0.2296079097E+00    0.6224999411E-01    0.4871405841E-02    0.4091008407E+00
    0.5000000000E+03    0.8794204379E-01    0.2304249210E+00    0.6748554524E-01    0.4978255250E-02    0.4450067447E+00
    0.7000000000E+03    0.1059348304E+00    0.2257159812E+00    0.7040929019E-01    0.4948066640E-02    0.4654119701E+00
    0.9000000000E+03    0.1217529620E+00    0.2198195669E+00    0.7234452010E-01    0.4878212269E-02    0.4791143935E+00
    0.1100000000E+04    0.1361432124E+00    0.2137829882E+00    0.7374751883E-01    0.4794852520E-02    0.4891739599E+00
    0.1300000000E+04    0.1494952778E+00    0.2079137706E+00    0.7482455370E-01    0.4707119344E-02    0.4969840520E+00
    0.1500000000E+04    0.1620407105E+00    0.2023018082E+00    0.7568463588E-01    0.4618687993E-02    0.5032858048E+00
    0.1700000000E+04    0.1739295407E+00    0.1969637301E+00    0.7639163075E-01    0.4531156008E-02    0.5085159472E+00
    0.1900000000E+04    0.1852652034E+00    0.1918903652E+00    0.7698580935E-01    0.4445236341E-02    0.5129513374E+00
    0.2100000000E+04    0.1961224341E+00    0.1870640525E+00    0.7749400855E-01    0.4361236299E-02    0.5167773946E+00
    0.2300000000E+04    0.2065572610E+00    0.1824652982E+00    0.7793490161E-01    0.4279268188E-02    0.5201237389E+00
    0.2500000000E+04    0.2166129680E+00    0.1780753347E+00    0.7832194026E-01    0.4199348335E-02    0.5230841589E+00
    0.2700000000E+04    0.2263238431E+00    0.1738770178E+00    0.7866509504E-01    0.4121445926E-02    0.5257284653E+00
    0.2900000000E+04    0.2357176374E+00    0.1698550377E+00    0.7897193478E-01    0.4045507903E-02    0.5281098666E+00
    0.3100000000E+04    0.2448172364E+00    0.1659958512E+00    0.7924832286E-01    0.3971471896E-02    0.5302697422E+00
    0.3300000000E+04    0.2536418291E+00    0.1622875106E+00    0.7949888147E-01    0.3899272965E-02    0.5322408345E+00
    0.3500000000E+04    0.2622077461E+00    0.1587194685E+00    0.7972731013E-01    0.3828847048E-02    0.5340494446E+00
    0.3700000000E+04    0.2705290743E+00    0.1552823884E+00    0.7993660962E-01    0.3760132642E-02    0.5357169815E+00
    0.3900000000E+04    0.2786181152E+00    0.1519679737E+00    0.8012924288E-01    0.3693071515E-02    0.5372610767E+00
    0.4100000000E+04    0.2864857327E+00    0.1487688202E+00    0.8030725278E-01    0.3627608904E-02    0.5386964038E+00
    0.4300000000E+04    0.2941416196E+00    0.1456782890E+00    0.8047234987E-01    0.3563693435E-02    0.5400352890E+00
    0.4500000000E+04    0.3015945064E+00    0.1426903986E+00    0.8062597870E-01    0.3501276917E-02    0.5412881753E+00
    0.4700000000E+04    0.3088523243E+00    0.1397997350E+00    0.8076936867E-01    0.3440314077E-02    0.5424639778E+00
    0.4900000000E+04    0.3159223349E+00    0.1370013746E+00    0.8090357343E-01    0.3380762273E-02    0.5435703610E+00
    0.1000000000E+04    0.1290971210E+00    0.2167915002E+00    0.7309639012E-01    0.4837453859E-02    0.4844905846E+00
    0.3000000000E+04    0.2403029365E+00    0.1679058771E+00    0.7911362159E-01    0.4008256198E-02    0.5292152758E+00
    0.5000000000E+04    0.3193890247E+00    0.1356353876E+00    0.8096752035E-01    0.3351502837E-02    0.5440996280E+00
    0.7000000000E+04    0.3802714749E+00    0.1122429481E+00    0.8193098582E-01    0.2831587671E-02    0.5522637916E+00
    0.9000000000E+04    0.4279669202E+00    0.9459464074E-01    0.8253548012E-01    0.2416443722E-02    0.5576164160E+00
    0.1100000000E+05    0.4656869086E+00    0.8098476505E-01    0.8295491402E-01    0.2083111086E-02    0.5614746001E+00
    0.1300000000E+05    0.4957863195E+00    0.7031480141E-01    0.8326493060E-01    0.1813735125E-02    0.5644258535E+00
    0.1500000000E+05    0.5200356921E+00    0.6182737499E-01    0.8350426780E-01    0.1594348773E-02    0.5667778236E+00
    0.1700000000E+05    0.5397684434E+00    0.5498436793E-01    0.8369501922E-01    0.1414126327E-02    0.5687094637E+00
    0.1900000000E+05    0.5559885118E+00    0.4939683921E-01    0.8385079235E-01    0.1264736578E-02    0.5703329327E+00
    0.2100000000E+05    0.5694534017E+00    0.4477997341E-01    0.8398046694E-01    0.1139783439E-02    0.5717225693E+00
    0.2300000000E+05    0.5807374059E+00    0.4092270703E-01    0.8409010537E-01    0.1034348669E-02    0.5729298417E+00
    0.2500000000E+05    0.5902788384E+00    0.3766681021E-01    0.8418399955E-01    0.9446338079E-03    0.5739916558E+00
    0.2700000000E+05    0.5984148803E+00    0.3489230407E-01    0.8426528002E-01    0.8676870855E-03    0.5749352506E+00
    0.2900000000E+05    0.6054071391E+00    0.3250719637E-01    0.8433628801E-01    0.8011980947E-03    0.5757812227E+00
    0.3100000000E+05    0.6114603815E+00    0.3044018929E-01    0.8439881196E-01    0.7433443654E-03    0.5765454713E+00
    0.3300000000E+05    0.6167362998E+00    0.2863544933E-01    0.8445424325E-01    0.6926768390E-03    0.5772404895E+00
    0.3500000000E+05    0.6213636794E+00    0.2704881934E-01    0.8450368169E-01    0.6480341800E-03    0.5778762475E+00
    0.3700000000E+05    0.6254459562E+00    0.2564504767E-01    0.8454800879E-01    0.6084783797E-03    0.5784608118E+00
    0.3900000000E+05    0.6290668753E+00    0.2439574136E-01    0.8458793990E-01    0.5732460810E-03    0.5790007877E+00
    0.4100000000E+05    0.6322947605E+00    0.2327783929E-01    0.8462406194E-01    0.5417115445E-03    0.5795016433E+00
    0.4300000000E+05    0.6351857612E+00    0.2227246235E-01    0.8465686121E-01    0.5133582765E-03    0.5799679489E+00
    0.4500000000E+05    0.6377863412E+00    0.2136403959E-01    0.8468674429E-01    0.4877571353E-03    0.5804035587E+00
    0.4700000000E+05    0.6401352018E+00    0.2053963816E-01    0.8471405381E-01    0.4645493158E-03    0.5808117483E+00
    0.4900000000E+05    0.6422647785E+00    0.1978844514E-01    0.8473908067E-01    0.4434330319E-03    0.5811953224E+00
    0.1000000000E+05    0.4479108153E+00    0.8736356157E-01    0.8276234867E-01    0.2240767935E-02    0.5596861573E+00
    0.3000000000E+05    0.6085401560E+00    0.3143773206E-01    0.8436851565E-01    0.7712900162E-03    0.5761727137E+00
    0.5000000000E+05    0.6432560525E+00    0.1943740113E-01    0.8475081723E-01    0.4335778686E-03    0.5813786472E+00
    0.7000000000E+05    0.6563714220E+00    0.1466608366E-01    0.8491058792E-01    0.3012077720E-03    0.5841958775E+00
    0.9000000000E+05    0.6629094571E+00    0.1212642217E-01    0.8499008113E-01    0.2331714786E-03    0.5860379714E+00
    0.1100000000E+06    0.6667296087E+00    0.1053736087E-01    0.8503206748E-01    0.1922852560E-03    0.5873681548E+00
    0.1300000000E+06    0.6692011096E+00    0.9438078724E-02    0.8505388007E-01    0.1651181915E-03    0.5883896512E+00
    0.1500000000E+06    0.6709169960E+00    0.8624628930E-02    0.8506384066E-01    0.1457677538E-03    0.5892077286E+00
    0.1700000000E+06    0.6721713700E+00    0.7993217326E-02    0.8506641221E-01    0.1312687198E-03    0.5898831844E+00
    0.1900000000E+06    0.6731251021E+00    0.7485441005E-02    0.8506418286E-01    0.1199795835E-03    0.5904539552E+00
    0.2100000000E+06    0.6738729684E+00    0.7065860348E-02    0.8505874325E-01    0.1109221240E-03    0.5909451251E+00
    0.2300000000E+06    0.6744741511E+00    0.6711669190E-02    0.8505111565E-01    0.1034786706E-03    0.5913740455E+00
    0.2500000000E+06    0.6749673782E+00    0.6407486480E-02    0.8504198056E-01    0.9724060453E-04    0.5917531611E+00
    0.2700000000E+06    0.6753789877E+00    0.6142534321E-02    0.8503180389E-01    0.9192704213E-04    0.5920916658E+00
    0.2900000000E+06    0.6757274777E+00    0.5909016734E-02    0.8502091204E-01    0.8733861266E-04    0.5923965227E+00
    0.3100000000E+06    0.6760261998E+00    0.5701141845E-02    0.8500953788E-01    0.8332990004E-04    0.5926731174E+00
    0.3300000000E+06    0.6762850205E+00    0.5514507452E-02    0.8499785009E-01    0.7979233413E-04    0.5929256910E+00
    0.3500000000E+06    0.6765113803E+00    0.5345701182E-02    0.8498597229E-01    0.7664319460E-04    0.5931576361E+00
    0.3700000000E+06    0.6767109920E+00    0.5192032300E-02    0.8497399594E-01    0.7381832779E-04    0.5933717045E+00
    0.3900000000E+06    0.6768883112E+00    0.5051347015E-02    0.8496198914E-01    0.7126719410E-04    0.5935701551E+00
    0.4100000000E+06    0.6770468623E+00    0.4921898304E-02    0.8495000283E-01    0.6894942107E-04    0.5937548626E+00
    0.4300000000E+06    0.6771894683E+00    0.4802252255E-02    0.8493807514E-01    0.6683235431E-04    0.5939273979E+00
    0.4500000000E+06    0.6773184159E+00    0.4691219439E-02    0.8492623462E-01    0.6488928492E-04    0.5940890888E+00
    0.4700000000E+06    0.6774355769E+00    0.4587803793E-02    0.8491450251E-01    0.6309814497E-04    0.5942410670E+00
    0.4900000000E+06    0.6775424974E+00    0.4491163969E-02    0.8490289448E-01    0.6144053306E-04    0.5943843032E+00
    0.1000000000E+06    0.6650457736E+00    0.1125107751E-01    0.8501436753E-01    0.2104435695E-03    0.5867510304E+00
    0.3000000000E+06    0.6758823760E+00    0.5802176178E-02    0.8501527347E-01    0.8526928953E-04    0.5925380650E+00
    0.5000000000E+06    0.6775925285E+00    0.4445156941E-02    0.8489714070E-01    0.6065686684E-04    0.5944529098E+00
    0.7000000000E+06    0.6782788015E+00    0.3751942527E-02    0.8478996917E-01    0.4926797397E-04    0.5955204768E+00
    0.9000000000E+06    0.6786499361E+00    0.3311654626E-02    0.8469731183E-01    0.4242809129E-04    0.5962340833E+00
    0.1100000000E+07    0.6788833942E+00    0.2999735337E-02    0.8461655926E-01    0.3775724536E-04    0.5967586712E+00
    0.1300000000E+07    0.6790443650E+00    0.2763617524E-02    0.8454521184E-01    0.3431357228E-04    0.5971676935E+00
    0.1500000000E+07    0.6791624211E+00    0.2576716223E-02    0.8448136591E-01    0.3164198904E-04    0.5974996591E+00
    0.1700000000E+07    0.6792529295E+00    0.2423930763E-02    0.8442360762E-01    0.2949273791E-04    0.5977770371E+00
    0.1900000000E+07    0.6793246752E+00    0.2295955679E-02    0.8437087608E-01    0.2771601224E-04    0.5980139740E+00
    0.2100000000E+07    0.6793830488E+00    0.2186698815E-02    0.8432236076E-01    0.2621585922E-04    0.5982198989E+00
    0.2300000000E+07    0.6794315451E+00    0.2091980393E-02    0.8427743077E-01    0.2492763221E-04    0.5984013820E+00
    0.2500000000E+07    0.6794725305E+00    0.2008823448E-02    0.8423558630E-01    0.2380599115E-04    0.5985631674E+00
    0.2700000000E+07    0.6795076662E+00    0.1935041895E-02    0.8419642510E-01    0.2281807945E-04    0.5987087821E+00
    0.2900000000E+07    0.6795381533E+00    0.1868989033E-02    0.8415961883E-01    0.2193943157E-04    0.5988409130E+00
    0.3100000000E+07    0.6795648821E+00    0.1809397443E-02    0.8412489607E-01    0.2115140802E-04    0.5989616497E+00
    0.3300000000E+07    0.6795885273E+00    0.1755273437E-02    0.8409202994E-01    0.2043952703E-04    0.5990726465E+00
    0.3500000000E+07    0.6796096095E+00    0.1705825361E-02    0.8406082884E-01    0.1979234489E-04    0.5991752333E+00
    0.3700000000E+07    0.6796285372E+00    0.1660413602E-02    0.8403112952E-01    0.1920068373E-04    0.5992704939E+00
    0.3900000000E+07    0.6796456355E+00    0.1618514949E-02    0.8400279176E-01    0.1865708626E-04    0.5993593222E+00
    0.4100000000E+07    0.6796611664E+00    0.1579696665E-02    0.8397569419E-01    0.1815542258E-04    0.5994424629E+00
    0.4300000000E+07    0.6796753437E+00    0.1543597292E-02    0.8394973108E-01    0.1769060148E-04    0.5995205432E+00
    0.4500000000E+07    0.6796883435E+00    0.1509912216E-02    0.8392480976E-01    0.1725835486E-04    0.5995940949E+00
    0.4700000000E+07    0.6797003120E+00    0.1478382650E-02    0.8390084853E-01    0.1685507443E-04    0.5996635732E+00
    0.4900000000E+07    0.6797113721E+00    0.1448787127E-02    0.8387777501E-01    0.1647768624E-04    0.5997293701E+00
    0.1000000000E+07    0.6787785325E+00    0.3143824825E-02    0.8465561779E-01    0.3989739375E-04    0.5965142344E+00
    0.3000000000E+07    0.6795519411E+00    0.1838453131E-02    0.8414201211E-01    0.2153507911E-04    0.5989025935E+00
    0.5000000000E+07    0.6797165945E+00    0.1434653959E-02    0.8386655072E-01    0.1629786280E-04    0.5997609960E+00
    0.7000000000E+07    0.6797917576E+00    0.1218576423E-02    0.8367617895E-01    0.1358104899E-04    0.6002632079E+00
    0.9000000000E+07    0.6798358511E+00    0.1078717279E-02    0.8353019570E-01    0.1185616457E-04    0.6006109336E+00
    0.1100000000E+08    0.6798652798E+00    0.9786584699E-03    0.8341161400E-01    0.1063930310E-04    0.6008737888E+00
    0.1300000000E+08    0.6798865366E+00    0.9024744849E-03    0.8331167911E-01    0.9722926723E-05    0.6010835394E+00
    0.1500000000E+08    0.6799027338E+00    0.8419442262E-03    0.8322527336E-01    0.9001401855E-05    0.6012571780E+00
    0.1700000000E+08    0.6799155612E+00    0.7923360355E-03    0.8314914090E-01    0.8414600925E-05    0.6014047924E+00
    0.1900000000E+08    0.6799260201E+00    0.7507075865E-03    0.8308107986E-01    0.7925473558E-05    0.6015328313E+00
    0.2100000000E+08    0.6799347442E+00    0.7151199363E-03    0.8301953054E-01    0.7509792430E-05    0.6016456521E+00
    0.2300000000E+08    0.6799421555E+00    0.6842362591E-03    0.8296334722E-01    0.7150965702E-05    0.6017463288E+00
    0.2500000000E+08    0.6799485467E+00    0.6571008248E-03    0.8291166323E-01    0.6837201764E-05    0.6018371062E+00
    0.2700000000E+08    0.6799541276E+00    0.6330097177E-03    0.8286380688E-01    0.6559861989E-05    0.6019196709E+00
