  Pressure (Pa) 22mC5-400 (mol/kg) 2mC6-400 (mol/kg) 3mC6-400 (mol/kg) 33mC5-400 (mol/kg) C7-400 (mol/kg)
    0.1000000000E+01    0.5301703506E-03    0.3949939464E-02    0.3662726990E-02    0.2573115522E-03    0.5094619211E-02
    0.3000000000E+01    0.1575163705E-02    0.1145941890E-01    0.1060936549E-01    0.7466818270E-03    0.1475932449E-01
    0.5000000000E+01    0.2600333486E-02    0.1849195677E-01    0.1709464508E-01    0.1205206999E-02    0.2378511660E-01
    0.7000000000E+01    0.3606412569E-02    0.2509372445E-01    0.2316483706E-01    0.1635878803E-02    0.3223598215E-01
    0.9000000000E+01    0.4594096594E-02    0.3130491601E-01    0.2886016887E-01    0.2041300837E-02    0.4016755605E-01
    0.1100000000E+02    0.5564046338E-02    0.3716069848E-01    0.3421578247E-01    0.2423750364E-02    0.4762844525E-01
    0.1300000000E+02    0.6516889908E-02    0.4269198566E-01    0.3926251574E-01    0.2785228619E-02    0.5466130815E-01
    0.1500000000E+02    0.7453224769E-02    0.4792607245E-01    0.4402754401E-01    0.3127502047E-02    0.6130374074E-01
    0.1700000000E+02    0.8373619615E-02    0.5288715838E-01    0.4853490997E-01    0.3452136326E-02    0.6758900871E-01
    0.1900000000E+02    0.9278616119E-02    0.5759678222E-01    0.5280596411E-01    0.3760524599E-02    0.7354665596E-01
    0.2100000000E+02    0.1016873054E-01    0.6207418479E-01    0.5685973269E-01    0.4053911050E-02    0.7920301305E-01
    0.2300000000E+02    0.1104445521E-01    0.6633661364E-01    0.6071322698E-01    0.4333410684E-02    0.8458162448E-01
    0.2500000000E+02    0.1190625996E-01    0.7039957998E-01    0.6438170425E-01    0.4600026011E-02    0.8970360935E-01
    0.2700000000E+02    0.1275459338E-01    0.7427707661E-01    0.6787888917E-01    0.4854661191E-02    0.9458796736E-01
    0.2900000000E+02    0.1358988405E-01    0.7798176345E-01    0.7121716247E-01    0.5098134074E-02    0.9925183951E-01
    0.3100000000E+02    0.1441254166E-01    0.8152512628E-01    0.7440772229E-01    0.5331186500E-02    0.1037107312E+00
    0.3300000000E+02    0.1522295803E-01    0.8491761301E-01    0.7746072286E-01    0.5554493137E-02    0.1079787037E+00
    0.3500000000E+02    0.1602150814E-01    0.8816875128E-01    0.8038539398E-01    0.5768669106E-02    0.1120685397E+00
    0.3700000000E+02    0.1680855100E-01    0.9128725011E-01    0.8319014448E-01    0.5974276577E-02    0.1159918860E+00
    0.3900000000E+02    0.1758443055E-01    0.9428108831E-01    0.8588265209E-01    0.6171830490E-02    0.1197593779E+00
    0.4100000000E+02    0.1834947640E-01    0.9715759143E-01    0.8846994160E-01    0.6361803549E-02    0.1233807473E+00
    0.4300000000E+02    0.1910400464E-01    0.9992349910E-01    0.9095845335E-01    0.6544630583E-02    0.1268649171E+00
    0.4500000000E+02    0.1984831850E-01    0.1025850241E+00    0.9335410308E-01    0.6720712369E-02    0.1302200846E+00
    0.4700000000E+02    0.2058270904E-01    0.1051479041E+00    0.9566233469E-01    0.6890418994E-02    0.1334537938E+00
    0.4900000000E+02    0.2130745574E-01    0.1076174478E+00    0.9788816669E-01    0.7054092822E-02    0.1365729999E+00
    0.1000000000E+02    0.5081248253E-02    0.3427520962E-01    0.3157842033E-01    0.2235266140E-02    0.4395404189E-01
    0.3000000000E+02    0.1400276709E-01    0.7977293451E-01    0.7283024895E-01    0.5215919198E-02    0.1015059973E+00
    0.5000000000E+02    0.2166629697E-01    0.1088187703E+00    0.9897164498E-01    0.7133767498E-02    0.1380916910E+00
    0.7000000000E+02    0.2839684089E-01    0.1289679817E+00    0.1172711835E+00    0.8476488325E-02    0.1637794020E+00
    0.9000000000E+02    0.3441219063E-01    0.1436849786E+00    0.1309407929E+00    0.9467415965E-02    0.1830229799E+00
    0.1100000000E+03    0.3986434639E-01    0.1548144979E+00    0.1416282469E+00    0.1022542683E-01    0.1981096836E+00
    0.1300000000E+03    0.4486299106E-01    0.1634417390E+00    0.1502703872E+00    0.1082047349E-01    0.2103412436E+00
    0.1500000000E+03    0.4948951061E-01    0.1702519336E+00    0.1574415683E+00    0.1129676265E-01    0.2205165066E+00
    0.1700000000E+03    0.5380574083E-01    0.1757012171E+00    0.1635148581E+00    0.1168375697E-01    0.2291548610E+00
    0.1900000000E+03    0.5785962889E-01    0.1801058874E+00    0.1687439197E+00    0.1200191783E-01    0.2366097955E+00
    0.2100000000E+03    0.6168901510E-01    0.1836925394E+00    0.1733077485E+00    0.1226592970E-01    0.2431309812E+00
    0.2300000000E+03    0.6532422917E-01    0.1866278860E+00    0.1773365908E+00    0.1248661780E-01    0.2489002597E+00
    0.2500000000E+03    0.6878991551E-01    0.1890373357E+00    0.1809277015E+00    0.1267214294E-01    0.2540535360E+00
    0.2700000000E+03    0.7210634406E-01    0.1910170171E+00    0.1841553189E+00    0.1282877515E-01    0.2586946442E+00
    0.2900000000E+03    0.7529036927E-01    0.1926418165E+00    0.1870771994E+00    0.1296141098E-01    0.2629044378E+00
    0.3100000000E+03    0.7835614370E-01    0.1939708970E+00    0.1897390269E+00    0.1307392904E-01    0.2667469256E+00
    0.3300000000E+03    0.8131565709E-01    0.1950515809E+00    0.1921774666E+00    0.1316944023E-01    0.2702735242E+00
    0.3500000000E+03    0.8417914908E-01    0.1959221353E+00    0.1944223269E+00    0.1325046739E-01    0.2735260702E+00
    0.3700000000E+03    0.8695542930E-01    0.1966138083E+00    0.1964981218E+00    0.1331907687E-01    0.2765389983E+00
    0.3900000000E+03    0.8965212838E-01    0.1971523413E+00    0.1984252206E+00    0.1337697619E-01    0.2793409444E+00
    0.4100000000E+03    0.9227589682E-01    0.1975591078E+00    0.2002207060E+00    0.1342558778E-01    0.2819559439E+00
    0.4300000000E+03    0.9483256414E-01    0.1978519828E+00    0.2018990262E+00    0.1346610527E-01    0.2844043417E+00
    0.4500000000E+03    0.9732726738E-01    0.1980460136E+00    0.2034724952E+00    0.1349953703E-01    0.2867034908E+00
    0.4700000000E+03    0.9976455555E-01    0.1981539437E+00    0.2049516816E+00    0.1352674015E-01    0.2888682965E+00
    0.4900000000E+03    0.1021484755E+00    0.1981866250E+00    0.2063457145E+00    0.1354844728E-01    0.2909116440E+00
    0.1000000000E+03    0.3720101811E-01    0.1496180951E+00    0.1365874908E+00    0.9870375114E-02    0.1909889859E+00
    0.3000000000E+03    0.7683724314E-01    0.1933401235E+00    0.1884381456E+00    0.1301997469E-01    0.2648681264E+00
    0.5000000000E+03    0.1033215673E+00    0.1981777034E+00    0.2070133185E+00    0.1355744012E-01    0.2918913302E+00
    0.7000000000E+03    0.1246859733E+00    0.1957196543E+00    0.2173678375E+00    0.1356291680E-01    0.3071920347E+00
    0.9000000000E+03    0.1432281343E+00    0.1911889997E+00    0.2242097055E+00    0.1339502864E-01    0.3174344517E+00
    0.1100000000E+04    0.1599240110E+00    0.1860426856E+00    0.2291650969E+00    0.1315971080E-01    0.3249375193E+00
    0.1300000000E+04    0.1752818470E+00    0.1807889659E+00    0.2329677294E+00    0.1289701105E-01    0.3307542177E+00
    0.1500000000E+04    0.1896019295E+00    0.1756250398E+00    0.2360044690E+00    0.1262440438E-01    0.3354429258E+00
    0.1700000000E+04    0.2030776973E+00    0.1706291935E+00    0.2385014899E+00    0.1235023400E-01    0.3393317945E+00
    0.1900000000E+04    0.2158418999E+00    0.1658297499E+00    0.2406011574E+00    0.1207870978E-01    0.3426283763E+00
    0.2100000000E+04    0.2279901826E+00    0.1612328785E+00    0.2423982063E+00    0.1181201458E-01    0.3454714089E+00
    0.2300000000E+04    0.2395941931E+00    0.1568347594E+00    0.2439584758E+00    0.1155127693E-01    0.3479577239E+00
    0.2500000000E+04    0.2507093537E+00    0.1526272071E+00    0.2453293488E+00    0.1129705269E-01    0.3501572909E+00
    0.2700000000E+04    0.2613797155E+00    0.1486003612E+00    0.2465459189E+00    0.1104957676E-01    0.3521221319E+00
    0.2900000000E+04    0.2716411200E+00    0.1447439900E+00    0.2476348093E+00    0.1080890042E-01    0.3538918594E+00
    0.3100000000E+04    0.2815233313E+00    0.1410481150E+00    0.2486166340E+00    0.1057496885E-01    0.3554972537E+00
    0.3300000000E+04    0.2910515167E+00    0.1375032912E+00    0.2495076369E+00    0.1034766609E-01    0.3569626535E+00
    0.3500000000E+04    0.3002473002E+00    0.1341007147E+00    0.2503208154E+00    0.1012684158E-01    0.3583075981E+00
    0.3700000000E+04    0.3091295281E+00    0.1308322412E+00    0.2510667094E+00    0.9912326127E-02    0.3595479837E+00
    0.3900000000E+04    0.3177148362E+00    0.1276903622E+00    0.2517539682E+00    0.9703941590E-02    0.3606968962E+00
    0.4100000000E+04    0.3260180762E+00    0.1246681608E+00    0.2523897654E+00    0.9501506753E-02    0.3617652220E+00
    0.4300000000E+04    0.3340526406E+00    0.1217592615E+00    0.2529801068E+00    0.9304840887E-02    0.3627621031E+00
    0.4500000000E+04    0.3418307143E+00    0.1189577790E+00    0.2535300643E+00    0.9113765882E-02    0.3636952824E+00
    0.4700000000E+04    0.3493634703E+00    0.1162582694E+00    0.2540439546E+00    0.8928107490E-02    0.3645713683E+00
    0.4900000000E+04    0.3566612250E+00    0.1136556859E+00    0.2545254772E+00    0.8747696014E-02    0.3653960413E+00
    0.1000000000E+04    0.1517683900E+00    0.1886499059E+00    0.2268656963E+00    0.1328250125E-01    0.3214459994E+00
    0.3000000000E+04    0.2766279581E+00    0.1428765952E+00    0.2481380023E+00    0.1069109773E-01    0.3547134481E+00
    0.5000000000E+04    0.3602249974E+00    0.1123892630E+00    0.2547551154E+00    0.8659406171E-02    0.3657906597E+00
    0.7000000000E+04    0.4211970233E+00    0.9116511455E-01    0.2582342476E+00    0.7131632851E-02    0.3718900923E+00
    0.9000000000E+04    0.4667521359E+00    0.7581552482E-01    0.2604426269E+00    0.5970748649E-02    0.3759074029E+00
    0.1100000000E+05    0.5013780449E+00    0.6440833161E-01    0.2619925566E+00    0.5077515393E-02    0.3788174878E+00
    0.1300000000E+05    0.5281311135E+00    0.5573287090E-01    0.2631511324E+00    0.4380566792E-02    0.3810550083E+00
    0.1500000000E+05    0.5491352545E+00    0.4899653976E-01    0.2640555739E+00    0.3828824992E-02    0.3828474761E+00
    0.1700000000E+05    0.5658810243E+00    0.4366630937E-01    0.2647844014E+00    0.3385741528E-02    0.3843271980E+00
    0.1900000000E+05    0.5794255209E+00    0.3937589958E-01    0.2653861384E+00    0.3025026775E-02    0.3855771040E+00
    0.2100000000E+05    0.5905276943E+00    0.3586862126E-01    0.2658925568E+00    0.2727597143E-02    0.3866521866E+00
    0.2300000000E+05    0.5997398013E+00    0.3296122274E-01    0.2663254213E+00    0.2479441920E-02    0.3875905531E+00
    0.2500000000E+05    0.6074692968E+00    0.3052056703E-01    0.2667001924E+00    0.2270146749E-02    0.3884195622E+00
    0.2700000000E+05    0.6140209561E+00    0.2844831887E-01    0.2670281853E+00    0.2091871995E-02    0.3891594365E+00
    0.2900000000E+05    0.6196257992E+00    0.2667071878E-01    0.2673178903E+00    0.1938642205E-02    0.3898254934E+00
    0.3100000000E+05    0.6244611718E+00    0.2513164070E-01    0.2675758149E+00    0.1805847757E-02    0.3904295788E+00
    0.3300000000E+05    0.6286648534E+00    0.2378780282E-01    0.2678070387E+00    0.1689891750E-02    0.3909810191E+00
    0.3500000000E+05    0.6323450928E+00    0.2260541269E-01    0.2680155899E+00    0.1587937028E-02    0.3914872727E+00
    0.3700000000E+05    0.6355878349E+00    0.2155778242E-01    0.2682047080E+00    0.1497722873E-02    0.3919543858E+00
    0.3900000000E+05    0.6384619884E+00    0.2062360965E-01    0.2683770302E+00    0.1417430672E-02    0.3923873201E+00
    0.4100000000E+05    0.6410233098E+00    0.1978572228E-01    0.2685347274E+00    0.1345584387E-02    0.3927901912E+00
    0.4300000000E+05    0.6433173006E+00    0.1903015021E-01    0.2686796044E+00    0.1280976007E-02    0.3931664463E+00
    0.4500000000E+05    0.6453813894E+00    0.1834543108E-01    0.2688131745E+00    0.1222609162E-02    0.3935189979E+00
    0.4700000000E+05    0.6472465946E+00    0.1772208519E-01    0.2689367175E+00    0.1169656035E-02    0.3938503267E+00
    0.4900000000E+05    0.6489388008E+00    0.1715221437E-01    0.2690513233E+00    0.1121424145E-02    0.3941625604E+00
    0.1000000000E+05    0.4852139387E+00    0.6970712031E-01    0.2612787971E+00    0.5495690235E-02    0.3774666965E+00
    0.3000000000E+05    0.6221302646E+00    0.2587432567E-01    0.2674504793E+00    0.1869935739E-02    0.3901346493E+00
    0.5000000000E+05    0.6497269631E+00    0.1688521873E-01    0.2691055721E+00    0.1098892790E-02    0.3943121008E+00
    0.7000000000E+05    0.6602089409E+00    0.1319512108E-01    0.2698910364E+00    0.7938201995E-03    0.3966383676E+00
    0.9000000000E+05    0.6655055945E+00    0.1116012497E-01    0.2703461166E+00    0.6335678971E-03    0.3981931338E+00
    0.1100000000E+06    0.6686420751E+00    0.9847751838E-02    0.2706385991E+00    0.5350342151E-03    0.3993363440E+00
    0.1300000000E+06    0.6706953832E+00    0.8917246213E-02    0.2708387573E+00    0.4681404575E-03    0.4002280434E+00
    0.1500000000E+06    0.6721355192E+00    0.8214822246E-02    0.2709814562E+00    0.4195549496E-03    0.4009520664E+00
    0.1700000000E+06    0.6731975473E+00    0.7660662442E-02    0.2710860275E+00    0.3825074864E-03    0.4015573054E+00
    0.1900000000E+06    0.6740111232E+00    0.7209016341E-02    0.2711640728E+00    0.3532065041E-03    0.4020745344E+00
    0.2100000000E+06    0.6746532394E+00    0.6831646080E-02    0.2712229800E+00    0.3293659624E-03    0.4025242630E+00
    0.2300000000E+06    0.6751723284E+00    0.6510097323E-02    0.2712676766E+00    0.3095257872E-03    0.4029207817E+00
    0.2500000000E+06    0.6756002999E+00    0.6231749209E-02    0.2713015730E+00    0.2927093295E-03    0.4032744094E+00
    0.2700000000E+06    0.6759589913E+00    0.5987646016E-02    0.2713271026E+00    0.2782380899E-03    0.4035928182E+00
    0.2900000000E+06    0.6762638285E+00    0.5771235854E-02    0.2713460460E+00    0.2656255786E-03    0.4038818533E+00
    0.3100000000E+06    0.6765260051E+00    0.5577600948E-02    0.2713597347E+00    0.2545135344E-03    0.4041460610E+00
    0.3300000000E+06    0.6767538332E+00    0.5402968620E-02    0.2713691827E+00    0.2446320207E-03    0.4043890408E+00
    0.3500000000E+06    0.6769536100E+00    0.5244389747E-02    0.2713751748E+00    0.2357735819E-03    0.4046136872E+00
    0.3700000000E+06    0.6771301904E+00    0.5099521006E-02    0.2713783267E+00    0.2277759988E-03    0.4048223591E+00
    0.3900000000E+06    0.6772873759E+00    0.4966473555E-02    0.2713791276E+00    0.2205104773E-03    0.4050170022E+00
    0.4100000000E+06    0.6774281844E+00    0.4843705474E-02    0.2713779703E+00    0.2138733696E-03    0.4051992384E+00
    0.4300000000E+06    0.6775550412E+00    0.4729943777E-02    0.2713751735E+00    0.2077802520E-03    0.4053704328E+00
    0.4500000000E+06    0.6776699173E+00    0.4624126838E-02    0.2713709979E+00    0.2021616104E-03    0.4055317441E+00
    0.4700000000E+06    0.6777744303E+00    0.4525361213E-02    0.2713656582E+00    0.1969596446E-03    0.4056841638E+00
    0.4900000000E+06    0.6778699205E+00    0.4432888783E-02    0.2713593329E+00    0.1921258668E-03    0.4058285460E+00
    0.1000000000E+06    0.6672547382E+00    0.1044158200E-01    0.2705070755E+00    0.5790653012E-03    0.3988036072E+00
    0.3000000000E+06    0.6763996743E+00    0.5671829731E-02    0.2713534775E+00    0.2599005843E-03    0.4040168166E+00
    0.5000000000E+06    0.6779146391E+00    0.4388806252E-02    0.2713558483E+00    0.1898339826E-03    0.4058979583E+00
    0.7000000000E+06    0.6785301031E+00    0.3720217512E-02    0.2712602013E+00    0.1560342393E-03    0.4070014693E+00
    0.9000000000E+06    0.6788640111E+00    0.3291712948E-02    0.2711468661E+00    0.1352844015E-03    0.4077670496E+00
    0.1100000000E+07    0.6790739760E+00    0.2986568251E-02    0.2710338151E+00    0.1209214831E-03    0.4083466897E+00
    0.1300000000E+07    0.6792184547E+00    0.2754800920E-02    0.2709259217E+00    0.1102345029E-03    0.4088098332E+00
    0.1500000000E+07    0.6793241113E+00    0.2570906858E-02    0.2708243524E+00    0.1018884540E-03    0.4091936685E+00
    0.1700000000E+07    0.6794048454E+00    0.2420311812E-02    0.2707290782E+00    0.9514041961E-04    0.4095202945E+00
    0.1900000000E+07    0.6794686165E+00    0.2293995608E-02    0.2706396807E+00    0.8954004914E-04    0.4098038503E+00
    0.2100000000E+07    0.6795203128E+00    0.2186033441E-02    0.2705556391E+00    0.8479647106E-04    0.4100538969E+00
    0.2300000000E+07    0.6795631038E+00    0.2092349888E-02    0.2704764350E+00    0.8071238955E-04    0.4102771843E+00
    0.2500000000E+07    0.6795991351E+00    0.2010036291E-02    0.2704015908E+00    0.7714865887E-04    0.4104786448E+00
    0.2700000000E+07    0.6796299118E+00    0.1936953082E-02    0.2703306791E+00    0.7400397269E-04    0.4106619864E+00
    0.2900000000E+07    0.6796565213E+00    0.1871486289E-02    0.2702633230E+00    0.7120259666E-04    0.4108300627E+00
    0.3100000000E+07    0.6796797687E+00    0.1812392170E-02    0.2701991918E+00    0.6868663359E-04    0.4109851145E+00
    0.3300000000E+07    0.6797002634E+00    0.1758694573E-02    0.2701379953E+00    0.6641096688E-04    0.4111289317E+00
    0.3500000000E+07    0.6797184752E+00    0.1709615095E-02    0.2700794786E+00    0.6433985137E-04    0.4112629655E+00
    0.3700000000E+07    0.6797347719E+00    0.1664524321E-02    0.2700234175E+00    0.6244455306E-04    0.4113884080E+00
    0.3900000000E+07    0.6797494462E+00    0.1622907008E-02    0.2699696137E+00    0.6070167643E-04    0.4115062497E+00
    0.4100000000E+07    0.6797627335E+00    0.1584336733E-02    0.2699178914E+00    0.5909195477E-04    0.4116173224E+00
    0.4300000000E+07    0.6797748253E+00    0.1548457102E-02    0.2698680943E+00    0.5759935927E-04    0.4117223305E+00
    0.4500000000E+07    0.6797858794E+00    0.1514967608E-02    0.2698200827E+00    0.5621043217E-04    0.4118218761E+00
    0.4700000000E+07    0.6797960267E+00    0.1483612831E-02    0.2697737315E+00    0.5491378038E-04    0.4119164772E+00
    0.4900000000E+07    0.6798053768E+00    0.1454174084E-02    0.2697289283E+00    0.5369968571E-04    0.4120065828E+00
    0.1000000000E+07    0.6789797040E+00    0.3127679944E-02    0.2710898614E+00    0.1275216633E-03    0.4080746912E+00
    0.3000000000E+07    0.6796685233E+00    0.1841208983E-02    0.2702308733E+00    0.6991201163E-04    0.4109090957E+00
    0.5000000000E+07    0.6798097824E+00    0.1440113290E-02    0.2697070749E+00    0.5312094230E-04    0.4120500742E+00
    0.7000000000E+07    0.6798724067E+00    0.1224939474E-02    0.2693311612E+00    0.4435925913E-04    0.4127571633E+00
    0.9000000000E+07    0.6799082904E+00    0.1085456764E-02    0.2690370816E+00    0.3877966911E-04    0.4132660095E+00
    0.1100000000E+08    0.6799317722E+00    0.9855611454E-03    0.2687951065E+00    0.3483576444E-04    0.4136618812E+00
    0.1300000000E+08    0.6799484474E+00    0.9094386396E-03    0.2685892983E+00    0.3186160304E-04    0.4139850350E+00
    0.1500000000E+08    0.6799609648E+00    0.8489164149E-03    0.2684101030E+00    0.2951733144E-04    0.4142575898E+00
    0.1700000000E+08    0.6799707464E+00    0.7992864844E-03    0.2682513327E+00    0.2760913453E-04    0.4144929706E+00
    0.1900000000E+08    0.6799786261E+00    0.7576191729E-03    0.2681087459E+00    0.2601741093E-04    0.4146999219E+00
    0.2100000000E+08    0.6799851267E+00    0.7219827291E-03    0.2679793056E+00    0.2466386257E-04    0.4148844498E+00
    0.2300000000E+08    0.6799905935E+00    0.6910446044E-03    0.2678607615E+00    0.2349481666E-04    0.4150508527E+00
    0.2500000000E+08    0.6799952638E+00    0.6638516986E-03    0.2677513989E+00    0.2247209792E-04    0.4152023104E+00
    0.2700000000E+08    0.6799993066E+00    0.6397017521E-03    0.2676498804E+00    0.2156771947E-04    0.4153412395E+00
