  Pressure (Pa) 22mC5-400 (mol/kg) 2mC6-400 (mol/kg) 3mC6-400 (mol/kg) 33mC5-400 (mol/kg) C7-400 (mol/kg)
    0.1000000000E+01    0.5310561771E-03    0.2363225926E-02    0.4688333792E-02    0.1282988557E-03    0.8453575009E-02
    0.3000000000E+01    0.1582967827E-02    0.6820800439E-02    0.1346654787E-01    0.3704410438E-03    0.2428668368E-01
    0.5000000000E+01    0.2621559467E-02    0.1095696586E-01    0.2152969740E-01    0.5953117796E-03    0.3883625065E-01
    0.7000000000E+01    0.3647158159E-02    0.1480987870E-01    0.2896328634E-01    0.8049699446E-03    0.5225552165E-01
    0.9000000000E+01    0.4660079925E-02    0.1841171247E-01    0.3583964803E-01    0.1001150541E-02    0.6467415519E-01
    0.1100000000E+02    0.5660630213E-02    0.2178978697E-01    0.4222039041E-01    0.1185325945E-02    0.7620259958E-01
    0.1300000000E+02    0.6649104341E-02    0.2496745206E-01    0.4815831572E-01    0.1358753813E-02    0.8693552967E-01
    0.1500000000E+02    0.7625787918E-02    0.2796478562E-01    0.5369894199E-01    0.1522514919E-02    0.9695457084E-01
    0.1700000000E+02    0.8590957249E-02    0.3079914972E-01    0.5888171942E-01    0.1677543289E-02    0.1063304770E+00
    0.1900000000E+02    0.9544879711E-02    0.3348563738E-01    0.6374101077E-01    0.1824650393E-02    0.1151248862E+00
    0.2100000000E+02    0.1048781412E-01    0.3603743409E-01    0.6830688747E-01    0.1964544731E-02    0.1233917462E+00
    0.2300000000E+02    0.1142001108E-01    0.3846611259E-01    0.7260578071E-01    0.2097847777E-02    0.1311784808E+00
    0.2500000000E+02    0.1234171329E-01    0.4078187459E-01    0.7666101736E-01    0.2225107069E-02    0.1385269495E+00
    0.2700000000E+02    0.1325315589E-01    0.4299375043E-01    0.8049326382E-01    0.2346807000E-02    0.1454742428E+00
    0.2900000000E+02    0.1415456674E-01    0.4510976480E-01    0.8412089580E-01    0.2463377781E-02    0.1520533443E+00
    0.3100000000E+02    0.1504616668E-01    0.4713707510E-01    0.8756030800E-01    0.2575202922E-02    0.1582936859E+00
    0.3300000000E+02    0.1592816985E-01    0.4908208763E-01    0.9082617485E-01    0.2682625502E-02    0.1642216149E+00
    0.3500000000E+02    0.1680078391E-01    0.5095055545E-01    0.9393167105E-01    0.2785953463E-02    0.1698607889E+00
    0.3700000000E+02    0.1766421032E-01    0.5274766141E-01    0.9688865900E-01    0.2885464085E-02    0.1752325121E+00
    0.3900000000E+02    0.1851864453E-01    0.5447808872E-01    0.9970784875E-01    0.2981407796E-02    0.1803560214E+00
    0.4100000000E+02    0.1936427623E-01    0.5614608131E-01    0.1023989351E+00    0.3074011432E-02    0.1852487330E+00
    0.4300000000E+02    0.2020128956E-01    0.5775549559E-01    0.1049707156E+00    0.3163481019E-02    0.1899264530E+00
    0.4500000000E+02    0.2102986335E-01    0.5930984501E-01    0.1074311924E+00    0.3250004183E-02    0.1944035603E+00
    0.4700000000E+02    0.2185017123E-01    0.6081233860E-01    0.1097876603E+00    0.3333752223E-02    0.1986931649E+00
    0.4900000000E+02    0.2266238191E-01    0.6226591435E-01    0.1120467838E+00    0.3414881908E-02    0.2028072453E+00
    0.1000000000E+02    0.5161882814E-02    0.2012717618E-01    0.3908848462E-01    0.1094655742E-02    0.7054339910E-01
    0.3000000000E+02    0.1460157953E-01    0.4613409119E-01    0.8586317466E-01    0.2519861233E-02    0.1552141460E+00
    0.5000000000E+02    0.2306550221E-01    0.6297520930E-01    0.1131417683E+00    0.3454510274E-02    0.2048019278E+00
    0.7000000000E+02    0.3074036240E-01    0.7514340259E-01    0.1311688056E+00    0.4138956274E-02    0.2377065154E+00
    0.9000000000E+02    0.3776637904E-01    0.8448089617E-01    0.1440513627E+00    0.4671356246E-02    0.2613148894E+00
    0.1100000000E+03    0.4425107361E-01    0.9191453079E-01    0.1537642547E+00    0.5101002414E-02    0.2791838683E+00
    0.1300000000E+03    0.5027840184E-01    0.9797791807E-01    0.1613783659E+00    0.5456275819E-02    0.2932448488E+00
    0.1500000000E+03    0.5591496832E-01    0.1030083875E+00    0.1675265111E+00    0.5755145438E-02    0.3046406931E+00
    0.1700000000E+03    0.6121435966E-01    0.1072339792E+00    0.1726076082E+00    0.6009789514E-02    0.3140928161E+00
    0.1900000000E+03    0.6622023133E-01    0.1108166743E+00    0.1768861445E+00    0.6228886112E-02    0.3220801629E+00
    0.2100000000E+03    0.7096854885E-01    0.1138759290E+00    0.1805447281E+00    0.6418858002E-02    0.3289338467E+00
    0.2300000000E+03    0.7548924299E-01    0.1165024457E+00    0.1837136988E+00    0.6584600504E-02    0.3348905161E+00
    0.2500000000E+03    0.7980745111E-01    0.1187667108E+00    0.1864887105E+00    0.6729932793E-02    0.3401240698E+00
    0.2700000000E+03    0.8394446116E-01    0.1207245450E+00    0.1889416361E+00    0.6857891418E-02    0.3447653416E+00
    0.2900000000E+03    0.8791843868E-01    0.1224208521E+00    0.1911275845E+00    0.6970928818E-02    0.3489147774E+00
    0.3100000000E+03    0.9174499319E-01    0.1238922352E+00    0.1930895599E+00    0.7071052037E-02    0.3526508600E+00
    0.3300000000E+03    0.9543762417E-01    0.1251688708E+00    0.1948616417E+00    0.7159922310E-02    0.3560358624E+00
    0.3500000000E+03    0.9900807561E-01    0.1262758834E+00    0.1964712065E+00    0.7238928218E-02    0.3591198726E+00
    0.3700000000E+03    0.1024666205E+00    0.1272343731E+00    0.1979405147E+00    0.7309240511E-02    0.3619436679E+00
    0.3900000000E+03    0.1058222909E+00    0.1280621964E+00    0.1992878637E+00    0.7371853869E-02    0.3645408076E+00
    0.4100000000E+03    0.1090830658E+00    0.1287745696E+00    0.2005284414E+00    0.7427619206E-02    0.3669391812E+00
    0.4300000000E+03    0.1122560248E+00    0.1293845391E+00    0.2016749660E+00    0.7477268976E-02    0.3691621721E+00
    0.4500000000E+03    0.1153474759E+00    0.1299033548E+00    0.2027381746E+00    0.7521437228E-02    0.3712295435E+00
    0.4700000000E+03    0.1183630612E+00    0.1303407670E+00    0.2037271975E+00    0.7560675660E-02    0.3731581226E+00
    0.4900000000E+03    0.1213078457E+00    0.1307052664E+00    0.2046498522E+00    0.7595466595E-02    0.3749623324E+00
    0.1000000000E+03    0.4107067602E-01    0.8839623831E-01    0.1492232620E+00    0.4896925570E-02    0.2708212162E+00
    0.3000000000E+03    0.8984925518E-01    0.1231826406E+00    0.1921342595E+00    0.7022493731E-02    0.3508302698E+00
    0.5000000000E+03    0.1227551312E+00    0.1308625315E+00    0.2050884329E+00    0.7611328649E-02    0.3758217543E+00
    0.7000000000E+03    0.1488847149E+00    0.1315677835E+00    0.2116072262E+00    0.7774844768E-02    0.3887606011E+00
    0.9000000000E+03    0.1711900212E+00    0.1296960239E+00    0.2156039837E+00    0.7767104462E-02    0.3968983776E+00
    0.1100000000E+04    0.1909786830E+00    0.1267351874E+00    0.2183322410E+00    0.7678095916E-02    0.4025855550E+00
    0.1300000000E+04    0.2089423098E+00    0.1233023145E+00    0.2203255222E+00    0.7547106450E-02    0.4068332401E+00
    0.1500000000E+04    0.2254918291E+00    0.1196862832E+00    0.2218518799E+00    0.7393671776E-02    0.4101544855E+00
    0.1700000000E+04    0.2408925437E+00    0.1160331300E+00    0.2230616852E+00    0.7228412405E-02    0.4128398076E+00
    0.1900000000E+04    0.2553268507E+00    0.1124201893E+00    0.2240462318E+00    0.7057484060E-02    0.4150671690E+00
    0.2100000000E+04    0.2689265334E+00    0.1088892595E+00    0.2248643526E+00    0.6884625258E-02    0.4169522462E+00
    0.2300000000E+04    0.2817907424E+00    0.1054627319E+00    0.2255557736E+00    0.6712183834E-02    0.4185738011E+00
    0.2500000000E+04    0.2939966422E+00    0.1021519591E+00    0.2261483463E+00    0.6541667540E-02    0.4199875021E+00
    0.2700000000E+04    0.3056060346E+00    0.9896182563E-01    0.2266622106E+00    0.6374056019E-02    0.4212339228E+00
    0.2900000000E+04    0.3166696493E+00    0.9589335112E-01    0.2271123120E+00    0.6209985788E-02    0.4223434064E+00
    0.3100000000E+04    0.3272300200E+00    0.9294522293E-01    0.2275099883E+00    0.6049864239E-02    0.4233391466E+00
    0.3300000000E+04    0.3373234666E+00    0.9011472471E-01    0.2278640053E+00    0.5893942250E-02    0.4242392099E+00
    0.3500000000E+04    0.3469814978E+00    0.8739831126E-01    0.2281812527E+00    0.5742361792E-02    0.4250579007E+00
    0.3700000000E+04    0.3562318225E+00    0.8479197088E-01    0.2284672251E+00    0.5595187934E-02    0.4258067096E+00
    0.3900000000E+04    0.3650990959E+00    0.8229145677E-01    0.2287263605E+00    0.5452430855E-02    0.4264949844E+00
    0.4100000000E+04    0.3736054766E+00    0.7989243594E-01    0.2289622852E+00    0.5314061281E-02    0.4271304171E+00
    0.4300000000E+04    0.3817710515E+00    0.7759058547E-01    0.2291779924E+00    0.5180021508E-02    0.4277194016E+00
    0.4500000000E+04    0.3896141631E+00    0.7538165429E-01    0.2293759761E+00    0.5050233392E-02    0.4282673018E+00
    0.4700000000E+04    0.3971516656E+00    0.7326150242E-01    0.2295583317E+00    0.4924604226E-02    0.4287786551E+00
    0.4900000000E+04    0.4043991280E+00    0.7122612514E-01    0.2297268329E+00    0.4803031114E-02    0.4292573293E+00
    0.1000000000E+04    0.1813467100E+00    0.1283019443E+00    0.2170842574E+00    0.7729635483E-02    0.3999681249E+00
    0.3000000000E+04    0.3220103432E+00    0.9440438864E-01    0.2273171046E+00    0.6129412731E-02    0.4228542636E+00
    0.5000000000E+04    0.4079186486E+00    0.7023901607E-01    0.2298063696E+00    0.4743731461E-02    0.4294854677E+00
    0.7000000000E+04    0.4661196962E+00    0.5409620147E-01    0.2309417350E+00    0.3742606867E-02    0.4329368597E+00
    0.9000000000E+04    0.5071356272E+00    0.4300644175E-01    0.2315859042E+00    0.3019829047E-02    0.4351340277E+00
    0.1100000000E+05    0.5369490559E+00    0.3514579249E-01    0.2319953749E+00    0.2488961150E-02    0.4366887885E+00
    0.1300000000E+05    0.5592255221E+00    0.2940615529E-01    0.2322743525E+00    0.2090721660E-02    0.4378640319E+00
    0.1500000000E+05    0.5762865575E+00    0.2510076989E-01    0.2324733823E+00    0.1785587494E-02    0.4387936008E+00
    0.1700000000E+05    0.5896428387E+00    0.2179279267E-01    0.2326200006E+00    0.1547115694E-02    0.4395535982E+00
    0.1900000000E+05    0.6003031403E+00    0.1919668292E-01    0.2327304981E+00    0.1357355392E-02    0.4401908282E+00
    0.2100000000E+05    0.6089579466E+00    0.1712079129E-01    0.2328151279E+00    0.1203893475E-02    0.4407358252E+00
    0.2300000000E+05    0.6160909787E+00    0.1543324821E-01    0.2328806608E+00    0.1077978083E-02    0.4412094498E+00
    0.2500000000E+05    0.6220484689E+00    0.1404121200E-01    0.2329317440E+00    0.9733204562E-03    0.4416264942E+00
    0.2700000000E+05    0.6270831718E+00    0.1287793331E-01    0.2329716694E+00    0.8853197233E-03    0.4419977736E+00
    0.2900000000E+05    0.6313829518E+00    0.1189449736E-01    0.2330028314E+00    0.8105529934E-03    0.4423314011E+00
    0.3100000000E+05    0.6350897513E+00    0.1105443125E-01    0.2330270106E+00    0.7464340170E-03    0.4426335980E+00
    0.3300000000E+05    0.6383124300E+00    0.1033010661E-01    0.2330455572E+00    0.6909806435E-03    0.4429092251E+00
    0.3500000000E+05    0.6411356215E+00    0.9700291675E-02    0.2330595118E+00    0.6426536901E-03    0.4431621434E+00
    0.3700000000E+05    0.6436259486E+00    0.9148454792E-02    0.2330696882E+00    0.6002434770E-03    0.4433954640E+00
    0.3900000000E+05    0.6458364572E+00    0.8661568426E-02    0.2330767311E+00    0.5627887057E-03    0.4436117259E+00
    0.4100000000E+05    0.6478098274E+00    0.8229252708E-02    0.2330811571E+00    0.5295176285E-03    0.4438130249E+00
    0.4300000000E+05    0.6495807307E+00    0.7843153141E-02    0.2330833842E+00    0.4998048145E-03    0.4440011089E+00
    0.4500000000E+05    0.6511775836E+00    0.7496482304E-02    0.2330837539E+00    0.4731389790E-03    0.4441774485E+00
    0.4700000000E+05    0.6526238679E+00    0.7183678112E-02    0.2330825475E+00    0.4490987672E-03    0.4443432921E+00
    0.4900000000E+05    0.6539391352E+00    0.6900146011E-02    0.2330799981E+00    0.4273343269E-03    0.4444997067E+00
    0.1000000000E+05    0.5231736157E+00    0.3875431199E-01    0.2318116066E+00    0.2734666960E-02    0.4359708805E+00
    0.3000000000E+05    0.6333030143E+00    0.1145844401E-01    0.2330157010E+00    0.7772984112E-03    0.4424860976E+00
    0.5000000000E+05    0.6545528666E+00    0.6768136393E-02    0.2330782821E+00    0.4172121891E-03    0.4445746703E+00
    0.7000000000E+05    0.6628113565E+00    0.5005219461E-02    0.2330071753E+00    0.2834522791E-03    0.4457471564E+00
    0.9000000000E+05    0.6670902339E+00    0.4091641071E-02    0.2329077496E+00    0.2163449268E-03    0.4465410401E+00
    0.1100000000E+06    0.6696799058E+00    0.3529552304E-02    0.2328041261E+00    0.1766144477E-03    0.4471326750E+00
    0.1300000000E+06    0.6714069259E+00    0.3145351713E-02    0.2327033576E+00    0.1505000283E-03    0.4476001102E+00
    0.1500000000E+06    0.6726374686E+00    0.2863641209E-02    0.2326075643E+00    0.1320586278E-03    0.4479842276E+00
    0.1700000000E+06    0.6735573314E+00    0.2646555030E-02    0.2325171970E+00    0.1183393806E-03    0.4483089216E+00
    0.1900000000E+06    0.6742703682E+00    0.2473004306E-02    0.2324321052E+00    0.1077228950E-03    0.4485892834E+00
    0.2100000000E+06    0.6748390030E+00    0.2330298684E-02    0.2323519292E+00    0.9925082477E-04    0.4488354108E+00
    0.2300000000E+06    0.6753029401E+00    0.2210329169E-02    0.2322762543E+00    0.9232157393E-04    0.4490543708E+00
    0.2500000000E+06    0.6756886036E+00    0.2107660160E-02    0.2322046726E+00    0.8653917220E-04    0.4492512896E+00
    0.2700000000E+06    0.6760142440E+00    0.2018503168E-02    0.2321368058E+00    0.8163265539E-04    0.4494299961E+00
    0.2900000000E+06    0.6762928627E+00    0.1940130887E-02    0.2320723132E+00    0.7741047685E-04    0.4495934207E+00
    0.3100000000E+06    0.6765339677E+00    0.1870525745E-02    0.2320108907E+00    0.7373344840E-04    0.4497438536E+00
    0.3300000000E+06    0.6767446704E+00    0.1808160146E-02    0.2319522692E+00    0.7049800820E-04    0.4498831158E+00
    0.3500000000E+06    0.6769303943E+00    0.1751854096E-02    0.2318962102E+00    0.6762550515E-04    0.4500126783E+00
    0.3700000000E+06    0.6770953467E+00    0.1700680095E-02    0.2318425026E+00    0.6505512484E-04    0.4501337451E+00
    0.3900000000E+06    0.6772428411E+00    0.1653897886E-02    0.2317909592E+00    0.6273909369E-04    0.4502473134E+00
    0.4100000000E+06    0.6773755222E+00    0.1610908618E-02    0.2317414131E+00    0.6063935056E-04    0.4503542181E+00
    0.4300000000E+06    0.6774955262E+00    0.1571221974E-02    0.2316937156E+00    0.5872518812E-04    0.4504551646E+00
    0.4500000000E+06    0.6776045974E+00    0.1534432162E-02    0.2316477336E+00    0.5697155007E-04    0.4505507541E+00
    0.4700000000E+06    0.6777041740E+00    0.1500200070E-02    0.2316033476E+00    0.5535778099E-04    0.4506415029E+00
    0.4900000000E+06    0.6777954525E+00    0.1468239819E-02    0.2315604498E+00    0.5386669447E-04    0.4507278574E+00
    0.1000000000E+06    0.6685280859E+00    0.3781058664E-02    0.2328558386E+00    0.1941996484E-03    0.4468560034E+00
    0.3000000000E+06    0.6764176135E+00    0.1904337428E-02    0.2320412358E+00    0.7551097874E-04    0.4496701379E+00
    0.5000000000E+06    0.6778382999E+00    0.1453034271E-02    0.2315395282E+00    0.5316255808E-04    0.4507695103E+00
    0.7000000000E+06    0.6784353227E+00    0.1224633856E-02    0.2311799294E+00    0.4298866166E-04    0.4514443510E+00
    0.9000000000E+06    0.6787659806E+00    0.1080190943E-02    0.2308990535E+00    0.3693217891E-04    0.4519275683E+00
    0.1100000000E+07    0.6789769871E+00    0.9781106146E-03    0.2306682556E+00    0.3281898772E-04    0.4523023230E+00
    0.1300000000E+07    0.6791238537E+00    0.9009570711E-03    0.2304721776E+00    0.2979773876E-04    0.4526075742E+00
    0.1500000000E+07    0.6792322683E+00    0.8399499733E-03    0.2303016188E+00    0.2746013099E-04    0.4528646169E+00
    0.1700000000E+07    0.6793157720E+00    0.7901165525E-03    0.2301506258E+00    0.2558331792E-04    0.4530863268E+00
    0.1900000000E+07    0.6793821902E+00    0.7483989790E-03    0.2300151210E+00    0.2403420479E-04    0.4532810666E+00
    0.2100000000E+07    0.6794363656E+00    0.7127985728E-03    0.2298921876E+00    0.2272783231E-04    0.4534545662E+00
    0.2300000000E+07    0.6794814586E+00    0.6819457924E-03    0.2297796659E+00    0.2160711852E-04    0.4536109192E+00
    0.2500000000E+07    0.6795196216E+00    0.6548661975E-03    0.2296759116E+00    0.2063212035E-04    0.4537531486E+00
    0.2700000000E+07    0.6795523720E+00    0.6308448190E-03    0.2295796431E+00    0.1977394780E-04    0.4538835490E+00
    0.2900000000E+07    0.6795808110E+00    0.6093434665E-03    0.2294898422E+00    0.1901112407E-04    0.4540039023E+00
    0.3100000000E+07    0.6796057579E+00    0.5899481507E-03    0.2294056860E+00    0.1832730966E-04    0.4541156189E+00
    0.3300000000E+07    0.6796278349E+00    0.5723344551E-03    0.2293265002E+00    0.1770982526E-04    0.4542198341E+00
    0.3500000000E+07    0.6796475234E+00    0.5562440317E-03    0.2292517249E+00    0.1714866216E-04    0.4543174747E+00
    0.3700000000E+07    0.6796652018E+00    0.5414682271E-03    0.2291808902E+00    0.1663580094E-04    0.4544093071E+00
    0.3900000000E+07    0.6796811720E+00    0.5278364155E-03    0.2291135980E+00    0.1616473100E-04    0.4544959721E+00
    0.4100000000E+07    0.6796956774E+00    0.5152075158E-03    0.2290495077E+00    0.1573010462E-04    0.4545780108E+00
    0.4300000000E+07    0.6797089170E+00    0.5034637149E-03    0.2289883258E+00    0.1532748321E-04    0.4546558841E+00
    0.4500000000E+07    0.6797210547E+00    0.4925057493E-03    0.2289297976E+00    0.1495314800E-04    0.4547299879E+00
    0.4700000000E+07    0.6797322272E+00    0.4822493065E-03    0.2288737006E+00    0.1460395683E-04    0.4548006645E+00
    0.4900000000E+07    0.6797425491E+00    0.4726222449E-03    0.2288198393E+00    0.1427723418E-04    0.4548682119E+00
    0.1000000000E+07    0.6788819175E+00    0.1025242415E-02    0.2307785508E+00    0.3470138878E-04    0.4521254810E+00
    0.3000000000E+07    0.6795936782E+00    0.5994046116E-03    0.2294471037E+00    0.1866020550E-04    0.4540607637E+00
    0.5000000000E+07    0.6797474220E+00    0.4680249715E-03    0.2287936922E+00    0.1412156864E-04    0.4549008951E+00
    0.7000000000E+07    0.6798174361E+00    0.3977414909E-03    0.2283550577E+00    0.1177082091E-04    0.4554395151E+00
    0.9000000000E+07    0.6798583388E+00    0.3522474557E-03    0.2280239568E+00    0.1027913652E-04    0.4558354444E+00
    0.1100000000E+08    0.6798855209E+00    0.3196955511E-03    0.2277577342E+00    0.9226987897E-05    0.4561481482E+00
    0.1300000000E+08    0.6799050747E+00    0.2949068565E-03    0.2275349988E+00    0.8434683701E-05    0.4564063588E+00
    0.1500000000E+08    0.6799199175E+00    0.2752083219E-03    0.2273434724E+00    0.7810830917E-05    0.4566261414E+00
    0.1700000000E+08    0.6799316304E+00    0.2590615657E-03    0.2271754472E+00    0.7303431135E-05    0.4568173827E+00
    0.1900000000E+08    0.6799411490E+00    0.2455099725E-03    0.2270257638E+00    0.6880452276E-05    0.4569865968E+00
    0.2100000000E+08    0.6799490643E+00    0.2339231363E-03    0.2268907976E+00    0.6520952384E-05    0.4571383013E+00
    0.2300000000E+08    0.6799557691E+00    0.2238663995E-03    0.2267679039E+00    0.6210591298E-05    0.4572757568E+00
    0.2500000000E+08    0.6799615352E+00    0.2150289992E-03    0.2266550935E+00    0.5939178423E-05    0.4574013928E+00
    0.2700000000E+08    0.6799665574E+00    0.2071820386E-03    0.2265508324E+00    0.5699248385E-05    0.4575170679E+00
