  Pressure (Pa) 22mC5-400 (mol/kg) 2mC6-400 (mol/kg) 3mC6-400 (mol/kg) 33mC5-400 (mol/kg) C7-400 (mol/kg)
    0.1000000000E+01    0.5314317894E-03    0.1570560306E-02    0.3112315786E-02    0.1918572012E-03    0.1346871796E-01
    0.3000000000E+01    0.1586297433E-02    0.4507546583E-02    0.8869208982E-02    0.5509080382E-03    0.3839155396E-01
    0.5000000000E+01    0.2630670243E-02    0.7205663109E-02    0.1407754096E-01    0.8811199214E-03    0.6095119222E-01
    0.7000000000E+01    0.3664750764E-02    0.9698260391E-02    0.1881289334E-01    0.1186540920E-02    0.8147272939E-01
    0.9000000000E+01    0.4688734277E-02    0.1201265104E-01    0.2313753784E-01    0.1470483583E-02    0.1002240570E+00
    0.1100000000E+02    0.5702810970E-02    0.1417140913E-01    0.2710324453E-01    0.1735683531E-02    0.1174279260E+00
    0.1300000000E+02    0.6707166105E-02    0.1619334963E-01    0.3075340789E-01    0.1984418966E-02    0.1332710800E+00
    0.1500000000E+02    0.7701980179E-02    0.1809427592E-01    0.3412467619E-01    0.2218601842E-02    0.1479112576E+00
    0.1700000000E+02    0.8687429080E-02    0.1988755682E-01    0.3724821483E-01    0.2439848208E-02    0.1614826201E+00
    0.1900000000E+02    0.9663684231E-02    0.2158457654E-01    0.4015069579E-01    0.2649533056E-02    0.1741000047E+00
    0.2100000000E+02    0.1063091273E-01    0.2319508905E-01    0.4285508027E-01    0.2848833476E-02    0.1858622877E+00
    0.2300000000E+02    0.1158927751E-01    0.2472749953E-01    0.4538124321E-01    0.3038762938E-02    0.1968550694E+00
    0.2500000000E+02    0.1253893742E-01    0.2618908986E-01    0.4774647569E-01    0.3220198725E-02    0.2071528337E+00
    0.2700000000E+02    0.1348004741E-01    0.2758620054E-01    0.4996589223E-01    0.3393904073E-02    0.2168206994E+00
    0.2900000000E+02    0.1441275862E-01    0.2892437864E-01    0.5205276339E-01    0.3560546153E-02    0.2259158501E+00
    0.3100000000E+02    0.1533721849E-01    0.3020849875E-01    0.5401878915E-01    0.3720710776E-02    0.2344887099E+00
    0.3300000000E+02    0.1625357091E-01    0.3144286270E-01    0.5587432498E-01    0.3874914500E-02    0.2425839160E+00
    0.3500000000E+02    0.1716195629E-01    0.3263128200E-01    0.5762856995E-01    0.4023614648E-02    0.2502411270E+00
    0.3700000000E+02    0.1806251168E-01    0.3377714664E-01    0.5928972411E-01    0.4167217645E-02    0.2574957006E+00
    0.3900000000E+02    0.1895537088E-01    0.3488348257E-01    0.6086512081E-01    0.4306085997E-02    0.2643792625E+00
    0.4100000000E+02    0.1984066454E-01    0.3595300012E-01    0.6236133848E-01    0.4440544158E-02    0.2709201874E+00
    0.4300000000E+02    0.2071852021E-01    0.3698813486E-01    0.6378429562E-01    0.4570883481E-02    0.2771440076E+00
    0.4500000000E+02    0.2158906249E-01    0.3799108237E-01    0.6513933167E-01    0.4697366424E-02    0.2830737613E+00
    0.4700000000E+02    0.2245241308E-01    0.3896382779E-01    0.6643127633E-01    0.4820230132E-02    0.2887302905E+00
    0.4900000000E+02    0.2330869090E-01    0.3990817118E-01    0.6766450916E-01    0.4939689495E-02    0.2941324979E+00
    0.1000000000E+02    0.5196999284E-02    0.1311022984E-01    0.2516237111E-01    0.1605274473E-02    0.1090069993E+00
    0.3000000000E+02    0.1487601089E-01    0.2957291470E-01    0.5305020559E-01    0.3641404365E-02    0.2302646511E+00
    0.5000000000E+02    0.2373421392E-01    0.4037020943E-01    0.6826036694E-01    0.4998204272E-02    0.2967436627E+00
    0.7000000000E+02    0.3190030855E-01    0.4844845513E-01    0.7789221747E-01    0.6028929549E-02    0.3390570052E+00
    0.9000000000E+02    0.3947648815E-01    0.5489527808E-01    0.8456592901E-01    0.6863106310E-02    0.3685226723E+00
    0.1100000000E+03    0.4654500000E-01    0.6022702744E-01    0.8947728727E-01    0.7562015838E-02    0.3903147211E+00
    0.1300000000E+03    0.5317284079E-01    0.6473344331E-01    0.9325129650E-01    0.8160040179E-02    0.4071420472E+00
    0.1500000000E+03    0.5941517865E-01    0.6859712612E-01    0.9624713900E-01    0.8678900122E-02    0.4205640313E+00
    0.1700000000E+03    0.6531788842E-01    0.7194298069E-01    0.9868627375E-01    0.9133513652E-02    0.4315437394E+00
    0.1900000000E+03    0.7091945773E-01    0.7486159309E-01    0.1007128678E+00    0.9534752955E-02    0.4407091606E+00
    0.2100000000E+03    0.7625243941E-01    0.7742150680E-01    0.1024249224E+00    0.9890887621E-02    0.4484878961E+00
    0.2300000000E+03    0.8134457187E-01    0.7967624036E-01    0.1038914499E+00    0.1020840832E-01    0.4551815609E+00
    0.2500000000E+03    0.8621965294E-01    0.8166858681E-01    0.1051624966E+00    0.1049253134E-01    0.4610092408E+00
    0.2700000000E+03    0.9089822859E-01    0.8343340145E-01    0.1062752663E+00    0.1074752612E-01    0.4661340693E+00
    0.2900000000E+03    0.9539814089E-01    0.8499949524E-01    0.1072580095E+00    0.1097693808E-01    0.4706801233E+00
    0.3100000000E+03    0.9973496775E-01    0.8639097048E-01    0.1081325761E+00    0.1118374633E-01    0.4747435248E+00
    0.3300000000E+03    0.1039223787E+00    0.8762819297E-01    0.1089161395E+00    0.1137047878E-01    0.4783999449E+00
    0.3500000000E+03    0.1079724252E+00    0.8872851795E-01    0.1096223901E+00    0.1153929836E-01    0.4817098057E+00
    0.3700000000E+03    0.1118957785E+00    0.8970684391E-01    0.1102623802E+00    0.1169206904E-01    0.4847219639E+00
    0.3900000000E+03    0.1157019268E+00    0.9057604273E-01    0.1108451335E+00    0.1183040735E-01    0.4874763721E+00
    0.4100000000E+03    0.1193993390E+00    0.9134729884E-01    0.1113780923E+00    0.1195572301E-01    0.4900060339E+00
    0.4300000000E+03    0.1229956013E+00    0.9203038017E-01    0.1118674513E+00    0.1206925161E-01    0.4923384637E+00
    0.4500000000E+03    0.1264975330E+00    0.9263385699E-01    0.1123184098E+00    0.1217208103E-01    0.4944967912E+00
    0.4700000000E+03    0.1299112831E+00    0.9316528048E-01    0.1127353650E+00    0.1226517312E-01    0.4965006083E+00
    0.4900000000E+03    0.1332424136E+00    0.9363132964E-01    0.1131220620E+00    0.1234938150E-01    0.4983666265E+00
    0.1000000000E+03    0.4306970302E-01    0.5767903909E-01    0.8719434139E-01    0.7226919577E-02    0.3801718613E+00
    0.3000000000E+03    0.9758604461E-01    0.8571570924E-01    0.1077076480E+00    0.1108300022E-01    0.4727670168E+00
    0.5000000000E+03    0.1348785916E+00    0.9384171795E-01    0.1133050849E+00    0.1238839518E-01    0.4992525247E+00
    0.7000000000E+03    0.1642729247E+00    0.9575417496E-01    0.1159588427E+00    0.1284902112E-01    0.5123440357E+00
    0.9000000000E+03    0.1890926373E+00    0.9509332793E-01    0.1175133324E+00    0.1293699440E-01    0.5203186596E+00
    0.1100000000E+04    0.2108720332E+00    0.9323433172E-01    0.1185345695E+00    0.1283714403E-01    0.5257577787E+00
    0.1300000000E+04    0.2304401037E+00    0.9079328447E-01    0.1192558799E+00    0.1263549460E-01    0.5297414736E+00
    0.1500000000E+04    0.2482955656E+00    0.8807731459E-01    0.1197914644E+00    0.1237681752E-01    0.5328059270E+00
    0.1700000000E+04    0.2647630872E+00    0.8525081472E-01    0.1202039658E+00    0.1208630969E-01    0.5352492978E+00
    0.1900000000E+04    0.2800673229E+00    0.8240600602E-01    0.1205306694E+00    0.1177897928E-01    0.5372514293E+00
    0.2100000000E+04    0.2943715067E+00    0.7959606926E-01    0.1207951776E+00    0.1146414381E-01    0.5389276603E+00
    0.2300000000E+04    0.3077991012E+00    0.7685194486E-01    0.1210131691E+00    0.1114776117E-01    0.5403555977E+00
    0.2500000000E+04    0.3204466709E+00    0.7419138583E-01    0.1211954707E+00    0.1083371536E-01    0.5415895172E+00
    0.2700000000E+04    0.3323919092E+00    0.7162408199E-01    0.1213498015E+00    0.1052456274E-01    0.5426686035E+00
    0.2900000000E+04    0.3436988438E+00    0.6915468001E-01    0.1214818138E+00    0.1022198408E-01    0.5436219098E+00
    0.3100000000E+04    0.3544213280E+00    0.6678462429E-01    0.1215957417E+00    0.9927068470E-02    0.5444714710E+00
    0.3300000000E+04    0.3646054494E+00    0.6451331084E-01    0.1216948193E+00    0.9640497246E-02    0.5452343276E+00
    0.3500000000E+04    0.3742912346E+00    0.6233882774E-01    0.1217815596E+00    0.9362666350E-02    0.5459238838E+00
    0.3700000000E+04    0.3835138829E+00    0.6025843945E-01    0.1218579447E+00    0.9093769701E-02    0.5465508410E+00
    0.3900000000E+04    0.3923046773E+00    0.5826890855E-01    0.1219255582E+00    0.8833857133E-02    0.5471238564E+00
    0.4100000000E+04    0.4006916698E+00    0.5636671190E-01    0.1219856811E+00    0.8582875380E-02    0.5476500162E+00
    0.4300000000E+04    0.4087002060E+00    0.5454818709E-01    0.1220393598E+00    0.8340697519E-02    0.5481351820E+00
    0.4500000000E+04    0.4163533329E+00    0.5280963198E-01    0.1220874581E+00    0.8107144385E-02    0.5485842487E+00
    0.4700000000E+04    0.4236721208E+00    0.5114737216E-01    0.1221306945E+00    0.7882000330E-02    0.5490013392E+00
    0.4900000000E+04    0.4306759221E+00    0.4955780645E-01    0.1221696717E+00    0.7665024911E-02    0.5493899534E+00
    0.1000000000E+04    0.2003000554E+00    0.9426476106E-01    0.1180719171E+00    0.1290380408E-01    0.5232689710E+00
    0.3000000000E+04    0.3491301024E+00    0.6795723383E-01    0.1215408165E+00    0.1007351792E-01    0.5440584949E+00
    0.5000000000E+04    0.4340653328E+00    0.4878918616E-01    0.1221877255E+00    0.7559520717E-02    0.5495745342E+00
    0.7000000000E+04    0.4890107180E+00    0.3645590827E-01    0.1224153125E+00    0.5813506230E-02    0.5523123672E+00
    0.9000000000E+04    0.5265261248E+00    0.2827518229E-01    0.1225081950E+00    0.4597172845E-02    0.5539943357E+00
    0.1100000000E+05    0.5532231015E+00    0.2263825581E-01    0.1225437619E+00    0.3728598455E-02    0.5551508057E+00
    0.1300000000E+05    0.5728950191E+00    0.1861341698E-01    0.1225510659E+00    0.3091055777E-02    0.5560043699E+00
    0.1500000000E+05    0.5878272791E+00    0.1564787991E-01    0.1225431708E+00    0.2610790300E-02    0.5566660545E+00
    0.1700000000E+05    0.5994529417E+00    0.1340239330E-01    0.1225266738E+00    0.2240471906E-02    0.5571978228E+00
    0.1900000000E+05    0.6087030562E+00    0.1166149315E-01    0.1225051850E+00    0.1948994765E-02    0.5576371367E+00
    0.2100000000E+05    0.6162020356E+00    0.1028386947E-01    0.1224807982E+00    0.1715389572E-02    0.5580080541E+00
    0.2300000000E+05    0.6223806927E+00    0.9174098299E-02    0.1224547806E+00    0.1525168693E-02    0.5583267750E+00
    0.2500000000E+05    0.6275438789E+00    0.8266026458E-02    0.1224279236E+00    0.1368091135E-02    0.5586046345E+00
    0.2700000000E+05    0.6319122328E+00    0.7512700918E-02    0.1224007324E+00    0.1236764642E-02    0.5588498185E+00
    0.2900000000E+05    0.6356486929E+00    0.6880086303E-02    0.1223735343E+00    0.1125750781E-02    0.5590683985E+00
    0.3100000000E+05    0.6388757781E+00    0.6343039919E-02    0.1223465427E+00    0.1030978915E-02    0.5592649812E+00
    0.3300000000E+05    0.6416871205E+00    0.5882669457E-02    0.1223198961E+00    0.9493541632E-03    0.5594431307E+00
    0.3500000000E+05    0.6441553302E+00    0.5484559330E-02    0.1222936834E+00    0.8784898380E-03    0.5596056524E+00
    0.3700000000E+05    0.6463374653E+00    0.5137555651E-02    0.1222679600E+00    0.8165214368E-03    0.5597547874E+00
    0.3900000000E+05    0.6482789049E+00    0.4832918289E-02    0.1222427579E+00    0.7619751041E-03    0.5598923504E+00
    0.4100000000E+05    0.6500161373E+00    0.4563718966E-02    0.1222180935E+00    0.7136731359E-03    0.5600198283E+00
    0.4300000000E+05    0.6515787971E+00    0.4324407285E-02    0.1221939724E+00    0.6706651014E-03    0.5601384521E+00
    0.4500000000E+05    0.6529911748E+00    0.4110493322E-02    0.1221703924E+00    0.6321769583E-03    0.5602492512E+00
    0.4700000000E+05    0.6542733497E+00    0.3918312384E-02    0.1221473462E+00    0.5975729919E-03    0.5603530935E+00
    0.4900000000E+05    0.6554420496E+00    0.3744848527E-02    0.1221248233E+00    0.5663270155E-03    0.5604507171E+00
    0.1000000000E+05    0.5409436517E+00    0.2520854076E-01    0.1225307623E+00    0.4127964608E-02    0.5546205198E+00
    0.3000000000E+05    0.6373194846E+00    0.6600920235E-02    0.1223600026E+00    0.1076547280E-02    0.5591691962E+00
    0.5000000000E+05    0.6559883233E+00    0.3664336781E-02    0.1221137541E+00    0.5518232601E-03    0.5604973978E+00
    0.7000000000E+05    0.6634114380E+00    0.2607731466E-02    0.1219162392E+00    0.3621962615E-03    0.5612191408E+00
    0.9000000000E+05    0.6673297384E+00    0.2078322685E-02    0.1217546271E+00    0.2690335115E-03    0.5616999634E+00
    0.1100000000E+06    0.6697363225E+00    0.1761430436E-02    0.1216183794E+00    0.2148697549E-03    0.5620549661E+00
    0.1300000000E+06    0.6713604282E+00    0.1549695349E-02    0.1215007211E+00    0.1798435198E-03    0.5623338278E+00
    0.1500000000E+06    0.6725290831E+00    0.1397357086E-02    0.1213972071E+00    0.1554715067E-03    0.5625621283E+00
    0.1700000000E+06    0.6734099847E+00    0.1281818674E-02    0.1213047980E+00    0.1375828900E-03    0.5627546334E+00
    0.1900000000E+06    0.6740977348E+00    0.1190686884E-02    0.1212213329E+00    0.1239095713E-03    0.5629205810E+00
    0.2100000000E+06    0.6746496553E+00    0.1116608195E-02    0.1211452240E+00    0.1131207863E-03    0.5630661074E+00
    0.2300000000E+06    0.6751024657E+00    0.1054944052E-02    0.1210752716E+00    0.1043879480E-03    0.5631954817E+00
    0.2500000000E+06    0.6754807590E+00    0.1002621808E-02    0.1210105472E+00    0.9716991368E-04    0.5633117857E+00
    0.2700000000E+06    0.6758016181E+00    0.9575231217E-03    0.1209503180E+00    0.9109912859E-04    0.5634173125E+00
    0.2900000000E+06    0.6760772756E+00    0.9181382477E-03    0.1208939954E+00    0.8591761657E-04    0.5635138113E+00
    0.3100000000E+06    0.6763167191E+00    0.8833606067E-03    0.1208410997E+00    0.8143919979E-04    0.5636026452E+00
    0.3300000000E+06    0.6765267002E+00    0.8523594765E-03    0.1207912345E+00    0.7752626366E-04    0.5636848960E+00
    0.3500000000E+06    0.6767123880E+00    0.8244982039E-03    0.1207440686E+00    0.7407495478E-04    0.5637614353E+00
    0.3700000000E+06    0.6768778074E+00    0.7992800034E-03    0.1206993226E+00    0.7100545880E-04    0.5638329758E+00
    0.3900000000E+06    0.6770261392E+00    0.7763110493E-03    0.1206567584E+00    0.6825544216E-04    0.5639001066E+00
    0.4100000000E+06    0.6771599298E+00    0.7552747375E-03    0.1206161714E+00    0.6577552235E-04    0.5639633204E+00
    0.4300000000E+06    0.6772812428E+00    0.7359133520E-03    0.1205773848E+00    0.6352607320E-04    0.5640230331E+00
    0.4500000000E+06    0.6773917673E+00    0.7180147561E-03    0.1205402443E+00    0.6147492887E-04    0.5640795987E+00
    0.4700000000E+06    0.6774929000E+00    0.7014025673E-03    0.1205046149E+00    0.5959570581E-04    0.5641333211E+00
    0.4900000000E+06    0.6775858055E+00    0.6859287909E-03    0.1204703776E+00    0.5786655733E-04    0.5641844629E+00
    0.1000000000E+06    0.6686620785E+00    0.1902259813E-02    0.1216838253E+00    0.2387299604E-03    0.5618892661E+00
    0.3000000000E+06    0.6762010587E+00    0.9002307824E-03    0.1208671457E+00    0.8360005595E-04    0.5635591131E+00
    0.5000000000E+06    0.6776294853E+00    0.6785789151E-03    0.1204537476E+00    0.5705243903E-04    0.5642091386E+00
    0.7000000000E+06    0.6782432863E+00    0.5690539846E-03    0.1201739562E+00    0.4547006243E-04    0.5646097342E+00
    0.9000000000E+06    0.6785883254E+00    0.5005556777E-03    0.1199619306E+00    0.3874051249E-04    0.5648977035E+00
    0.1100000000E+07    0.6788110348E+00    0.4524541310E-03    0.1197910593E+00    0.3424116310E-04    0.5651217947E+00
    0.1300000000E+07    0.6789675091E+00    0.4162475618E-03    0.1196478845E+00    0.3097204752E-04    0.5653048572E+00
    0.1500000000E+07    0.6790839497E+00    0.3877002639E-03    0.1195246408E+00    0.2846279116E-04    0.5654593968E+00
    0.1700000000E+07    0.6791742739E+00    0.3644309037E-03    0.1194164357E+00    0.2646042942E-04    0.5655929868E+00
    0.1900000000E+07    0.6792465761E+00    0.3449829672E-03    0.1193199853E+00    0.2481562471E-04    0.5657105537E+00
    0.2100000000E+07    0.6793058937E+00    0.3284082875E-03    0.1192329778E+00    0.2343393910E-04    0.5658154787E+00
    0.2300000000E+07    0.6793555309E+00    0.3140592176E-03    0.1191537238E+00    0.2225241042E-04    0.5659101810E+00
    0.2500000000E+07    0.6793977480E+00    0.3014761255E-03    0.1190809507E+00    0.2122726487E-04    0.5659964497E+00
    0.2700000000E+07    0.6794341452E+00    0.2903224747E-03    0.1190136762E+00    0.2032701514E-04    0.5660756448E+00
    0.2900000000E+07    0.6794658883E+00    0.2803453812E-03    0.1189511258E+00    0.1952836375E-04    0.5661488236E+00
    0.3100000000E+07    0.6794938477E+00    0.2713506094E-03    0.1188926782E+00    0.1881365845E-04    0.5662168244E+00
    0.3300000000E+07    0.6795186866E+00    0.2631861431E-03    0.1188378273E+00    0.1816925028E-04    0.5662803224E+00
    0.3500000000E+07    0.6795409200E+00    0.2557310589E-03    0.1187861553E+00    0.1758439919E-04    0.5663398697E+00
    0.3700000000E+07    0.6795609537E+00    0.2488877886E-03    0.1187373133E+00    0.1705052393E-04    0.5663959232E+00
    0.3900000000E+07    0.6795791123E+00    0.2425766141E-03    0.1186910069E+00    0.1656067534E-04    0.5664488653E+00
    0.4100000000E+07    0.6795956584E+00    0.2367316716E-03    0.1186469855E+00    0.1610915837E-04    0.5664990192E+00
    0.4300000000E+07    0.6796108073E+00    0.2312979979E-03    0.1186050339E+00    0.1569125581E-04    0.5665466605E+00
    0.4500000000E+07    0.6796247367E+00    0.2262293122E-03    0.1185649659E+00    0.1530302286E-04    0.5665920262E+00
    0.4700000000E+07    0.6796375950E+00    0.2214863266E-03    0.1185266195E+00    0.1494113199E-04    0.5666353212E+00
    0.4900000000E+07    0.6796495071E+00    0.2170354419E-03    0.1184898527E+00    0.1460275428E-04    0.5666767243E+00
    0.1000000000E+07    0.6787104132E+00    0.4746338773E-03    0.1198723767E+00    0.3629323325E-04    0.5650159617E+00
    0.3000000000E+07    0.6794802954E+00    0.2757355451E-03    0.1189214232E+00    0.1916144984E-04    0.5661834258E+00
    0.5000000000E+07    0.6796551420E+00    0.2149103380E-03    0.1184720219E+00    0.1444161209E-04    0.5666967660E+00
    0.7000000000E+07    0.6797370304E+00    0.1824496152E-03    0.1181745045E+00    0.1201388239E-04    0.5670278493E+00
    0.9000000000E+07    0.6797858549E+00    0.1614654752E-03    0.1179517188E+00    0.1047855736E-04    0.5672721354E+00
    0.1100000000E+08    0.6798188300E+00    0.1464640463E-03    0.1177735577E+00    0.9397866059E-05    0.5674655827E+00
    0.1300000000E+08    0.6798428713E+00    0.1350477134E-03    0.1176250959E+00    0.8585226519E-05    0.5676256389E+00
    0.1500000000E+08    0.6798613308E+00    0.1259803225E-03    0.1174978352E+00    0.7946037272E-05    0.5677620907E+00
    0.1700000000E+08    0.6798760443E+00    0.1185510179E-03    0.1173864730E+00    0.7426592104E-05    0.5678809763E+00
    0.1900000000E+08    0.6798881080E+00    0.1123180427E-03    0.1172874767E+00    0.6993860883E-05    0.5679862826E+00
    0.2100000000E+08    0.6798982199E+00    0.1069904293E-03    0.1171983746E+00    0.6626276650E-05    0.5680807794E+00
    0.2300000000E+08    0.6799068474E+00    0.1023676447E-03    0.1171173689E+00    0.6309086444E-05    0.5681664688E+00
    0.2500000000E+08    0.6799143163E+00    0.9830636860E-04    0.1170431115E+00    0.6031815243E-05    0.5682448448E+00
    0.2700000000E+08    0.6799208612E+00    0.9470107067E-04    0.1169745650E+00    0.5786794827E-05    0.5683170517E+00
