  Pressure (Pa) 22mC5-400 (mol/kg) 2mC6-400 (mol/kg) 3mC6-400 (mol/kg) 33mC5-400 (mol/kg) C7-400 (mol/kg)
    0.1000000000E+01    0.5313296735E-03    0.1573055883E-02    0.1559371574E-02    0.3843147854E-03    0.1349639319E-01
    0.3000000000E+01    0.1585390861E-02    0.4527621463E-02    0.4460812317E-02    0.1106639812E-02    0.3861728093E-01
    0.5000000000E+01    0.2628185909E-02    0.7255738345E-02    0.7105051690E-02    0.1774257462E-02    0.6152215161E-01
    0.7000000000E+01    0.3659946578E-02    0.9786770544E-02    0.9525240396E-02    0.2394296938E-02    0.8249618517E-01
    0.9000000000E+01    0.4680898078E-02    0.1214510686E-01    0.1174904932E-01    0.2972675309E-02    0.1017774576E+00
    0.1100000000E+02    0.5691259300E-02    0.1435116777E-01    0.1379975782E-01    0.3514343300E-02    0.1195662913E+00
    0.1300000000E+02    0.6691243039E-02    0.1642217851E-01    0.1569709251E-01    0.4023473940E-02    0.1360324629E+00
    0.1500000000E+02    0.7681056204E-02    0.1837276909E-01    0.1745788085E-01    0.4503608930E-02    0.1513208190E+00
    0.1700000000E+02    0.8660900029E-02    0.2021544462E-01    0.1909656547E-01    0.4957773340E-02    0.1655556975E+00
    0.1900000000E+02    0.9630970263E-02    0.2196095752E-01    0.2062561280E-01    0.5388566329E-02    0.1788444388E+00
    0.2100000000E+02    0.1059145736E-01    0.2361860444E-01    0.2205584031E-01    0.5798233502E-02    0.1912801996E+00
    0.2300000000E+02    0.1154254666E-01    0.2519646515E-01    0.2339668092E-01    0.6188725092E-02    0.2029442253E+00
    0.2500000000E+02    0.1248441855E-01    0.2670159604E-01    0.2465639795E-01    0.6561743078E-02    0.2139076984E+00
    0.2700000000E+02    0.1341724866E-01    0.2814018803E-01    0.2584226131E-01    0.6918779612E-02    0.2242332532E+00
    0.2900000000E+02    0.1434120800E-01    0.2951769627E-01    0.2696069270E-01    0.7261148566E-02    0.2339762247E+00
    0.3100000000E+02    0.1525646309E-01    0.3083894720E-01    0.2801738604E-01    0.7590011575E-02    0.2431856839E+00
    0.3300000000E+02    0.1616317616E-01    0.3210822761E-01    0.2901740799E-01    0.7906399671E-02    0.2519053026E+00
    0.3500000000E+02    0.1706150525E-01    0.3332935895E-01    0.2996528215E-01    0.8211231342E-02    0.2601740776E+00
    0.3700000000E+02    0.1795160436E-01    0.3450575975E-01    0.3086506014E-01    0.8505327691E-02    0.2680269421E+00
    0.3900000000E+02    0.1883362358E-01    0.3564049828E-01    0.3172038171E-01    0.8789425211E-02    0.2754952829E+00
    0.4100000000E+02    0.1970770921E-01    0.3673633718E-01    0.3253452595E-01    0.9064186617E-02    0.2826073808E+00
    0.4300000000E+02    0.2057400390E-01    0.3779577142E-01    0.3331045495E-01    0.9330210047E-02    0.2893887865E+00
    0.4500000000E+02    0.2143264671E-01    0.3882106078E-01    0.3405085137E-01    0.9588036927E-02    0.2958626439E+00
    0.4700000000E+02    0.2228377331E-01    0.3981425762E-01    0.3475815066E-01    0.9838158721E-02    0.3020499674E+00
    0.4900000000E+02    0.2312751600E-01    0.4077723096E-01    0.3543456905E-01    0.1008102273E-01    0.3079698823E+00
    0.1000000000E+02    0.5187389034E-02    0.1326602803E-01    0.1279473338E-01    0.3247820952E-02    0.1108471748E+00
    0.3000000000E+02    0.1479991333E-01    0.3018507426E-01    0.2749642632E-01    0.7427201041E-02    0.2386447964E+00
    0.5000000000E+02    0.2354665885E-01    0.4124792287E-01    0.3576183655E-01    0.1019986201E-01    0.3108350736E+00
    0.7000000000E+02    0.3157170711E-01    0.4942012716E-01    0.4109314439E-01    0.1227808226E-01    0.3576156632E+00
    0.9000000000E+02    0.3898772465E-01    0.5584925042E-01    0.4483452013E-01    0.1393593244E-01    0.3905950818E+00
    0.1100000000E+03    0.4588417575E-01    0.6109408667E-01    0.4761443649E-01    0.1530648181E-01    0.4152093753E+00
    0.1300000000E+03    0.5233307441E-01    0.6547167723E-01    0.4976693236E-01    0.1646521240E-01    0.4343522977E+00
    0.1500000000E+03    0.5839309696E-01    0.6918210801E-01    0.5148638684E-01    0.1745985038E-01    0.4497103176E+00
    0.1700000000E+03    0.6411257708E-01    0.7236160265E-01    0.5289382350E-01    0.1832299550E-01    0.4623350578E+00
    0.1900000000E+03    0.6953172330E-01    0.7510814942E-01    0.5406865453E-01    0.1907819351E-01    0.4729176102E+00
    0.2100000000E+03    0.7468428546E-01    0.7749515863E-01    0.5506522119E-01    0.1974316364E-01    0.4819315993E+00
    0.2300000000E+03    0.7959882419E-01    0.7957934366E-01    0.5592200767E-01    0.2033165851E-01    0.4897129482E+00
    0.2500000000E+03    0.8429968977E-01    0.8140557204E-01    0.5666705959E-01    0.2085460862E-01    0.4965068295E+00
    0.2700000000E+03    0.8880778568E-01    0.8301001342E-01    0.5732131645E-01    0.2132086559E-01    0.5024965675E+00
    0.2900000000E+03    0.9314117025E-01    0.8442227263E-01    0.5790074039E-01    0.2173770657E-01    0.5078221164E+00
    0.3100000000E+03    0.9731553536E-01    0.8566688755E-01    0.5841772037E-01    0.2211118913E-01    0.5125922617E+00
    0.3300000000E+03    0.1013445906E+00    0.8676441259E-01    0.5888202491E-01    0.2244640865E-01    0.5168929044E+00
    0.3500000000E+03    0.1052403742E+00    0.8773222178E-01    0.5930146420E-01    0.2274768959E-01    0.5207928245E+00
    0.3700000000E+03    0.1090135065E+00    0.8858511674E-01    0.5968236049E-01    0.2301873071E-01    0.5243477793E+00
    0.3900000000E+03    0.1126733984E+00    0.8933579494E-01    0.6002988854E-01    0.2326271726E-01    0.5276034713E+00
    0.4100000000E+03    0.1162284232E+00    0.8999521592E-01    0.6034832631E-01    0.2348240896E-01    0.5305977367E+00
    0.4300000000E+03    0.1196860596E+00    0.9057289146E-01    0.6064124241E-01    0.2368020991E-01    0.5333621830E+00
    0.4500000000E+03    0.1230530120E+00    0.9107711810E-01    0.6091163830E-01    0.2385822483E-01    0.5359234313E+00
    0.4700000000E+03    0.1263353109E+00    0.9151516536E-01    0.6116205733E-01    0.2401830460E-01    0.5383040716E+00
    0.4900000000E+03    0.1295383983E+00    0.9189342946E-01    0.6139466960E-01    0.2416208367E-01    0.5405234053E+00
    0.1000000000E+03    0.4249604082E-01    0.5859621517E-01    0.4631934473E-01    0.1465152920E-01    0.4037286573E+00
    0.3000000000E+03    0.9524733089E-01    0.8506416815E-01    0.5816637281E-01    0.2192952915E-01    0.5102707867E+00
    0.5000000000E+03    0.1311117954E+00    0.9206193449E-01    0.6150489093E-01    0.2422831972E-01    0.5415778605E+00
    0.7000000000E+03    0.1594018226E+00    0.9336739123E-01    0.6311322706E-01    0.2497462254E-01    0.5572233597E+00
    0.9000000000E+03    0.1833436055E+00    0.9240625070E-01    0.6406589395E-01    0.2505753986E-01    0.5668129731E+00
    0.1100000000E+04    0.2044072095E+00    0.9042584921E-01    0.6469726576E-01    0.2481375136E-01    0.5733790448E+00
    0.1300000000E+04    0.2233814665E+00    0.8797043827E-01    0.6514650917E-01    0.2439654055E-01    0.5782003838E+00
    0.1500000000E+04    0.2407390101E+00    0.8530535294E-01    0.6548224594E-01    0.2388436071E-01    0.5819154768E+00
    0.1700000000E+04    0.2567866885E+00    0.8256965088E-01    0.6574234674E-01    0.2332075752E-01    0.5848809406E+00
    0.1900000000E+04    0.2717363690E+00    0.7983963912E-01    0.6594946938E-01    0.2273135326E-01    0.5873126348E+00
    0.2100000000E+04    0.2857416958E+00    0.7715821869E-01    0.6611802169E-01    0.2213187497E-01    0.5893493914E+00
    0.2300000000E+04    0.2989186568E+00    0.7454955316E-01    0.6625761307E-01    0.2153226730E-01    0.5910848443E+00
    0.2500000000E+04    0.3113577976E+00    0.7202686935E-01    0.6637490350E-01    0.2093893848E-01    0.5925846052E+00
    0.2700000000E+04    0.3231318316E+00    0.6959681727E-01    0.6647465700E-01    0.2035605233E-01    0.5938961201E+00
    0.2900000000E+04    0.3343005744E+00    0.6726200776E-01    0.6656037279E-01    0.1978630444E-01    0.5950546148E+00
    0.3100000000E+04    0.3449142533E+00    0.6502253995E-01    0.6663467959E-01    0.1923140581E-01    0.5960868362E+00
    0.3300000000E+04    0.3550157911E+00    0.6287694625E-01    0.6669959082E-01    0.1869239398E-01    0.5970134883E+00
    0.3500000000E+04    0.3646424230E+00    0.6082279052E-01    0.6675667484E-01    0.1816983848E-01    0.5978508692E+00
    0.3700000000E+04    0.3738268655E+00    0.5885705360E-01    0.6680717152E-01    0.1766397994E-01    0.5986119994E+00
    0.3900000000E+04    0.3825981802E+00    0.5697638539E-01    0.6685207402E-01    0.1717482610E-01    0.5993074177E+00
    0.4100000000E+04    0.3909824221E+00    0.5517727128E-01    0.6689218719E-01    0.1670221939E-01    0.5999457537E+00
    0.4300000000E+04    0.3990031361E+00    0.5345614260E-01    0.6692817015E-01    0.1624588508E-01    0.6005341482E+00
    0.4500000000E+04    0.4066817413E+00    0.5180944992E-01    0.6696056781E-01    0.1580546626E-01    0.6010785658E+00
    0.4700000000E+04    0.4140378342E+00    0.5023371139E-01    0.6698983454E-01    0.1538054934E-01    0.6015840311E+00
    0.4900000000E+04    0.4210894315E+00    0.4872554400E-01    0.6701635219E-01    0.1497068292E-01    0.6020548103E+00
    0.1000000000E+04    0.1941757934E+00    0.9150004163E-01    0.6441061794E-01    0.2496440758E-01    0.5703720831E+00
    0.3000000000E+04    0.3396739645E+00    0.6613041944E-01    0.6659881437E-01    0.1950692114E-01    0.5955850963E+00
    0.5000000000E+04    0.4245062913E+00    0.4799577433E-01    0.6702868308E-01    0.1477124578E-01    0.6022783535E+00
    0.7000000000E+04    0.4803127743E+00    0.3622811470E-01    0.6718834872E-01    0.1145425176E-01    0.6055879463E+00
    0.9000000000E+04    0.5188999690E+00    0.2834367780E-01    0.6725913801E-01    0.9120450223E-02    0.6076128336E+00
    0.1100000000E+05    0.5466143214E+00    0.2286254821E-01    0.6729123184E-01    0.7439514374E-02    0.6089989586E+00
    0.1300000000E+05    0.5671728268E+00    0.1891987164E-01    0.6730375973E-01    0.6196984530E-02    0.6100172056E+00
    0.1500000000E+05    0.5828534792E+00    0.1599693021E-01    0.6730545222E-01    0.5255617759E-02    0.6108026360E+00
    0.1700000000E+05    0.5951042304E+00    0.1377220181E-01    0.6730078606E-01    0.4526354656E-02    0.6114306157E+00
    0.1900000000E+05    0.6048759197E+00    0.1203973534E-01    0.6729225144E-01    0.3950117403E-02    0.6119467041E+00
    0.2100000000E+05    0.6128116359E+00    0.1066348622E-01    0.6728131862E-01    0.3486772678E-02    0.6123801534E+00
    0.2300000000E+05    0.6193580594E+00    0.9551028489E-02    0.6726889557E-01    0.3108415335E-02    0.6127506542E+00
    0.2500000000E+05    0.6248329660E+00    0.8637957760E-02    0.6725556260E-01    0.2795214696E-02    0.6130719765E+00
    0.2700000000E+05    0.6294673413E+00    0.7878361047E-02    0.6724170050E-01    0.2532792113E-02    0.6133540579E+00
    0.2900000000E+05    0.6334323606E+00    0.7238830300E-02    0.6722756412E-01    0.2310528905E-02    0.6136042630E+00
    0.3100000000E+05    0.6368571011E+00    0.6694604275E-02    0.6721332645E-01    0.2120450963E-02    0.6138281738E+00
    0.3300000000E+05    0.6398404354E+00    0.6227022757E-02    0.6719910592E-01    0.1956478356E-02    0.6140301045E+00
    0.3500000000E+05    0.6424591822E+00    0.5821810081E-02    0.6718498391E-01    0.1813910717E-02    0.6142134467E+00
    0.3700000000E+05    0.6447737999E+00    0.5467894688E-02    0.6717101620E-01    0.1689067996E-02    0.6143809064E+00
    0.3900000000E+05    0.6468324326E+00    0.5156582484E-02    0.6715724057E-01    0.1579035481E-02    0.6145346716E+00
    0.4100000000E+05    0.6486738314E+00    0.4880968267E-02    0.6714368211E-01    0.1481480039E-02    0.6146765323E+00
    0.4300000000E+05    0.6503294951E+00    0.4635510201E-02    0.6713035680E-01    0.1394515799E-02    0.6148079687E+00
    0.4500000000E+05    0.6518252590E+00    0.4415717831E-02    0.6711727408E-01    0.1316604668E-02    0.6149302163E+00
    0.4700000000E+05    0.6531824908E+00    0.4217920339E-02    0.6710443867E-01    0.1246481758E-02    0.6150443152E+00
    0.4900000000E+05    0.6544189990E+00    0.4039092337E-02    0.6709185188E-01    0.1183098836E-02    0.6151511485E+00
    0.1000000000E+05    0.5338402590E+00    0.2536727383E-01    0.6727846037E-01    0.8214015879E-02    0.6083641518E+00
    0.3000000000E+05    0.6352054883E+00    0.6956090155E-02    0.6722044951E-01    0.2211884220E-02    0.6137192105E+00
    0.5000000000E+05    0.6549967491E+00    0.3955989687E-02    0.6708565144E-01    0.1153655666E-02    0.6152020807E+00
    0.7000000000E+05    0.6628288992E+00    0.2857941624E-02    0.6697374816E-01    0.7671165643E-03    0.6159757630E+00
    0.9000000000E+05    0.6669425585E+00    0.2300476857E-02    0.6688089700E-01    0.5756812672E-03    0.6164748823E+00
    0.1100000000E+06    0.6694583424E+00    0.1963182455E-02    0.6680200160E-01    0.4636138190E-03    0.6168338050E+00
    0.1300000000E+06    0.6711500575E+00    0.1735796357E-02    0.6673352087E-01    0.3906958304E-03    0.6171095472E+00
    0.1500000000E+06    0.6723636830E+00    0.1570973352E-02    0.6667305275E-01    0.3396743539E-03    0.6173310138E+00
    0.1700000000E+06    0.6732761265E+00    0.1445179180E-02    0.6661892320E-01    0.3020345420E-03    0.6175146546E+00
    0.1900000000E+06    0.6739869220E+00    0.1345428907E-02    0.6656992735E-01    0.2731298077E-03    0.6176706277E+00
    0.2100000000E+06    0.6745562348E+00    0.1263975482E-02    0.6652517190E-01    0.2502249287E-03    0.6178055995E+00
    0.2300000000E+06    0.6750225215E+00    0.1195907396E-02    0.6648397733E-01    0.2316115722E-03    0.6179241564E+00
    0.2500000000E+06    0.6754114875E+00    0.1137956048E-02    0.6644581514E-01    0.2161707528E-03    0.6180295754E+00
    0.2700000000E+06    0.6757409558E+00    0.1087858351E-02    0.6641026633E-01    0.2031402931E-03    0.6181242708E+00
    0.2900000000E+06    0.6760236679E+00    0.1043995025E-02    0.6637699324E-01    0.1919837988E-03    0.6182100677E+00
    0.3100000000E+06    0.6762689713E+00    0.1005174881E-02    0.6634571978E-01    0.1823131598E-03    0.6182883765E+00
    0.3300000000E+06    0.6764838778E+00    0.9705006682E-03    0.6631621732E-01    0.1738407887E-03    0.6183603068E+00
    0.3500000000E+06    0.6766737490E+00    0.9392826060E-03    0.6628829443E-01    0.1663491336E-03    0.6184267465E+00
    0.3700000000E+06    0.6768427546E+00    0.9109809001E-03    0.6626178921E-01    0.1596706155E-03    0.6184884159E+00
    0.3900000000E+06    0.6769941861E+00    0.8851664857E-03    0.6623656351E-01    0.1536740685E-03    0.6185459065E+00
    0.4100000000E+06    0.6771306760E+00    0.8614935732E-03    0.6621249849E-01    0.1482553581E-03    0.6185997096E+00
    0.4300000000E+06    0.6772543552E+00    0.8396800391E-03    0.6618949120E-01    0.1433307517E-03    0.6186502376E+00
    0.4500000000E+06    0.6773669668E+00    0.8194931576E-03    0.6616745184E-01    0.1388321467E-03    0.6186978391E+00
    0.4700000000E+06    0.6774699506E+00    0.8007390388E-03    0.6614630162E-01    0.1347035765E-03    0.6187428118E+00
    0.4900000000E+06    0.6775645063E+00    0.7832546944E-03    0.6612597102E-01    0.1308986133E-03    0.6187854115E+00
    0.1000000000E+06    0.6683365580E+00    0.2113480512E-02    0.6683995882E-01    0.5130703695E-03    0.6166673425E+00
    0.3000000000E+06    0.6761505121E+00    0.1024016333E-02    0.6636112182E-01    0.1869826569E-03    0.6182500828E+00
    0.5000000000E+06    0.6776089450E+00    0.7749446852E-03    0.6611609355E-01    0.1291050921E-03    0.6188058918E+00
    0.7000000000E+06    0.6782322072E+00    0.6507435750E-03    0.6594970827E-01    0.1034363880E-03    0.6191317783E+00
    0.9000000000E+06    0.6785815093E+00    0.5727530865E-03    0.6582340685E-01    0.8838243251E-04    0.6193586283E+00
    0.1100000000E+07    0.6788065330E+00    0.5178666657E-03    0.6572151297E-01    0.7825710764E-04    0.6195311003E+00
    0.1300000000E+07    0.6789644179E+00    0.4764986570E-03    0.6563607314E-01    0.7086999260E-04    0.6196694913E+00
    0.1500000000E+07    0.6790817894E+00    0.4438537988E-03    0.6556248837E-01    0.6518298878E-04    0.6197846476E+00
    0.1700000000E+07    0.6791727645E+00    0.4172287715E-03    0.6549785658E-01    0.6063461822E-04    0.6198830115E+00
    0.1900000000E+07    0.6792455423E+00    0.3949669028E-03    0.6544022772E-01    0.5689192237E-04    0.6199687057E+00
    0.2100000000E+07    0.6793052200E+00    0.3759881741E-03    0.6538822771E-01    0.5374358372E-04    0.6200445208E+00
    0.2300000000E+07    0.6793551376E+00    0.3595540678E-03    0.6534085162E-01    0.5104829786E-04    0.6201124289E+00
    0.2500000000E+07    0.6793975781E+00    0.3451400123E-03    0.6529734208E-01    0.4870758141E-04    0.6201738731E+00
    0.2700000000E+07    0.6794341570E+00    0.3323616601E-03    0.6525711407E-01    0.4665044544E-04    0.6202299398E+00
    0.2900000000E+07    0.6794660504E+00    0.3209300410E-03    0.6521970622E-01    0.4482427143E-04    0.6202814664E+00
    0.3100000000E+07    0.6794941358E+00    0.3106231006E-03    0.6518474823E-01    0.4318912948E-04    0.6203291113E+00
    0.3300000000E+07    0.6795190820E+00    0.3012669849E-03    0.6515193836E-01    0.4171410383E-04    0.6203734013E+00
    0.3500000000E+07    0.6795414075E+00    0.2927233551E-03    0.6512102744E-01    0.4037483897E-04    0.6204147643E+00
    0.3700000000E+07    0.6795615212E+00    0.2848805611E-03    0.6509180735E-01    0.3915185475E-04    0.6204535522E+00
    0.3900000000E+07    0.6795797499E+00    0.2776473582E-03    0.6506410246E-01    0.3802936139E-04    0.6204900578E+00
    0.4100000000E+07    0.6795963579E+00    0.2709483440E-03    0.6503776316E-01    0.3699440803E-04    0.6205245274E+00
    0.4300000000E+07    0.6796115619E+00    0.2647205847E-03    0.6501266101E-01    0.3603625953E-04    0.6205571699E+00
    0.4500000000E+07    0.6796255406E+00    0.2589110797E-03    0.6498868489E-01    0.3514593250E-04    0.6205881640E+00
    0.4700000000E+07    0.6796384433E+00    0.2534748313E-03    0.6496573801E-01    0.3431584469E-04    0.6206176638E+00
    0.4900000000E+07    0.6796503957E+00    0.2483733524E-03    0.6494373557E-01    0.3353954643E-04    0.6206458030E+00
    0.1000000000E+07    0.6787049096E+00    0.5431859584E-03    0.6577001491E-01    0.8288110783E-04    0.6194500758E+00
    0.3000000000E+07    0.6794805232E+00    0.3156478099E-03    0.6520194125E-01    0.4398493159E-04    0.6203057384E+00
    0.5000000000E+07    0.6796560494E+00    0.2459376129E-03    0.6493306481E-01    0.3316981031E-04    0.6206593994E+00
    0.7000000000E+07    0.6797381913E+00    0.2087326586E-03    0.6475499598E-01    0.2759613414E-04    0.6208817916E+00
    0.9000000000E+07    0.6797871546E+00    0.1846839334E-03    0.6462163860E-01    0.2406861980E-04    0.6210434146E+00
    0.1100000000E+08    0.6798202215E+00    0.1674937725E-03    0.6451498899E-01    0.2158476525E-04    0.6211700731E+00
    0.1300000000E+08    0.6798443308E+00    0.1544133879E-03    0.6442611776E-01    0.1971665165E-04    0.6212740571E+00
    0.1500000000E+08    0.6798628442E+00    0.1440255324E-03    0.6434993930E-01    0.1824712575E-04    0.6213621671E+00
    0.1700000000E+08    0.6798776025E+00    0.1355152286E-03    0.6428327971E-01    0.1705283940E-04    0.6214385553E+00
    0.1900000000E+08    0.6798897046E+00    0.1283760349E-03    0.6422402437E-01    0.1605790341E-04    0.6215059397E+00
    0.2100000000E+08    0.6798998503E+00    0.1222743950E-03    0.6417069335E-01    0.1521275308E-04    0.6215661954E+00
    0.2300000000E+08    0.6799085081E+00    0.1169804370E-03    0.6412221038E-01    0.1448347708E-04    0.6216206696E+00
    0.2500000000E+08    0.6799160045E+00    0.1123298813E-03    0.6407776813E-01    0.1384599404E-04    0.6216703623E+00
    0.2700000000E+08    0.6799225745E+00    0.1082017714E-03    0.6403674554E-01    0.1328267340E-04    0.6217160359E+00
