  Pressure (Pa) 22mC5-400 (mol/kg) 2mC6-400 (mol/kg) 3mC6-400 (mol/kg) 33mC5-400 (mol/kg) C7-400 (mol/kg)
    0.1000000000E+01    0.5310548448E-03    0.2350141959E-02    0.2586963586E-02    0.1275975818E-03    0.1511373268E-01
    0.3000000000E+01    0.1582956027E-02    0.6715090079E-02    0.7337574009E-02    0.3647800153E-03    0.4287968879E-01
    0.5000000000E+01    0.2621527203E-02    0.1069200690E-01    0.1159766589E-01    0.5811345772E-03    0.6779273081E-01
    0.7000000000E+01    0.3647095907E-02    0.1433909907E-01    0.1544042704E-01    0.7798008059E-03    0.9027786638E-01
    0.9000000000E+01    0.4659978607E-02    0.1770323036E-01    0.1892512772E-01    0.9633042827E-03    0.1106793454E+00
    0.1100000000E+02    0.5660481174E-02    0.2082254728E-01    0.2210028187E-01    0.1133699031E-02    0.1292789943E+00
    0.1300000000E+02    0.6648899330E-02    0.2372841104E-01    0.2500598389E-01    0.1292672249E-02    0.1463097712E+00
    0.1500000000E+02    0.7625519068E-02    0.2644683988E-01    0.2767566140E-01    0.1441622471E-02    0.1619659335E+00
    0.1700000000E+02    0.8590617057E-02    0.2899960022E-01    0.3013740753E-01    0.1581718665E-02    0.1764107675E+00
    0.1900000000E+02    0.9544461024E-02    0.3140504211E-01    0.3241500579E-01    0.1713945465E-02    0.1897825355E+00
    0.2100000000E+02    0.1048731012E-01    0.3367874600E-01    0.3452872731E-01    0.1839138173E-02    0.2021991023E+00
    0.2300000000E+02    0.1141941525E-01    0.3583402863E-01    0.3649595730E-01    0.1958010117E-02    0.2137615707E+00
    0.2500000000E+02    0.1234101942E-01    0.3788234230E-01    0.3833169199E-01    0.2071174238E-02    0.2245571659E+00
    0.2700000000E+02    0.1325235807E-01    0.3983359289E-01    0.4004893618E-01    0.2179160270E-02    0.2346615437E+00
    0.2900000000E+02    0.1415365930E-01    0.4169639512E-01    0.4165902390E-01    0.2282428529E-02    0.2441406519E+00
    0.3100000000E+02    0.1504514425E-01    0.4347827901E-01    0.4317187905E-01    0.2381381053E-02    0.2530522437E+00
    0.3300000000E+02    0.1592702729E-01    0.4518585806E-01    0.4459622860E-01    0.2476370672E-02    0.2614471154E+00
    0.3500000000E+02    0.1679951632E-01    0.4682496710E-01    0.4593977825E-01    0.2567708444E-02    0.2693701271E+00
    0.3700000000E+02    0.1766281301E-01    0.4840077603E-01    0.4720935798E-01    0.2655669783E-02    0.2768610477E+00
    0.3900000000E+02    0.1851711303E-01    0.4991788422E-01    0.4841104338E-01    0.2740499537E-02    0.2839552600E+00
    0.4100000000E+02    0.1936260630E-01    0.5138039918E-01    0.4955025733E-01    0.2822416229E-02    0.2906843509E+00
    0.4300000000E+02    0.2019947714E-01    0.5279200265E-01    0.5063185562E-01    0.2901615604E-02    0.2970766093E+00
    0.4500000000E+02    0.2102790456E-01    0.5415600618E-01    0.5166019945E-01    0.2978273625E-02    0.3031574473E+00
    0.4700000000E+02    0.2184806239E-01    0.5547539827E-01    0.5263921703E-01    0.3052548996E-02    0.3089497580E+00
    0.4900000000E+02    0.2266011949E-01    0.5675288441E-01    0.5357245624E-01    0.3124585320E-02    0.3144742216E+00
    0.1000000000E+02    0.5161758692E-02    0.1929139041E-01    0.2054871781E-01    0.1050027225E-02    0.1201888264E+00
    0.3000000000E+02    0.1460061526E-01    0.4259701878E-01    0.4242703428E-01    0.2332421147E-02    0.2486640624E+00
    0.5000000000E+02    0.2306316173E-01    0.5737668935E-01    0.5402292489E-01    0.3159805040E-02    0.3171419335E+00
    0.7000000000E+02    0.3073631213E-01    0.6814511933E-01    0.6126780289E-01    0.3772750320E-02    0.3601601305E+00
    0.9000000000E+02    0.3776041422E-01    0.7653305549E-01    0.6625304574E-01    0.4257674960E-02    0.3899195433E+00
    0.1100000000E+03    0.4424307293E-01    0.8331455597E-01    0.6990872268E-01    0.4655536886E-02    0.4118561552E+00
    0.1300000000E+03    0.5026829876E-01    0.8892573232E-01    0.7271306410E-01    0.4989452799E-02    0.4287701975E+00
    0.1500000000E+03    0.5590273241E-01    0.9364171063E-01    0.7493789258E-01    0.5274062360E-02    0.4422561893E+00
    0.1700000000E+03    0.6119998446E-01    0.9764993183E-01    0.7674951763E-01    0.5519388845E-02    0.4532914654E+00
    0.1900000000E+03    0.6620372614E-01    0.1010851667E+00    0.7825560810E-01    0.5732677919E-02    0.4625098856E+00
    0.2100000000E+03    0.7094993321E-01    0.1040481674E+00    0.7952906096E-01    0.5919375963E-02    0.4703413663E+00
    0.2300000000E+03    0.7546854288E-01    0.1066164830E+00    0.8062105933E-01    0.6083697547E-02    0.4770882974E+00
    0.2500000000E+03    0.7978469641E-01    0.1088511615E+00    0.8156864027E-01    0.6228977694E-02    0.4829698770E+00
    0.2700000000E+03    0.8391968382E-01    0.1108011300E+00    0.8239929382E-01    0.6357902594E-02    0.4881490836E+00
    0.2900000000E+03    0.8789167152E-01    0.1125061787E+00    0.8313387135E-01    0.6472667295E-02    0.4927497505E+00
    0.3100000000E+03    0.9171626905E-01    0.1139990652E+00    0.8378848790E-01    0.6575087260E-02    0.4968677462E+00
    0.3300000000E+03    0.9540697532E-01    0.1153070398E+00    0.8437580341E-01    0.6666679495E-02    0.5005785128E+00
    0.3500000000E+03    0.9897553338E-01    0.1164529766E+00    0.8490590775E-01    0.6748722943E-02    0.5039422778E+00
    0.3700000000E+03    0.1024322150E+00    0.1174562292E+00    0.8538694580E-01    0.6822304309E-02    0.5070077403E+00
    0.3900000000E+03    0.1057860511E+00    0.1183332879E+00    0.8582556784E-01    0.6888353395E-02    0.5098147287E+00
    0.4100000000E+03    0.1090450189E+00    0.1190982928E+00    0.8622725978E-01    0.6947670746E-02    0.5123961520E+00
    0.4300000000E+03    0.1122161969E+00    0.1197634377E+00    0.8659658907E-01    0.7000949528E-02    0.5147794542E+00
    0.4500000000E+03    0.1153058914E+00    0.1203392930E+00    0.8693739065E-01    0.7048793040E-02    0.5169877151E+00
    0.4700000000E+03    0.1183197432E+00    0.1208350659E+00    0.8725290917E-01    0.7091728863E-02    0.5190404934E+00
    0.4900000000E+03    0.1212628159E+00    0.1212588113E+00    0.8754590922E-01    0.7130220387E-02    0.5209544804E+00
    0.1000000000E+03    0.4106370448E-01    0.8009228220E-01    0.6821055259E-01    0.4465776812E-02    0.4016519298E+00
    0.3000000000E+03    0.8982150545E-01    0.1132773249E+00    0.8347031442E-01    0.6525319353E-02    0.4948639584E+00
    0.5000000000E+03    0.1227092533E+00    0.1214459191E+00    0.8768471910E-01    0.7147929158E-02    0.5218639876E+00
    0.7000000000E+03    0.1488227165E+00    0.1227387501E+00    0.8970892086E-01    0.7346313364E-02    0.5353768023E+00
    0.9000000000E+03    0.1711129068E+00    0.1213874371E+00    0.9090765703E-01    0.7368044642E-02    0.5436895208E+00
    0.1100000000E+04    0.1908868870E+00    0.1188711395E+00    0.9170258686E-01    0.7303548685E-02    0.5494046054E+00
    0.1300000000E+04    0.2088359569E+00    0.1158186628E+00    0.9226870727E-01    0.7193150960E-02    0.5536182713E+00
    0.1500000000E+04    0.2253708787E+00    0.1125313700E+00    0.9269220279E-01    0.7057262112E-02    0.5568779881E+00
    0.1700000000E+04    0.2407568721E+00    0.1091654886E+00    0.9302061535E-01    0.6907161667E-02    0.5594898197E+00
    0.1900000000E+04    0.2551762997E+00    0.1058062420E+00    0.9328238809E-01    0.6749493873E-02    0.5616392581E+00
    0.2100000000E+04    0.2687609407E+00    0.1025014905E+00    0.9349561134E-01    0.6588362178E-02    0.5634457733E+00
    0.2300000000E+04    0.2816099598E+00    0.9927831408E-01    0.9367235473E-01    0.6426390932E-02    0.5649900616E+00
    0.2500000000E+04    0.2938005466E+00    0.9615173239E-01    0.9382098698E-01    0.6265300713E-02    0.5663287565E+00
    0.2700000000E+04    0.3053945348E+00    0.9312953350E-01    0.9394749731E-01    0.6106237475E-02    0.5675028754E+00
    0.2900000000E+04    0.3164426898E+00    0.9021506388E-01    0.9405628712E-01    0.5949969547E-02    0.5685429189E+00
    0.3100000000E+04    0.3269875817E+00    0.8740889761E-01    0.9415066467E-01    0.5797010155E-02    0.5694720818E+00
    0.3300000000E+04    0.3370655675E+00    0.8470986458E-01    0.9423316524E-01    0.5647696160E-02    0.5703083465E+00
    0.3500000000E+04    0.3467081912E+00    0.8211569948E-01    0.9430576474E-01    0.5502240144E-02    0.5710658905E+00
    0.3700000000E+04    0.3559431959E+00    0.7962345986E-01    0.9437002615E-01    0.5360765732E-02    0.5717560571E+00
    0.3900000000E+04    0.3647952685E+00    0.7722979970E-01    0.9442720207E-01    0.5223332100E-02    0.5723880416E+00
    0.4100000000E+04    0.3732865969E+00    0.7493115089E-01    0.9447830815E-01    0.5089951309E-02    0.5729693850E+00
    0.4300000000E+04    0.3814372948E+00    0.7272384461E-01    0.9452417660E-01    0.4960600791E-02    0.5735063364E+00
    0.4500000000E+04    0.3892657287E+00    0.7060419300E-01    0.9456549578E-01    0.4835232481E-02    0.5740041232E+00
    0.4700000000E+04    0.3967887746E+00    0.6856854399E-01    0.9460283996E-01    0.4713779584E-02    0.5744671561E+00
    0.4900000000E+04    0.4040220200E+00    0.6661331799E-01    0.9463669199E-01    0.4596161663E-02    0.5748991848E+00
    0.1000000000E+04    0.1812622243E+00    0.1202244795E+00    0.9134160382E-01    0.7343385514E-02    0.5467844417E+00
    0.3000000000E+04    0.3217756444E+00    0.8879848409E-01    0.9410510376E-01    0.5873051807E-02    0.5690201334E+00
    0.5000000000E+04    0.4075345274E+00    0.6566477094E-01    0.9465243872E-01    0.4538762920E-02    0.5751045943E+00
    0.7000000000E+04    0.4656106796E+00    0.5013489164E-01    0.9485668546E-01    0.3567705521E-02    0.5781674394E+00
    0.9000000000E+04    0.5065325017E+00    0.3946488478E-01    0.9494749139E-01    0.2865386485E-02    0.5800635020E+00
    0.1100000000E+05    0.5362788791E+00    0.3191449112E-01    0.9498870401E-01    0.2349569451E-02    0.5813722246E+00
    0.1300000000E+05    0.5585092534E+00    0.2641568053E-01    0.9500475290E-01    0.1962955428E-02    0.5823396543E+00
    0.1500000000E+05    0.5755396071E+00    0.2230387153E-01    0.9500682264E-01    0.1667115252E-02    0.5830896880E+00
    0.1700000000E+05    0.5888762970E+00    0.1915567307E-01    0.9500066433E-01    0.1436270439E-02    0.5836919890E+00
    0.1900000000E+05    0.5995249292E+00    0.1669423767E-01    0.9498948519E-01    0.1252900598E-02    0.5841889124E+00
    0.2100000000E+05    0.6081737166E+00    0.1473380592E-01    0.9497518334E-01    0.1104884875E-02    0.5846077723E+00
    0.2300000000E+05    0.6153047633E+00    0.1314665054E-01    0.9495893371E-01    0.9836771862E-03    0.5849670176E+00
    0.2500000000E+05    0.6212631493E+00    0.1184293352E-01    0.9494148895E-01    0.8831380042E-03    0.5852795844E+00
    0.2700000000E+05    0.6263008036E+00    0.1075814014E-01    0.9492334406E-01    0.7987773980E-03    0.5855548294E+00
    0.2900000000E+05    0.6306049960E+00    0.9845054970E-02    0.9490483115E-01    0.7272567223E-03    0.5857996990E+00
    0.3100000000E+05    0.6343172371E+00    0.9068522271E-02    0.9488617619E-01    0.6660548928E-03    0.5860194671E+00
    0.3300000000E+05    0.6375460719E+00    0.8401951652E-02    0.9486753440E-01    0.6132409894E-03    0.5862182155E+00
    0.3500000000E+05    0.6403759023E+00    0.7824941487E-02    0.9484901274E-01    0.5673166886E-03    0.5863991573E+00
    0.3700000000E+05    0.6428731804E+00    0.7321632724E-02    0.9483068481E-01    0.5271053193E-03    0.5865648593E+00
    0.3900000000E+05    0.6450908261E+00    0.6879549201E-02    0.9481260076E-01    0.4916725588E-03    0.5867173995E+00
    0.4100000000E+05    0.6470714256E+00    0.6488767809E-02    0.9479479408E-01    0.4602689357E-03    0.5868584798E+00
    0.4300000000E+05    0.6488495811E+00    0.6141316035E-02    0.9477728635E-01    0.4322875891E-03    0.5869895090E+00
    0.4500000000E+05    0.6504536576E+00    0.5830728670E-02    0.9476009054E-01    0.4072328480E-03    0.5871116643E+00
    0.4700000000E+05    0.6519070993E+00    0.5551717558E-02    0.9474321338E-01    0.3846965894E-03    0.5872259383E+00
    0.4900000000E+05    0.6532294300E+00    0.5299922702E-02    0.9472665713E-01    0.3643402552E-03    0.5873331740E+00
    0.1000000000E+05    0.5225339583E+00    0.3537847598E-01    0.9497230445E-01    0.2588272461E-02    0.5807717285E+00
    0.3000000000E+05    0.6325276726E+00    0.9441550041E-02    0.9489551038E-01    0.6954983463E-03    0.5859124421E+00
    0.5000000000E+05    0.6538466515E+00    0.5183075053E-02    0.9471849912E-01    0.3548893148E-03    0.5873843821E+00
    0.7000000000E+05    0.6621676046E+00    0.3652520018E-02    0.9457104037E-01    0.2312901137E-03    0.5881697748E+00
    0.9000000000E+05    0.6664955101E+00    0.2890014495E-02    0.9444839514E-01    0.1706567129E-03    0.5886852964E+00
    0.1100000000E+06    0.6691240772E+00    0.2436410659E-02    0.9434400107E-01    0.1355072811E-03    0.5890612313E+00
    0.1300000000E+06    0.6708827248E+00    0.2135068221E-02    0.9425326415E-01    0.1128518035E-03    0.5893534245E+00
    0.1500000000E+06    0.6721395866E+00    0.1919365739E-02    0.9417305560E-01    0.9714016706E-04    0.5895904451E+00
    0.1700000000E+06    0.6730817827E+00    0.1756500859E-02    0.9410118901E-01    0.8564551367E-04    0.5897886846E+00
    0.1900000000E+06    0.6738140810E+00    0.1628540420E-02    0.9403608745E-01    0.7688670194E-04    0.5899583400E+00
    0.2100000000E+06    0.6743995540E+00    0.1524877982E-02    0.9397657993E-01    0.6999592728E-04    0.5901061486E+00
    0.2300000000E+06    0.6748783795E+00    0.1438844097E-02    0.9392177443E-01    0.6443369263E-04    0.5902367741E+00
    0.2500000000E+06    0.6752773352E+00    0.1366034158E-02    0.9387097637E-01    0.5984822296E-04    0.5903535674E+00
    0.2700000000E+06    0.6756149416E+00    0.1303420264E-02    0.9382363457E-01    0.5600097525E-04    0.5904590108E+00
    0.2900000000E+06    0.6759044104E+00    0.1248850271E-02    0.9377930442E-01    0.5272479601E-04    0.5905549898E+00
    0.3100000000E+06    0.6761554156E+00    0.1200750775E-02    0.9373762210E-01    0.4989924797E-04    0.5906429679E+00
    0.3300000000E+06    0.6763752021E+00    0.1157943432E-02    0.9369828615E-01    0.4743545096E-04    0.5907241018E+00
    0.3500000000E+06    0.6765693018E+00    0.1119527203E-02    0.9366104396E-01    0.4526643475E-04    0.5907993206E+00
    0.3700000000E+06    0.6767420111E+00    0.1084800480E-02    0.9362568179E-01    0.4334080952E-04    0.5908693809E+00
    0.3900000000E+06    0.6768967178E+00    0.1053208161E-02    0.9359201712E-01    0.4161850060E-04    0.5909349065E+00
    0.4100000000E+06    0.6770361287E+00    0.1024304812E-02    0.9355989291E-01    0.4006780586E-04    0.5909964171E+00
    0.4300000000E+06    0.6771624325E+00    0.9977284771E-03    0.9352917302E-01    0.3866332247E-04    0.5910543501E+00
    0.4500000000E+06    0.6772774186E+00    0.9731817003E-03    0.9349973866E-01    0.3738445852E-04    0.5911090770E+00
    0.4700000000E+06    0.6773825637E+00    0.9504175353E-03    0.9347148556E-01    0.3621434643E-04    0.5911609155E+00
    0.4900000000E+06    0.6774790973E+00    0.9292290771E-03    0.9344432172E-01    0.3513903728E-04    0.5912101396E+00
    0.1000000000E+06    0.6679538734E+00    0.2637660508E-02    0.9439424571E-01    0.1509775119E-03    0.5888862907E+00
    0.3000000000E+06    0.6760342210E+00    0.1224072994E-02    0.9375815240E-01    0.5126185443E-04    0.5905999006E+00
    0.5000000000E+06    0.6775244641E+00    0.9191700334E-03    0.9343112238E-01    0.3463322067E-04    0.5912338467E+00
    0.7000000000E+06    0.6781608137E+00    0.7696544556E-03    0.9320859641E-01    0.2747119288E-04    0.5916148103E+00
    0.9000000000E+06    0.6785177803E+00    0.6764751749E-03    0.9303946361E-01    0.2334158903E-04    0.5918842145E+00
    0.1100000000E+07    0.6787480569E+00    0.6111719136E-03    0.9290289223E-01    0.2059436453E-04    0.5920913792E+00
    0.1300000000E+07    0.6789098666E+00    0.5620792259E-03    0.9278829587E-01    0.1860532472E-04    0.5922590652E+00
    0.1500000000E+07    0.6790303327E+00    0.5234050752E-03    0.9268954586E-01    0.1708257847E-04    0.5923995798E+00
    0.1700000000E+07    0.6791238393E+00    0.4919007644E-03    0.9260277125E-01    0.1586986422E-04    0.5925203020E+00
    0.1900000000E+07    0.6791987440E+00    0.4655826248E-03    0.9252536899E-01    0.1487526872E-04    0.5926259923E+00
    0.2100000000E+07    0.6792602451E+00    0.4431609625E-03    0.9245550375E-01    0.1404084056E-04    0.5927198946E+00
    0.2300000000E+07    0.6793117510E+00    0.4237557199E-03    0.9239183249E-01    0.1332803848E-04    0.5928043150E+00
    0.2500000000E+07    0.6793555929E+00    0.4067428156E-03    0.9233334260E-01    0.1271012271E-04    0.5928809500E+00
    0.2700000000E+07    0.6793934214E+00    0.3916655976E-03    0.9227925157E-01    0.1216789287E-04    0.5929510823E+00
    0.2900000000E+07    0.6794264390E+00    0.3781811050E-03    0.9222894204E-01    0.1168716430E-04    0.5930157052E+00
    0.3100000000E+07    0.6794555437E+00    0.3660260326E-03    0.9218191835E-01    0.1125720371E-04    0.5930756024E+00
    0.3300000000E+07    0.6794814199E+00    0.3549943858E-03    0.9213777650E-01    0.1086972164E-04    0.5931314034E+00
    0.3500000000E+07    0.6795045989E+00    0.3449223563E-03    0.9209618278E-01    0.1051820204E-04    0.5931836207E+00
    0.3700000000E+07    0.6795254999E+00    0.3356778110E-03    0.9205685838E-01    0.1019744340E-04    0.5932326774E+00
    0.3900000000E+07    0.6795444579E+00    0.3271528176E-03    0.9201956797E-01    0.9903236958E-05    0.5932789264E+00
    0.4100000000E+07    0.6795617444E+00    0.3192582206E-03    0.9198411105E-01    0.9632136047E-05    0.5933226652E+00
    0.4300000000E+07    0.6795775817E+00    0.3119196342E-03    0.9195031543E-01    0.9381287717E-05    0.5933641469E+00
    0.4500000000E+07    0.6795921536E+00    0.3050744344E-03    0.9191803213E-01    0.9148307601E-05    0.5934035884E+00
    0.4700000000E+07    0.6796056135E+00    0.2986694674E-03    0.9188713136E-01    0.8931185560E-05    0.5934411771E+00
    0.4900000000E+07    0.6796180906E+00    0.2926592825E-03    0.9185749938E-01    0.8728213521E-05    0.5934770760E+00
    0.1000000000E+07    0.6786440198E+00    0.6412711136E-03    0.9296791396E-01    0.2184593315E-04    0.5919938049E+00
    0.3000000000E+07    0.6794414336E+00    0.3719514045E-03    0.9220504658E-01    0.1146640425E-04    0.5930462021E+00
    0.5000000000E+07    0.6796239955E+00    0.2897897903E-03    0.9184312740E-01    0.8631568564E-05    0.5934944370E+00
    0.7000000000E+07    0.6797100319E+00    0.2459670255E-03    0.9160319696E-01    0.7176601603E-05    0.5937797622E+00
    0.9000000000E+07    0.6797615757E+00    0.2176458423E-03    0.9142339763E-01    0.6257411591E-05    0.5939886368E+00
    0.1100000000E+08    0.6797965217E+00    0.1974028261E-03    0.9127954236E-01    0.5610803368E-05    0.5941531465E+00
    0.1300000000E+08    0.6798220817E+00    0.1819995556E-03    0.9115962613E-01    0.5124777148E-05    0.5942887096E+00
    0.1500000000E+08    0.6798417611E+00    0.1697667882E-03    0.9105680789E-01    0.4742602019E-05    0.5944039135E+00
    0.1700000000E+08    0.6798574844E+00    0.1597447845E-03    0.9096681638E-01    0.4432092998E-05    0.5945040274E+00
    0.1900000000E+08    0.6798704031E+00    0.1513371986E-03    0.9088680486E-01    0.4173465648E-05    0.5945925152E+00
    0.2100000000E+08    0.6798812520E+00    0.1441512818E-03    0.9081478046E-01    0.3953806688E-05    0.5946717743E+00
    0.2300000000E+08    0.6798905241E+00    0.1379163778E-03    0.9074929345E-01    0.3764285422E-05    0.5947435322E+00
    0.2500000000E+08    0.6798985634E+00    0.1324390633E-03    0.9068925620E-01    0.3598633356E-05    0.5948090744E+00
    0.2700000000E+08    0.6799056180E+00    0.1275769246E-03    0.9063383180E-01    0.3452262604E-05    0.5948693831E+00
