  Pressure (Pa) 22mC5-400 (mol/kg) 2mC6-400 (mol/kg) 3mC6-400 (mol/kg) 33mC5-400 (mol/kg) C7-400 (mol/kg)
    0.1000000000E+01    0.5306460212E-03    0.3144979325E-02    0.3639619709E-02    0.1280561508E-03    0.1012528315E-01
    0.3000000000E+01    0.1579345977E-02    0.9044901446E-02    0.1041780600E-01    0.3684348013E-03    0.2898840009E-01
    0.5000000000E+01    0.2611686353E-02    0.1448244307E-01    0.1660278692E-01    0.5901701308E-03    0.4620858970E-01
    0.7000000000E+01    0.3628163933E-02    0.1951621288E-01    0.2227084041E-01    0.7956338420E-03    0.6199679008E-01
    0.9000000000E+01    0.4629254755E-02    0.2419500211E-01    0.2748563423E-01    0.9867991441E-03    0.7652909365E-01
    0.1100000000E+02    0.5615415201E-02    0.2855976514E-01    0.3230073255E-01    0.1165321293E-02    0.8995367038E-01
    0.1300000000E+02    0.6587083014E-02    0.3264514012E-01    0.3676152721E-01    0.1332599410E-02    0.1023961025E+00
    0.1500000000E+02    0.7544678259E-02    0.3648062938E-01    0.4090674206E-01    0.1489824447E-02    0.1139635402E+00
    0.1700000000E+02    0.8488604214E-02    0.4009152490E-01    0.4476961658E-01    0.1638016785E-02    0.1247479719E+00
    0.1900000000E+02    0.9419248218E-02    0.4349964084E-01    0.4837884589E-01    0.1778055979E-02    0.1348288215E+00
    0.2100000000E+02    0.1033698246E-01    0.4672389829E-01    0.5175933358E-01    0.1910704497E-02    0.1442750284E+00
    0.2300000000E+02    0.1124216473E-01    0.4978079582E-01    0.5493279962E-01    0.2036626811E-02    0.1531467280E+00
    0.2500000000E+02    0.1213513910E-01    0.5268479102E-01    0.5791827481E-01    0.2156404878E-02    0.1614966177E+00
    0.2700000000E+02    0.1301623663E-01    0.5544861202E-01    0.6073250572E-01    0.2270550764E-02    0.1693710768E+00
    0.2900000000E+02    0.1388577594E-01    0.5808351350E-01    0.6339028853E-01    0.2379517027E-02    0.1768110888E+00
    0.3100000000E+02    0.1474406381E-01    0.6059948841E-01    0.6590474593E-01    0.2483705286E-02    0.1838530072E+00
    0.3300000000E+02    0.1559139575E-01    0.6300544401E-01    0.6828755804E-01    0.2583473358E-02    0.1905291939E+00
    0.3500000000E+02    0.1642805652E-01    0.6530934914E-01    0.7054915610E-01    0.2679141215E-02    0.1968685546E+00
    0.3700000000E+02    0.1725432061E-01    0.6751835801E-01    0.7269888570E-01    0.2770995994E-02    0.2028969905E+00
    0.3900000000E+02    0.1807045272E-01    0.6963891475E-01    0.7474514501E-01    0.2859296225E-02    0.2086377804E+00
    0.4100000000E+02    0.1887670817E-01    0.7167684214E-01    0.7669550242E-01    0.2944275418E-02    0.2141119059E+00
    0.4300000000E+02    0.1967333337E-01    0.7363741728E-01    0.7855679698E-01    0.3026145118E-02    0.2193383296E+00
    0.4500000000E+02    0.2046056616E-01    0.7552543626E-01    0.8033522462E-01    0.3105097526E-02    0.2243342333E+00
    0.4700000000E+02    0.2123863624E-01    0.7734526987E-01    0.8203641238E-01    0.3181307737E-02    0.2291152235E+00
    0.4900000000E+02    0.2200776547E-01    0.7910091156E-01    0.8366548253E-01    0.3254935683E-02    0.2336955088E+00
    0.1000000000E+02    0.5124173490E-02    0.2641433923E-01    0.2994013621E-01    0.1077547785E-02    0.8337152322E-01
    0.3000000000E+02    0.1431630757E-01    0.5935578648E-01    0.6466467152E-01    0.2432185091E-02    0.1803797003E+00
    0.5000000000E+02    0.2238904454E-01    0.7995581556E-01    0.8445445006E-01    0.3290827555E-02    0.2359144834E+00
    0.7000000000E+02    0.2959375920E-01    0.9442820251E-01    0.9738989484E-01    0.3902884972E-02    0.2723718630E+00
    0.9000000000E+02    0.3610904747E-01    0.1052592421E+00    0.1065839362E+00    0.4367836608E-02    0.2983928985E+00
    0.1100000000E+03    0.4206562140E-01    0.1136853826E+00    0.1134984873E+00    0.4735113765E-02    0.3180416767E+00
    0.1300000000E+03    0.4756157876E-01    0.1204121540E+00    0.1189143043E+00    0.5032950939E-02    0.3334918500E+00
    0.1500000000E+03    0.5267214013E-01    0.1258812311E+00    0.1232879935E+00    0.5279063485E-02    0.3460164578E+00
    0.1700000000E+03    0.5745606772E-01    0.1303878103E+00    0.1269053038E+00    0.5485327936E-02    0.3564133154E+00
    0.1900000000E+03    0.6196001974E-01    0.1341389052E+00    0.1299547053E+00    0.5660102662E-02    0.3652093762E+00
    0.2100000000E+03    0.6622157915E-01    0.1372850948E+00    0.1325658348E+00    0.5809490918E-02    0.3727676024E+00
    0.2300000000E+03    0.7027140722E-01    0.1399390943E+00    0.1348309732E+00    0.5938079705E-02    0.3793467214E+00
    0.2500000000E+03    0.7413480503E-01    0.1421872467E+00    0.1368177134E+00    0.6049397343E-02    0.3851365014E+00
    0.2700000000E+03    0.7783286566E-01    0.1440969630E+00    0.1385767765E+00    0.6146210098E-02    0.3902795336E+00
    0.2900000000E+03    0.8138333775E-01    0.1457217207E+00    0.1401470187E+00    0.6230721785E-02    0.3948851990E+00
    0.3100000000E+03    0.8480128198E-01    0.1471045266E+00    0.1415587455E+00    0.6304712298E-02    0.3990389203E+00
    0.3300000000E+03    0.8809957666E-01    0.1482803779E+00    0.1428359670E+00    0.6369636272E-02    0.4028084630E+00
    0.3500000000E+03    0.9128931165E-01    0.1492780500E+00    0.1439979705E+00    0.6426694925E-02    0.4062483327E+00
    0.3700000000E+03    0.9438009862E-01    0.1501214210E+00    0.1450604408E+00    0.6476889367E-02    0.4094029113E+00
    0.3900000000E+03    0.9738031786E-01    0.1508304675E+00    0.1460362743E+00    0.6521060821E-02    0.4123087355E+00
    0.4100000000E+03    0.1002973164E+00    0.1514220260E+00    0.1469361799E+00    0.6559921407E-02    0.4149961824E+00
    0.4300000000E+03    0.1031375684E+00    0.1519103814E+00    0.1477691296E+00    0.6594078017E-02    0.4174907340E+00
    0.4500000000E+03    0.1059068060E+00    0.1523077276E+00    0.1485427020E+00    0.6624051040E-02    0.4198139399E+00
    0.4700000000E+03    0.1086101269E+00    0.1526245315E+00    0.1492633456E+00    0.6650289199E-02    0.4219841595E+00
    0.4900000000E+03    0.1112520834E+00    0.1528698240E+00    0.1499365855E+00    0.6673181430E-02    0.4240171406E+00
    0.1000000000E+03    0.3915041257E-01    0.1097206106E+00    0.1102670623E+00    0.4561592100E-02    0.3088493931E+00
    0.3000000000E+03    0.8310802488E-01    0.1464410162E+00    0.1408710694E+00    0.6268934599E-02    0.3970139624E+00
    0.5000000000E+03    0.1125513419E+00    0.1529681414E+00    0.1502569435E+00    0.6683480412E-02    0.4249864880E+00
    0.7000000000E+03    0.1361143494E+00    0.1526206434E+00    0.1550476605E+00    0.6776698971E-02    0.4396629812E+00
    0.9000000000E+03    0.1564086170E+00    0.1499370680E+00    0.1580175036E+00    0.6747905119E-02    0.4489854865E+00
    0.1100000000E+04    0.1745615187E+00    0.1463454758E+00    0.1600627774E+00    0.6663470190E-02    0.4555502951E+00
    0.1300000000E+04    0.1911628618E+00    0.1424057482E+00    0.1615680375E+00    0.6551200386E-02    0.4604830571E+00
    0.1500000000E+04    0.2065613366E+00    0.1383670572E+00    0.1627278685E+00    0.6424508487E-02    0.4643588649E+00
    0.1700000000E+04    0.2209814422E+00    0.1343490005E+00    0.1636521132E+00    0.6290514941E-02    0.4675053033E+00
    0.1900000000E+04    0.2345771817E+00    0.1304112372E+00    0.1644078315E+00    0.6153268178E-02    0.4701240860E+00
    0.2100000000E+04    0.2474595503E+00    0.1265835848E+00    0.1650384544E+00    0.6015188448E-02    0.4723469275E+00
    0.2300000000E+04    0.2597118053E+00    0.1228801971E+00    0.1655734399E+00    0.5877776266E-02    0.4742638741E+00
    0.2500000000E+04    0.2713985050E+00    0.1193066976E+00    0.1660335254E+00    0.5741985419E-02    0.4759388002E+00
    0.2700000000E+04    0.2825711380E+00    0.1158639554E+00    0.1664337623E+00    0.5608430838E-02    0.4774184121E+00
    0.2900000000E+04    0.2932717780E+00    0.1125501662E+00    0.1667853586E+00    0.5477509999E-02    0.4787377417E+00
    0.3100000000E+04    0.3035355386E+00    0.1093620347E+00    0.1670968438E+00    0.5349476692E-02    0.4799236385E+00
    0.3300000000E+04    0.3133922714E+00    0.1062954632E+00    0.1673748321E+00    0.5224487392E-02    0.4809970670E+00
    0.3500000000E+04    0.3228677687E+00    0.1033459591E+00    0.1676245365E+00    0.5102631274E-02    0.4819746635E+00
    0.3700000000E+04    0.3319846349E+00    0.1005088779E+00    0.1678501250E+00    0.4983950171E-02    0.4828698186E+00
    0.3900000000E+04    0.3407629280E+00    0.9777956922E-01    0.1680549725E+00    0.4868452133E-02    0.4836934468E+00
    0.4100000000E+04    0.3492206412E+00    0.9515346327E-01    0.1682418428E+00    0.4756120864E-02    0.4844545445E+00
    0.4300000000E+04    0.3573740686E+00    0.9262612092E-01    0.1684130224E+00    0.4646922388E-02    0.4851606022E+00
    0.4500000000E+04    0.3652380871E+00    0.9019326144E-01    0.1685704201E+00    0.4540809860E-02    0.4858179130E+00
    0.4700000000E+04    0.3728263759E+00    0.8785077615E-01    0.1687156428E+00    0.4437727082E-02    0.4864318083E+00
    0.4900000000E+04    0.3801515904E+00    0.8559473345E-01    0.1688500537E+00    0.4337611116E-02    0.4870068381E+00
    0.1000000000E+04    0.1657081171E+00    0.1482089790E+00    0.1591251997E+00    0.6710412112E-02    0.4525235307E+00
    0.3000000000E+04    0.2984562952E+00    0.1109406363E+00    0.1669456638E+00    0.5413120756E-02    0.4793459421E+00
    0.5000000000E+04    0.3837192541E+00    0.8449794783E-01    0.1689135751E+00    0.4288644671E-02    0.4872810221E+00
    0.7000000000E+04    0.4437558482E+00    0.6627770506E-01    0.1698263525E+00    0.3447419249E-02    0.4914375297E+00
    0.9000000000E+04    0.4873269847E+00    0.5339212517E-01    0.1703503944E+00    0.2820767140E-02    0.4940892844E+00
    0.1100000000E+05    0.5196921838E+00    0.4404132845E-01    0.1706867165E+00    0.2348819805E-02    0.4959657329E+00
    0.1300000000E+05    0.5442588316E+00    0.3708734990E-01    0.1709178062E+00    0.1987804523E-02    0.4973823950E+00
    0.1500000000E+05    0.5632876073E+00    0.3179673078E-01    0.1710839853E+00    0.1706975642E-02    0.4985007284E+00
    0.1700000000E+05    0.5783045318E+00    0.2768707408E-01    0.1712073605E+00    0.1484897897E-02    0.4994128941E+00
    0.1900000000E+05    0.5903581306E+00    0.2443431887E-01    0.1713010821E+00    0.1306540473E-02    0.5001757338E+00
    0.2100000000E+05    0.6001822161E+00    0.2181608590E-01    0.1713734658E+00    0.1161239132E-02    0.5008264038E+00
    0.2300000000E+05    0.6082998658E+00    0.1967658442E-01    0.1714300266E+00    0.1041319013E-02    0.5013903218E+00
    0.2500000000E+05    0.6150906262E+00    0.1790451096E-01    0.1714745646E+00    0.9411728843E-03    0.5018855252E+00
    0.2700000000E+05    0.6208345763E+00    0.1641887342E-01    0.1715097814E+00    0.8566424208E-03    0.5023252060E+00
    0.2900000000E+05    0.6257416801E+00    0.1515972547E-01    0.1715376484E+00    0.7845991135E-03    0.5027192611E+00
    0.3100000000E+05    0.6299716635E+00    0.1408199598E-01    0.1715596367E+00    0.7226569691E-03    0.5030752774E+00
    0.3300000000E+05    0.6336476936E+00    0.1315130469E-01    0.1715768647E+00    0.6689729129E-03    0.5033991805E+00
    0.3500000000E+05    0.6368659437E+00    0.1234107529E-01    0.1715901972E+00    0.6221062156E-03    0.5036956743E+00
    0.3700000000E+05    0.6397023830E+00    0.1163051112E-01    0.1716003122E+00    0.5809181374E-03    0.5039685469E+00
    0.3900000000E+05    0.6422176652E+00    0.1100315361E-01    0.1716077485E+00    0.5444993390E-03    0.5042208875E+00
    0.4100000000E+05    0.6444606966E+00    0.1044584117E-01    0.1716129387E+00    0.5121167125E-03    0.5044552440E+00
    0.4300000000E+05    0.6464712730E+00    0.9947946983E-02    0.1716162340E+00    0.4831739692E-03    0.5046737391E+00
    0.4500000000E+05    0.6482820525E+00    0.9500814058E-02    0.1716179218E+00    0.4571820943E-03    0.5048781580E+00
    0.4700000000E+05    0.6499200470E+00    0.9097331547E-02    0.1716182397E+00    0.4337369608E-03    0.5050700138E+00
    0.4900000000E+05    0.6514077625E+00    0.8731613541E-02    0.1716173850E+00    0.4125021974E-03    0.5052505995E+00
    0.1000000000E+05    0.5046642061E+00    0.4835784867E-01    0.1705354095E+00    0.2568543108E-02    0.4950994620E+00
    0.3000000000E+05    0.6279328854E+00    0.1460054386E-01    0.1715493005E+00    0.7524914314E-03    0.5029016208E+00
    0.5000000000E+05    0.6521012874E+00    0.8561350069E-02    0.1716165707E+00    0.4026237948E-03    0.5053370197E+00
    0.7000000000E+05    0.6613786167E+00    0.6290372784E-02    0.1715674574E+00    0.2720107170E-03    0.5066769744E+00
    0.9000000000E+05    0.6661285465E+00    0.5118426079E-02    0.1714918552E+00    0.2065465154E-03    0.5075702138E+00
    0.1100000000E+06    0.6689754569E+00    0.4400689866E-02    0.1714109926E+00    0.1678836531E-03    0.5082274884E+00
    0.1300000000E+06    0.6708591423E+00    0.3912152256E-02    0.1713313536E+00    0.1425424405E-03    0.5087412552E+00
    0.1500000000E+06    0.6721927225E+00    0.3555234374E-02    0.1712550571E+00    0.1246975669E-03    0.5091595665E+00
    0.1700000000E+06    0.6731843328E+00    0.3281042688E-02    0.1711826983E+00    0.1114579631E-03    0.5095103122E+00
    0.1900000000E+06    0.6739495801E+00    0.3062415037E-02    0.1711142956E+00    0.1012386092E-03    0.5098109945E+00
    0.2100000000E+06    0.6745575633E+00    0.2883047745E-02    0.1710496482E+00    0.9310266195E-04    0.5100732569E+00
    0.2300000000E+06    0.6750520138E+00    0.2732548347E-02    0.1709884811E+00    0.8646282756E-04    0.5103052039E+00
    0.2500000000E+06    0.6754619065E+00    0.2603966655E-02    0.1709305060E+00    0.8093309936E-04    0.5105126851E+00
    0.2700000000E+06    0.6758071743E+00    0.2492468994E-02    0.1708754467E+00    0.7624971109E-04    0.5107000492E+00
    0.2900000000E+06    0.6761019661E+00    0.2394582611E-02    0.1708230490E+00    0.7222647074E-04    0.5108706104E+00
    0.3100000000E+06    0.6763565958E+00    0.2307743242E-02    0.1707730831E+00    0.6872827104E-04    0.5110269474E+00
    0.3300000000E+06    0.6765787548E+00    0.2230012701E-02    0.1707253431E+00    0.6565472437E-04    0.5111711033E+00
    0.3500000000E+06    0.6767742933E+00    0.2159896210E-02    0.1706796455E+00    0.6292969188E-04    0.5113047220E+00
    0.3700000000E+06    0.6769477385E+00    0.2096220566E-02    0.1706358265E+00    0.6049437769E-04    0.5114291446E+00
    0.3900000000E+06    0.6771026480E+00    0.2038050682E-02    0.1705937401E+00    0.5830265154E-04    0.5115454780E+00
    0.4100000000E+06    0.6772418552E+00    0.1984631045E-02    0.1705532560E+00    0.5631780580E-04    0.5116546461E+00
    0.4300000000E+06    0.6773676446E+00    0.1935343792E-02    0.1705142571E+00    0.5451025955E-04    0.5117574271E+00
    0.4500000000E+06    0.6774818783E+00    0.1889678123E-02    0.1704766385E+00    0.5285590265E-04    0.5118544823E+00
    0.4700000000E+06    0.6775860890E+00    0.1847207606E-02    0.1704403059E+00    0.5133488107E-04    0.5119463780E+00
    0.4900000000E+06    0.6776815498E+00    0.1807573084E-02    0.1704051738E+00    0.4993069240E-04    0.5120336026E+00
    0.1000000000E+06    0.6677122534E+00    0.4721448595E-02    0.1714515154E+00    0.1849833092E-03    0.5079210626E+00
    0.3000000000E+06    0.6762337698E+00    0.2349915350E-02    0.1707977755E+00    0.7041868437E-04    0.5109504185E+00
    0.5000000000E+06    0.6777263391E+00    0.1788722204E-02    0.1703880335E+00    0.4926799827E-04    0.5120755980E+00
    0.7000000000E+06    0.6783490918E+00    0.1505991261E-02    0.1700928810E+00    0.3972308342E-04    0.5127490106E+00
    0.9000000000E+06    0.6786931126E+00    0.1327562740E-02    0.1698617477E+00    0.3406878981E-04    0.5132232074E+00
    0.1100000000E+07    0.6789124667E+00    0.1201615528E-02    0.1696715165E+00    0.3024072058E-04    0.5135864705E+00
    0.1300000000E+07    0.6790651448E+00    0.1106497518E-02    0.1695097211E+00    0.2743497828E-04    0.5138795305E+00
    0.1500000000E+07    0.6791778995E+00    0.1031327098E-02    0.1693688662E+00    0.2526755336E-04    0.5141243856E+00
    0.1700000000E+07    0.6792648060E+00    0.9699498969E-03    0.1692440895E+00    0.2352948582E-04    0.5143342063E+00
    0.1900000000E+07    0.6793339879E+00    0.9185852627E-03    0.1691320544E+00    0.2209626681E-04    0.5145174757E+00
    0.2100000000E+07    0.6793904688E+00    0.8747639199E-03    0.1690303707E+00    0.2088856700E-04    0.5146799648E+00
    0.2300000000E+07    0.6794375257E+00    0.8367948620E-03    0.1689372666E+00    0.1985316916E-04    0.5148257703E+00
    0.2500000000E+07    0.6794773895E+00    0.8034754951E-03    0.1688513914E+00    0.1895288238E-04    0.5149579008E+00
    0.2700000000E+07    0.6795116330E+00    0.7739237941E-03    0.1687716919E+00    0.1816083654E-04    0.5150786283E+00
    0.2900000000E+07    0.6795413978E+00    0.7474760352E-03    0.1686973304E+00    0.1745707504E-04    0.5151897090E+00
    0.3100000000E+07    0.6795675330E+00    0.7236218090E-03    0.1686276297E+00    0.1682642724E-04    0.5152925274E+00
    0.3300000000E+07    0.6795906838E+00    0.7019612373E-03    0.1685620345E+00    0.1625712920E-04    0.5153881935E+00
    0.3500000000E+07    0.6796113494E+00    0.6821759454E-03    0.1685000835E+00    0.1573990058E-04    0.5154776104E+00
    0.3700000000E+07    0.6796299225E+00    0.6640088482E-03    0.1684413894E+00    0.1526730970E-04    0.5155615223E+00
    0.3900000000E+07    0.6796467160E+00    0.6472497491E-03    0.1683856239E+00    0.1483332612E-04    0.5156405498E+00
    0.4100000000E+07    0.6796619830E+00    0.6317248743E-03    0.1683325059E+00    0.1443299875E-04    0.5157152151E+00
    0.4300000000E+07    0.6796759298E+00    0.6172891298E-03    0.1682817934E+00    0.1406221985E-04    0.5157859620E+00
    0.4500000000E+07    0.6796887270E+00    0.6038202811E-03    0.1682332762E+00    0.1371754915E-04    0.5158531707E+00
    0.4700000000E+07    0.6797005164E+00    0.5912145161E-03    0.1681867705E+00    0.1339608074E-04    0.5159171691E+00
    0.4900000000E+07    0.6797114171E+00    0.5793830182E-03    0.1681421148E+00    0.1309534109E-04    0.5159782423E+00
    0.1000000000E+07    0.6788136438E+00    0.1259752421E-02    0.1697624565E+00    0.3199144022E-04    0.5134155341E+00
    0.3000000000E+07    0.6795548748E+00    0.7352519209E-03    0.1686619346E+00    0.1713341448E-04    0.5152420761E+00
    0.5000000000E+07    0.6797165663E+00    0.5737332931E-03    0.1681204355E+00    0.1295206990E-04    0.5160077610E+00
    0.7000000000E+07    0.6797908158E+00    0.4873801725E-03    0.1677566538E+00    0.1078963443E-04    0.5164913518E+00
    0.9000000000E+07    0.6798344854E+00    0.4315056353E-03    0.1674819605E+00    0.9418528425E-05    0.5168435800E+00
    0.1100000000E+08    0.6798636700E+00    0.3915373622E-03    0.1672610520E+00    0.8451925822E-05    0.5171199822E+00
    0.1300000000E+08    0.6798847659E+00    0.3611076917E-03    0.1670762095E+00    0.7724312728E-05    0.5173471093E+00
    0.1500000000E+08    0.6799008471E+00    0.3369309210E-03    0.1669172572E+00    0.7151563695E-05    0.5175396900E+00
    0.1700000000E+08    0.6799135851E+00    0.3171164828E-03    0.1667778048E+00    0.6685838540E-05    0.5177067328E+00
    0.1900000000E+08    0.6799239719E+00    0.3004889682E-03    0.1666535734E+00    0.6297677782E-05    0.5178541433E+00
    0.2100000000E+08    0.6799326358E+00    0.2862739026E-03    0.1665415564E+00    0.5967827179E-05    0.5179859998E+00
    0.2300000000E+08    0.6799399955E+00    0.2739373653E-03    0.1664395598E+00    0.5683105536E-05    0.5181052349E+00
    0.2500000000E+08    0.6799463413E+00    0.2630976680E-03    0.1663459330E+00    0.5434147844E-05    0.5182140270E+00
    0.2700000000E+08    0.6799518818E+00    0.2534737026E-03    0.1662594031E+00    0.5214094796E-05    0.5183140380E+00
