  Pressure (Pa) 22mC5-400 (mol/kg) 2mC6-400 (mol/kg) 3mC6-400 (mol/kg) 33mC5-400 (mol/kg) C7-400 (mol/kg)
    0.1000000000E+01    0.5288818780E-03    0.6325965618E-02    0.1573765260E-02    0.3863144957E-03    0.3405068120E-02
    0.3000000000E+01    0.1563932180E-02    0.1838421753E-01    0.4580921100E-02    0.1122820953E-02    0.9912773215E-02
    0.5000000000E+01    0.2570098249E-02    0.2971033527E-01    0.7415377781E-02    0.1814781977E-02    0.1604836529E-01
    0.7000000000E+01    0.3548948902E-02    0.4036826241E-01    0.1009264566E-01    0.2466089424E-02    0.2184522035E-01
    0.9000000000E+01    0.4501936253E-02    0.5041460979E-01    0.1262640327E-01    0.3080188534E-02    0.2733277531E-01
    0.1100000000E+02    0.5430406556E-02    0.5989968998E-01    0.1502876140E-01    0.3660140984E-02    0.3253709564E-01
    0.1300000000E+02    0.6335609842E-02    0.6886837984E-01    0.1731048267E-01    0.4208677453E-02    0.3748134729E-01
    0.1500000000E+02    0.7218708521E-02    0.7736084392E-01    0.1948116513E-01    0.4728241697E-02    0.4218619144E-01
    0.1700000000E+02    0.8080785065E-02    0.8541314420E-01    0.2154939658E-01    0.5221027703E-02    0.4667011618E-01
    0.1900000000E+02    0.8922848890E-02    0.9305775680E-01    0.2352288488E-01    0.5689011165E-02    0.5094971676E-01
    0.2100000000E+02    0.9745842534E-02    0.1003240117E+00    0.2540856862E-01    0.6133976273E-02    0.5503993347E-01
    0.2300000000E+02    0.1055064721E-01    0.1072384690E+00    0.2721271137E-01    0.6557538618E-02    0.5895425432E-01
    0.2500000000E+02    0.1133808781E-01    0.1138252413E+00    0.2894098242E-01    0.6961164854E-02    0.6270488864E-01
    0.2700000000E+02    0.1210893742E-01    0.1201062727E+00    0.3059852613E-01    0.7346189654E-02    0.6630291625E-01
    0.2900000000E+02    0.1286392142E-01    0.1261015792E+00    0.3219002177E-01    0.7713830371E-02    0.6975841616E-01
    0.3100000000E+02    0.1360372116E-01    0.1318294580E+00    0.3371973534E-01    0.8065199780E-02    0.7308057797E-01
    0.3300000000E+02    0.1432897736E-01    0.1373066701E+00    0.3519156458E-01    0.8401317175E-02    0.7627779871E-01
    0.3500000000E+02    0.1504029310E-01    0.1425485992E+00    0.3660907820E-01    0.8723118070E-02    0.7935776720E-01
    0.3700000000E+02    0.1573823665E-01    0.1475693918E+00    0.3797555017E-01    0.9031462712E-02    0.8232753788E-01
    0.3900000000E+02    0.1642334400E-01    0.1523820800E+00    0.3929398982E-01    0.9327143560E-02    0.8519359548E-01
    0.4100000000E+02    0.1709612113E-01    0.1569986902E+00    0.4056716830E-01    0.9610891891E-02    0.8796191196E-01
    0.4300000000E+02    0.1775704618E-01    0.1614303387E+00    0.4179764189E-01    0.9883383634E-02    0.9063799672E-01
    0.4500000000E+02    0.1840657134E-01    0.1656873170E+00    0.4298777263E-01    0.1014524455E-01    0.9322694094E-01
    0.4700000000E+02    0.1904512466E-01    0.1697791675E+00    0.4413974665E-01    0.1039705484E-01    0.9573345698E-01
    0.4900000000E+02    0.1967311165E-01    0.1737147506E+00    0.4525559036E-01    0.1063935324E-01    0.9816191333E-01
    0.1000000000E+02    0.4969155759E-02    0.5522438517E-01    0.1384330532E-01    0.3374255220E-02    0.2996882894E-01
    0.3000000000E+02    0.1323567836E-01    0.1289978655E+00    0.3296234956E-01    0.7891483213E-02    0.7143562198E-01
    0.5000000000E+02    0.1998326371E-01    0.1756265394E+00    0.4580055653E-01    0.1075709340E-01    0.9934814798E-01
    0.7000000000E+02    0.2571519157E-01    0.2073806439E+00    0.5519515256E-01    0.1271724132E-01    0.1198202245E+00
    0.9000000000E+02    0.3072627429E-01    0.2301086280E+00    0.6247506111E-01    0.1412751366E-01    0.1357179119E+00
    0.1100000000E+03    0.3520211486E-01    0.2469610141E+00    0.6835054032E-01    0.1517947389E-01    0.1485742330E+00
    0.1300000000E+03    0.3926621621E-01    0.2597864269E+00    0.7323815624E-01    0.1598555007E-01    0.1592889935E+00
    0.1500000000E+03    0.4300444930E-01    0.2697406142E+00    0.7739972937E-01    0.1661605612E-01    0.1684281586E+00
    0.1700000000E+03    0.4647868984E-01    0.2775825139E+00    0.8100888445E-01    0.1711718591E-01    0.1763673137E+00
    0.1900000000E+03    0.4973486232E-01    0.2838304366E+00    0.8418579551E-01    0.1752050477E-01    0.1833666009E+00
    0.2100000000E+03    0.5280791230E-01    0.2888499122E+00    0.8701660133E-01    0.1784828806E-01    0.1896126129E+00
    0.2300000000E+03    0.5572500274E-01    0.2929057267E+00    0.8956486868E-01    0.1811668368E-01    0.1952431382E+00
    0.2500000000E+03    0.5850763849E-01    0.2961940959E+00    0.9187867566E-01    0.1833766756E-01    0.2003624599E+00
    0.2700000000E+03    0.6117311960E-01    0.2988632869E+00    0.9399515985E-01    0.1852029727E-01    0.2050511815E+00
    0.2900000000E+03    0.6373556073E-01    0.3010272491E+00    0.9594353572E-01    0.1867154073E-01    0.2093727497E+00
    0.3100000000E+03    0.6620662203E-01    0.3027748668E+00    0.9774715405E-01    0.1879683890E-01    0.2133779076E+00
    0.3300000000E+03    0.6859604365E-01    0.3041763881E+00    0.9942494262E-01    0.1890049687E-01    0.2171078111E+00
    0.3500000000E+03    0.7091204332E-01    0.3052879839E+00    0.1009924362E+00    0.1898596123E-01    0.2205962585E+00
    0.3700000000E+03    0.7316161690E-01    0.3061550404E+00    0.1024625274E+00    0.1905602045E-01    0.2238713155E+00
    0.3900000000E+03    0.7535076871E-01    0.3068145763E+00    0.1038460235E+00    0.1911295211E-01    0.2269565213E+00
    0.4100000000E+03    0.7748469032E-01    0.3072970434E+00    0.1051520657E+00    0.1915863249E-01    0.2298717973E+00
    0.4300000000E+03    0.7956790106E-01    0.3076276861E+00    0.1063884493E+00    0.1919461947E-01    0.2326341417E+00
    0.4500000000E+03    0.8160435948E-01    0.3078275793E+00    0.1075618721E+00    0.1922221579E-01    0.2352581659E+00
    0.4700000000E+03    0.8359755276E-01    0.3079144318E+00    0.1086781277E+00    0.1924251798E-01    0.2377565164E+00
    0.4900000000E+03    0.8555056904E-01    0.3079032116E+00    0.1097422593E+00    0.1925645462E-01    0.2401402068E+00
    0.1000000000E+03    0.3302228367E-01    0.2391325402E+00    0.6555757252E-01    0.1468996798E-01    0.1424597679E+00
    0.3000000000E+03    0.6498186531E-01    0.3019483345E+00    0.9686216662E-01    0.1873714098E-01    0.2114121126E+00
    0.5000000000E+03    0.8651288148E-01    0.3078648761E+00    0.1102561800E+00    0.1926128764E-01    0.2412921165E+00
    0.7000000000E+03    0.1041823045E+00    0.3042110408E+00    0.1186293775E+00    0.1916490281E-01    0.2601287055E+00
    0.9000000000E+03    0.1197270002E+00    0.2980443711E+00    0.1246575551E+00    0.1888956876E-01    0.2737768573E+00
    0.1100000000E+04    0.1338758965E+00    0.2912209673E+00    0.1293323660E+00    0.1855523463E-01    0.2844165227E+00
    0.1300000000E+04    0.1470097334E+00    0.2843559230E+00    0.1331284360E+00    0.1820376643E-01    0.2930950527E+00
    0.1500000000E+04    0.1593549916E+00    0.2776730821E+00    0.1363092608E+00    0.1785179692E-01    0.3003957983E+00
    0.1700000000E+04    0.1710585691E+00    0.2712520570E+00    0.1390361205E+00    0.1750632307E-01    0.3066768400E+00
    0.1900000000E+04    0.1822218345E+00    0.2651143332E+00    0.1414148125E+00    0.1717025320E-01    0.3121736753E+00
    0.2100000000E+04    0.1929180840E+00    0.2592570565E+00    0.1435184276E+00    0.1684464240E-01    0.3170493775E+00
    0.2300000000E+04    0.2032022970E+00    0.2536673732E+00    0.1453995335E+00    0.1652967615E-01    0.3214214808E+00
    0.2500000000E+04    0.2131169604E+00    0.2483288193E+00    0.1470971731E+00    0.1622513080E-01    0.3253774518E+00
    0.2700000000E+04    0.2226957341E+00    0.2432242252E+00    0.1486411171E+00    0.1593059862E-01    0.3289841083E+00
    0.2900000000E+04    0.2319658571E+00    0.2383370169E+00    0.1500545699E+00    0.1564560043E-01    0.3322936199E+00
    0.3100000000E+04    0.2409497836E+00    0.2336517578E+00    0.1513559568E+00    0.1536964249E-01    0.3353474792E+00
    0.3300000000E+04    0.2496663288E+00    0.2291543236E+00    0.1525601430E+00    0.1510224455E-01    0.3381792141E+00
    0.3500000000E+04    0.2581314917E+00    0.2248319038E+00    0.1536792891E+00    0.1484295293E-01    0.3408162919E+00
    0.3700000000E+04    0.2663590579E+00    0.2206729239E+00    0.1547234639E+00    0.1459134567E-01    0.3432814875E+00
    0.3900000000E+04    0.2743610508E+00    0.2166669362E+00    0.1557010940E+00    0.1434703346E-01    0.3455938872E+00
    0.4100000000E+04    0.2821480728E+00    0.2128045035E+00    0.1566192994E+00    0.1410965854E-01    0.3477696384E+00
    0.4300000000E+04    0.2897295693E+00    0.2090770860E+00    0.1574841473E+00    0.1387889250E-01    0.3498225184E+00
    0.4500000000E+04    0.2971140330E+00    0.2054769371E+00    0.1583008480E+00    0.1365443376E-01    0.3517643729E+00
    0.4700000000E+04    0.3043091660E+00    0.2019970108E+00    0.1590739071E+00    0.1343600494E-01    0.3536054572E+00
    0.4900000000E+04    0.3113220081E+00    0.1986308787E+00    0.1598072455E+00    0.1322335041E-01    0.3553547064E+00
    0.1000000000E+04    0.1269471581E+00    0.2946621551E+00    0.1271274884E+00    0.1872625551E-01    0.2793919705E+00
    0.3000000000E+04    0.2364923446E+00    0.2359700578E+00    0.1507182705E+00    0.1550652197E-01    0.3338502494E+00
    0.5000000000E+04    0.3147621146E+00    0.1969886276E+00    0.1601601088E+00    0.1311911397E-01    0.3561973777E+00
    0.7000000000E+04    0.3753524680E+00    0.1689179023E+00    0.1657779427E+00    0.1128835555E-01    0.3697059273E+00
    0.9000000000E+04    0.4230911240E+00    0.1477057608E+00    0.1696494828E+00    0.9844559921E-02    0.3791302413E+00
    0.1100000000E+05    0.4610481359E+00    0.1312213271E+00    0.1725393063E+00    0.8688133756E-02    0.3862372169E+00
    0.1300000000E+05    0.4914816756E+00    0.1181470193E+00    0.1748086634E+00    0.7750785664E-02    0.3918683435E+00
    0.1500000000E+05    0.5161017638E+00    0.1075993871E+00    0.1766548177E+00    0.6982666729E-02    0.3964862285E+00
    0.1700000000E+05    0.5362067018E+00    0.9896061951E-01    0.1781963378E+00    0.6346544913E-02    0.4003705534E+00
    0.1900000000E+05    0.5527816344E+00    0.9178755069E-01    0.1795095682E+00    0.5814324401E-02    0.4037023215E+00
    0.2100000000E+05    0.5665751569E+00    0.8575638097E-01    0.1806462881E+00    0.5364649805E-02    0.4066048506E+00
    0.2300000000E+05    0.5781583624E+00    0.8062686602E-01    0.1816430748E+00    0.4981172744E-02    0.4091656078E+00
    0.2500000000E+05    0.5879695058E+00    0.7621827378E-01    0.1825266290E+00    0.4651280966E-02    0.4114486784E+00
    0.2700000000E+05    0.5963473239E+00    0.7239287834E-01    0.1833169755E+00    0.4365163989E-02    0.4135022891E+00
    0.2900000000E+05    0.6035557147E+00    0.6904444181E-01    0.1840294774E+00    0.4115125159E-02    0.4153635560E+00
    0.3100000000E+05    0.6098019770E+00    0.6609006642E-01    0.1846761504E+00    0.3895073775E-02    0.4170615959E+00
    0.3300000000E+05    0.6152503126E+00    0.6346435901E-01    0.1852665503E+00    0.3700148543E-02    0.4186196299E+00
    0.3500000000E+05    0.6200318611E+00    0.6111520216E-01    0.1858083876E+00    0.3526436837E-02    0.4200564454E+00
    0.3700000000E+05    0.6242521994E+00    0.5900065525E-01    0.1863079632E+00    0.3370764002E-02    0.4213874356E+00
    0.3900000000E+05    0.6279969846E+00    0.5708665861E-01    0.1867704850E+00    0.3230534102E-02    0.4226253551E+00
    0.4100000000E+05    0.6313362279E+00    0.5534531505E-01    0.1872003011E+00    0.3103608639E-02    0.4237808786E+00
    0.4300000000E+05    0.6343275586E+00    0.5375359048E-01    0.1876010744E+00    0.2988213483E-02    0.4248630200E+00
    0.4500000000E+05    0.6370187331E+00    0.5229232204E-01    0.1879759163E+00    0.2882866911E-02    0.4258794537E+00
    0.4700000000E+05    0.6394495794E+00    0.5094545405E-01    0.1883274893E+00    0.2786323537E-02    0.4268367612E+00
    0.4900000000E+05    0.6416535148E+00    0.4969944422E-01    0.1886580872E+00    0.2697530311E-02    0.4277406253E+00
    0.1000000000E+05    0.4431363230E+00    0.1389679541E+00    0.1711890965E+00    0.9235221766E-02    0.3829082764E+00
    0.3000000000E+05    0.6067879712E+00    0.6752243776E-01    0.1843603959E+00    0.4001679995E-02    0.4162314094E+00
    0.5000000000E+05    0.6426793798E+00    0.4911059980E-01    0.1888161523E+00    0.2655754806E-02    0.4281740845E+00
    0.7000000000E+05    0.6562432192E+00    0.4058209190E-01    0.1912441553E+00    0.2067433816E-02    0.4349544725E+00
    0.9000000000E+05    0.6629862740E+00    0.3548753679E-01    0.1928198878E+00    0.1735341751E-02    0.4395078200E+00
    0.1100000000E+06    0.6669120697E+00    0.3201003649E-01    0.1939433071E+00    0.1519272385E-02    0.4428531744E+00
    0.1300000000E+06    0.6694422363E+00    0.2943831103E-01    0.1947931596E+00    0.1365689625E-02    0.4454537346E+00
    0.1500000000E+06    0.6711921573E+00    0.2743325106E-01    0.1954629380E+00    0.1249813535E-02    0.4475554288E+00
    0.1700000000E+06    0.6724666481E+00    0.2581068171E-01    0.1960069029E+00    0.1158581334E-02    0.4493029401E+00
    0.1900000000E+06    0.6734321846E+00    0.2446092094E-01    0.1964589773E+00    0.1084431657E-02    0.4507878634E+00
    0.2100000000E+06    0.6741866795E+00    0.2331402691E-01    0.1968415909E+00    0.1022668436E-02    0.4520714757E+00
    0.2300000000E+06    0.6747911658E+00    0.2232298847E-01    0.1971702385E+00    0.9702108792E-03    0.4531965777E+00
    0.2500000000E+06    0.6752855109E+00    0.2145486126E-01    0.1974560081E+00    0.9249474025E-03    0.4541941194E+00
    0.2700000000E+06    0.6756967787E+00    0.2068576419E-01    0.1977070672E+00    0.8853780263E-03    0.4550871286E+00
    0.2900000000E+06    0.6760439430E+00    0.1999789496E-01    0.1979295805E+00    0.8504050839E-03    0.4558931523E+00
    0.3100000000E+06    0.6763406749E+00    0.1937766722E-01    0.1981282973E+00    0.8192049213E-03    0.4566258347E+00
    0.3300000000E+06    0.6765970587E+00    0.1881450246E-01    0.1983069427E+00    0.7911461121E-03    0.4572959724E+00
    0.3500000000E+06    0.6768206867E+00    0.1830002086E-01    0.1984684835E+00    0.7657355559E-03    0.4579122388E+00
    0.3700000000E+06    0.6770173782E+00    0.1782748383E-01    0.1986153153E+00    0.7425819116E-03    0.4584816953E+00
    0.3900000000E+06    0.6771916644E+00    0.1739140068E-01    0.1987493954E+00    0.7213701606E-03    0.4590101589E+00
    0.4100000000E+06    0.6773471238E+00    0.1698724489E-01    0.1988723407E+00    0.7018435142E-03    0.4595024722E+00
    0.4300000000E+06    0.6774866181E+00    0.1661124586E-01    0.1989854992E+00    0.6837902906E-03    0.4599627046E+00
    0.4500000000E+06    0.6776124620E+00    0.1626023311E-01    0.1990900053E+00    0.6670342283E-03    0.4603943049E+00
    0.4700000000E+06    0.6777265469E+00    0.1593151828E-01    0.1991868205E+00    0.6514272214E-03    0.4608002190E+00
    0.4900000000E+06    0.6778304331E+00    0.1562280431E-01    0.1992767659E+00    0.6368437951E-03    0.4611829803E+00
    0.1000000000E+06    0.6651834852E+00    0.3360415349E-01    0.1934240925E+00    0.1617164728E-02    0.4412952599E+00
    0.3000000000E+06    0.6761979138E+00    0.1968004657E-01    0.1980316602E+00    0.8343766386E-03    0.4562679294E+00
    0.5000000000E+06    0.6778789660E+00    0.1547531909E-01    0.1993193869E+00    0.6299018340E-03    0.4613663757E+00
    0.7000000000E+06    0.6785386243E+00    0.1321420707E-01    0.1999398266E+00    0.5254676786E-03    0.4642237237E+00
    0.9000000000E+06    0.6788891601E+00    0.1174252951E-01    0.2003022011E+00    0.4594560419E-03    0.4661346172E+00
    0.1100000000E+07    0.6791064396E+00    0.1068466683E-01    0.2005361949E+00    0.4129396241E-03    0.4675376742E+00
    0.1300000000E+07    0.6792543474E+00    0.9876042605E-02    0.2006967511E+00    0.3779065624E-03    0.4686295494E+00
    0.1500000000E+07    0.6793615898E+00    0.9231440164E-02    0.2008113519E+00    0.3503060899E-03    0.4695137470E+00
    0.1700000000E+07    0.6794429593E+00    0.8701658279E-02    0.2008953303E+00    0.3278408848E-03    0.4702508029E+00
    0.1900000000E+07    0.6795068487E+00    0.8256010219E-02    0.2009579334E+00    0.3090982298E-03    0.4708788839E+00
    0.2100000000E+07    0.6795583730E+00    0.7874218164E-02    0.2010050738E+00    0.2931553686E-03    0.4714234505E+00
    0.2300000000E+07    0.6796008267E+00    0.7542266084E-02    0.2010407077E+00    0.2793807014E-03    0.4719022502E+00
    0.2500000000E+07    0.6796364279E+00    0.7250110504E-02    0.2010675814E+00    0.2673254388E-03    0.4723280990E+00
    0.2700000000E+07    0.6796667248E+00    0.6990338622E-02    0.2010876590E+00    0.2566607768E-03    0.4727105234E+00
    0.2900000000E+07    0.6796928309E+00    0.6757342455E-02    0.2011023808E+00    0.2471395895E-03    0.4730567788E+00
    0.3100000000E+07    0.6797155676E+00    0.6546789583E-02    0.2011128258E+00    0.2385720796E-03    0.4733725054E+00
    0.3300000000E+07    0.6797355543E+00    0.6355272223E-02    0.2011198170E+00    0.2308097491E-03    0.4736621661E+00
    0.3500000000E+07    0.6797532668E+00    0.6180067638E-02    0.2011239922E+00    0.2237345273E-03    0.4739293466E+00
    0.3700000000E+07    0.6797690768E+00    0.6018970387E-02    0.2011258524E+00    0.2172512022E-03    0.4741769672E+00
    0.3900000000E+07    0.6797832790E+00    0.5870172253E-02    0.2011257963E+00    0.2112820325E-03    0.4744074345E+00
    0.4100000000E+07    0.6797961098E+00    0.5732174599E-02    0.2011241441E+00    0.2057628339E-03    0.4746227530E+00
    0.4300000000E+07    0.6798077614E+00    0.5603723285E-02    0.2011211559E+00    0.2006400860E-03    0.4748246083E+00
    0.4500000000E+07    0.6798183914E+00    0.5483759580E-02    0.2011170445E+00    0.1958687592E-03    0.4750144299E+00
    0.4700000000E+07    0.6798281305E+00    0.5371382615E-02    0.2011119857E+00    0.1914106592E-03    0.4751934396E+00
    0.4900000000E+07    0.6798370879E+00    0.5265820311E-02    0.2011061252E+00    0.1872331499E-03    0.4753626891E+00
    0.1000000000E+07    0.6790092082E+00    0.1117484773E-01    0.2004308725E+00    0.4343973038E-03    0.4668841971E+00
    0.3000000000E+07    0.6797045778E+00    0.6649492031E-02    0.2011080814E+00    0.2427467269E-03    0.4732181558E+00
    0.5000000000E+07    0.6798413027E+00    0.5215382888E-02    0.2011029333E+00    0.1852406876E-03    0.4754439433E+00
    0.7000000000E+07    0.6799007737E+00    0.4442127850E-02    0.2010181191E+00    0.1549929369E-03    0.4767251419E+00
    0.9000000000E+07    0.6799344063E+00    0.3939514611E-02    0.2009193485E+00    0.1356531260E-03    0.4776011610E+00
    0.1100000000E+08    0.6799561908E+00    0.3578918928E-02    0.2008213076E+00    0.1219489764E-03    0.4782566459E+00
    0.1300000000E+08    0.6799715300E+00    0.3303795978E-02    0.2007279326E+00    0.1115968591E-03    0.4787752379E+00
    0.1500000000E+08    0.6799829611E+00    0.3084850805E-02    0.2006401219E+00    0.1034269801E-03    0.4792013891E+00
    0.1700000000E+08    0.6799918368E+00    0.2905177425E-02    0.2005578012E+00    0.9677043463E-04    0.4795613357E+00
    0.1900000000E+08    0.6799989461E+00    0.2754240878E-02    0.2004805845E+00    0.9121361580E-04    0.4798717607E+00
    0.2100000000E+08    0.6800047811E+00    0.2625086859E-02    0.2004080090E+00    0.8648532278E-04    0.4801438822E+00
    0.2300000000E+08    0.6800096650E+00    0.2512913732E-02    0.2003396201E+00    0.8239941033E-04    0.4803855793E+00
    0.2500000000E+08    0.6800138194E+00    0.2414284448E-02    0.2002750009E+00    0.7882333964E-04    0.4806025820E+00
    0.2700000000E+08    0.6800174012E+00    0.2326664833E-02    0.2002137801E+00    0.7565985682E-04    0.4807991788E+00
