  Pressure (Pa) 22mC5-400 (mol/kg) 2mC6-400 (mol/kg) 3mC6-400 (mol/kg) 33mC5-400 (mol/kg) C7-400 (mol/kg)
    0.1000000000E+01    0.5292874370E-03    0.5522471769E-02    0.1045772844E-02    0.3854416447E-03    0.6788156242E-02
    0.3000000000E+01    0.1567452182E-02    0.1597994057E-01    0.3025309414E-02    0.1115552869E-02    0.1964061336E-01
    0.5000000000E+01    0.2579534654E-02    0.2572249844E-01    0.4869039132E-02    0.1796053068E-02    0.3161530453E-01
    0.7000000000E+01    0.3566811157E-02    0.3482224678E-01    0.6591195506E-02    0.2431950908E-02    0.4280409782E-01
    0.9000000000E+01    0.4530472350E-02    0.4334164411E-01    0.8204066848E-02    0.3027584204E-02    0.5328631537E-01
    0.1100000000E+02    0.5471630439E-02    0.5133509153E-01    0.9718318851E-02    0.3586730357E-02    0.6313081285E-01
    0.1300000000E+02    0.6391325635E-02    0.5885021291E-01    0.1114325493E-01    0.4112695498E-02    0.7239765807E-01
    0.1500000000E+02    0.7290531998E-02    0.6592889635E-01    0.1248702791E-01    0.4608387002E-02    0.8113949593E-01
    0.1700000000E+02    0.8170162701E-02    0.7260814762E-01    0.1375681342E-01    0.5076372888E-02    0.8940266622E-01
    0.1900000000E+02    0.9031074799E-02    0.7892079410E-01    0.1495895269E-01    0.5518930818E-02    0.9722812492E-01
    0.2100000000E+02    0.9874073557E-02    0.8489606912E-01    0.1609907105E-01    0.5938088748E-02    0.1046522082E+00
    0.2300000000E+02    0.1069991638E-01    0.9056009988E-01    0.1718217676E-01    0.6335658876E-02    0.1117072696E+00
    0.2500000000E+02    0.1150931636E-01    0.9593631708E-01    0.1821274379E-01    0.6713266127E-02    0.1184222145E+00
    0.2700000000E+02    0.1230294558E-01    0.1010458007E+00    0.1919478164E-01    0.7072372202E-02    0.1248229501E+00
    0.2900000000E+02    0.1308143804E-01    0.1059075731E+00    0.2013189453E-01    0.7414295961E-02    0.1309327674E+00
    0.3100000000E+02    0.1384539236E-01    0.1105388490E+00    0.2102733157E-01    0.7740230793E-02    0.1367726649E+00
    0.3300000000E+02    0.1459537430E-01    0.1149552496E+00    0.2188402983E-01    0.8051259480E-02    0.1423616263E+00
    0.3500000000E+02    0.1533191902E-01    0.1191709859E+00    0.2270465113E-01    0.8348366974E-02    0.1477168582E+00
    0.3700000000E+02    0.1605553315E-01    0.1231990175E+00    0.2349161381E-01    0.8632451411E-02    0.1528539948E+00
    0.3900000000E+02    0.1676669672E-01    0.1270511903E+00    0.2424712011E-01    0.8904333656E-02    0.1577872748E+00
    0.4100000000E+02    0.1746586489E-01    0.1307383555E+00    0.2497318004E-01    0.9164765604E-02    0.1625296954E+00
    0.4300000000E+02    0.1815346964E-01    0.1342704742E+00    0.2567163202E-01    0.9414437404E-02    0.1670931454E+00
    0.4500000000E+02    0.1882992119E-01    0.1376567081E+00    0.2634416096E-01    0.9653983797E-02    0.1714885220E+00
    0.4700000000E+02    0.1949560942E-01    0.1409054999E+00    0.2699231413E-01    0.9883989671E-02    0.1757258334E+00
    0.4900000000E+02    0.2015090513E-01    0.1440246438E+00    0.2761751503E-01    0.1010499495E-01    0.1798142880E+00
    0.1000000000E+02    0.5003797653E-02    0.4740098946E-01    0.8972909566E-02    0.3311501417E-02    0.5828433626E-01
    0.3000000000E+02    0.1346519636E-01    0.1082510117E+00    0.2058463211E-01    0.7579191885E-02    0.1338852253E+00
    0.5000000000E+02    0.2047476675E-01    0.1455378714E+00    0.2792192243E-01    0.1021227987E-01    0.1818053727E+00
    0.7000000000E+02    0.2648374412E-01    0.1704874796E+00    0.3307476733E-01    0.1198876275E-01    0.2155572294E+00
    0.9000000000E+02    0.3176699085E-01    0.1881275286E+00    0.3694703007E-01    0.1325689316E-01    0.2409908194E+00
    0.1100000000E+03    0.3650265118E-01    0.2010747749E+00    0.3999669839E-01    0.1419793998E-01    0.2610733742E+00
    0.1300000000E+03    0.4081193448E-01    0.2108337739E+00    0.4248225618E-01    0.1491618054E-01    0.2774812195E+00
    0.1500000000E+03    0.4478060251E-01    0.2183333698E+00    0.4456150119E-01    0.1547604468E-01    0.2912386884E+00
    0.1700000000E+03    0.4847132087E-01    0.2241785143E+00    0.4633670254E-01    0.1591954111E-01    0.3030102726E+00
    0.1900000000E+03    0.5193112934E-01    0.2287800476E+00    0.4787733982E-01    0.1627523648E-01    0.3132478263E+00
    0.2100000000E+03    0.5519615533E-01    0.2324265443E+00    0.4923244961E-01    0.1656322616E-01    0.3222705390E+00
    0.2300000000E+03    0.5829469647E-01    0.2353264050E+00    0.5043774617E-01    0.1679804675E-01    0.3303110855E+00
    0.2500000000E+03    0.6124929943E-01    0.2376336783E+00    0.5151993633E-01    0.1699046334E-01    0.3375436072E+00
    0.2700000000E+03    0.6407819967E-01    0.2394645184E+00    0.5249944474E-01    0.1714860911E-01    0.3441013948E+00
    0.2900000000E+03    0.6679634217E-01    0.2409080191E+00    0.5339219645E-01    0.1727873583E-01    0.3500884600E+00
    0.3100000000E+03    0.6941612015E-01    0.2420335458E+00    0.5421081865E-01    0.1738572211E-01    0.3555873421E+00
    0.3300000000E+03    0.7194791952E-01    0.2428958175E+00    0.5496547235E-01    0.1747342585E-01    0.3606645125E+00
    0.3500000000E+03    0.7440052689E-01    0.2435385050E+00    0.5566444133E-01    0.1754493401E-01    0.3653742043E+00
    0.3700000000E+03    0.7678143985E-01    0.2439968251E+00    0.5631455777E-01    0.1760274285E-01    0.3697611813E+00
    0.3900000000E+03    0.7909710605E-01    0.2442994437E+00    0.5692151547E-01    0.1764889016E-01    0.3738627769E+00
    0.4100000000E+03    0.8135310975E-01    0.2444698910E+00    0.5749010417E-01    0.1768505378E-01    0.3777104198E+00
    0.4300000000E+03    0.8355431904E-01    0.2445276297E+00    0.5802438732E-01    0.1771262602E-01    0.3813307924E+00
    0.4500000000E+03    0.8570500310E-01    0.2444888702E+00    0.5852783888E-01    0.1773277046E-01    0.3847467225E+00
    0.4700000000E+03    0.8780892654E-01    0.2443671997E+00    0.5900344975E-01    0.1774646588E-01    0.3879778775E+00
    0.4900000000E+03    0.8986942604E-01    0.2441740732E+00    0.5945381161E-01    0.1775454054E-01    0.3910413112E+00
    0.1000000000E+03    0.3419467059E-01    0.1950759570E+00    0.3855539950E-01    0.1376055542E-01    0.2515759189E+00
    0.3000000000E+03    0.6811783589E-01    0.2415068140E+00    0.5381008873E-01    0.1733485982E-01    0.3528944440E+00
    0.5000000000E+03    0.9088433313E-01    0.2440538074E+00    0.5967024156E-01    0.1775669454E-01    0.3925148561E+00
    0.7000000000E+03    0.1094789433E+00    0.2396137107E+00    0.6309524572E-01    0.1763031094E-01    0.4159624867E+00
    0.9000000000E+03    0.1257806852E+00    0.2335264278E+00    0.6543830946E-01    0.1734840278E-01    0.4321648449E+00
    0.1100000000E+04    0.1405788578E+00    0.2271380183E+00    0.6718177258E-01    0.1701655469E-01    0.4443245040E+00
    0.1300000000E+04    0.1542848611E+00    0.2208662064E+00    0.6854921818E-01    0.1667117596E-01    0.4539339648E+00
    0.1500000000E+04    0.1671427739E+00    0.2148462850E+00    0.6966131217E-01    0.1632653478E-01    0.4618025014E+00
    0.1700000000E+04    0.1793105313E+00    0.2091144324E+00    0.7059004719E-01    0.1598853625E-01    0.4684149807E+00
    0.1900000000E+04    0.1908969109E+00    0.2036696847E+00    0.7138155745E-01    0.1565957959E-01    0.4740833053E+00
    0.2100000000E+04    0.2019804619E+00    0.1984973076E+00    0.7206703550E-01    0.1534049648E-01    0.4790191064E+00
    0.2300000000E+04    0.2126200618E+00    0.1935781991E+00    0.7266847198E-01    0.1503139471E-01    0.4833720748E+00
    0.2500000000E+04    0.2228612062E+00    0.1888927678E+00    0.7320189917E-01    0.1473204853E-01    0.4872516804E+00
    0.2700000000E+04    0.2327399574E+00    0.1844224900E+00    0.7367933180E-01    0.1444208667E-01    0.4907402007E+00
    0.2900000000E+04    0.2422855318E+00    0.1801504582E+00    0.7410998361E-01    0.1416108505E-01    0.4939009074E+00
    0.3100000000E+04    0.2515220540E+00    0.1760614867E+00    0.7450105981E-01    0.1388861252E-01    0.4967834109E+00
    0.3300000000E+04    0.2604697839E+00    0.1721420304E+00    0.7485829053E-01    0.1362425273E-01    0.4994272654E+00
    0.3500000000E+04    0.2691459946E+00    0.1683800309E+00    0.7518629988E-01    0.1336761393E-01    0.5018644686E+00
    0.3700000000E+04    0.2775656149E+00    0.1647647460E+00    0.7548886761E-01    0.1311833226E-01    0.5041212375E+00
    0.3900000000E+04    0.2857417083E+00    0.1612865833E+00    0.7576911863E-01    0.1287607189E-01    0.5062192964E+00
    0.4100000000E+04    0.2936858357E+00    0.1579369499E+00    0.7602966270E-01    0.1264052358E-01    0.5081768286E+00
    0.4300000000E+04    0.3014083331E+00    0.1547081196E+00    0.7627269925E-01    0.1241140253E-01    0.5100091916E+00
    0.4500000000E+04    0.3089185288E+00    0.1515931182E+00    0.7650009715E-01    0.1218844605E-01    0.5117294620E+00
    0.4700000000E+04    0.3162249124E+00    0.1485856250E+00    0.7671345623E-01    0.1197141120E-01    0.5133488571E+00
    0.4900000000E+04    0.3233352703E+00    0.1456798885E+00    0.7691415534E-01    0.1176007267E-01    0.5148770641E+00
    0.1000000000E+04    0.1333366122E+00    0.2303333935E+00    0.6636758505E-01    0.1718564921E-01    0.4386339804E+00
    0.3000000000E+04    0.2469410792E+00    0.1780839733E+00    0.7431008091E-01    0.1402380917E-01    0.4953742603E+00
    0.5000000000E+04    0.3268192075E+00    0.1442635195E+00    0.7701013736E-01    0.1165647343E-01    0.5156096460E+00
    0.7000000000E+04    0.3877220063E+00    0.1202074356E+00    0.7848652026E-01    0.9839132235E-02    0.5270379473E+00
    0.9000000000E+04    0.4350415643E+00    0.1022848065E+00    0.7944684065E-01    0.8415376163E-02    0.5346665286E+00
    0.1100000000E+05    0.4722106435E+00    0.8857021111E-01    0.8013267709E-01    0.7286382678E-02    0.5402366655E+00
    0.1300000000E+05    0.5017090214E+00    0.7786330874E-01    0.8065224959E-01    0.6381518293E-02    0.5445404698E+00
    0.1500000000E+05    0.5253721460E+00    0.6935959581E-01    0.8106225719E-01    0.5648483610E-02    0.5479985016E+00
    0.1700000000E+05    0.5445633952E+00    0.6250010067E-01    0.8139564730E-01    0.5048215425E-02    0.5508580056E+00
    0.1900000000E+05    0.5602975528E+00    0.5688767321E-01    0.8167303762E-01    0.4551423471E-02    0.5532753001E+00
    0.2100000000E+05    0.5733331624E+00    0.5223523988E-01    0.8190807095E-01    0.4136041873E-02    0.5553547747E+00
    0.2300000000E+05    0.5842409424E+00    0.4833213251E-01    0.8211017775E-01    0.3785340264E-02    0.5571691884E+00
    0.2500000000E+05    0.5934537923E+00    0.4502156252E-01    0.8228610985E-01    0.3486534316E-02    0.5587710312E+00
    0.2700000000E+05    0.6013030557E+00    0.4218527536E-01    0.8244084313E-01    0.3229769956E-02    0.5601992599E+00
    0.2900000000E+05    0.6080447560E+00    0.3973294352E-01    0.8257813455E-01    0.3007382340E-02    0.5614834831E+00
    0.3100000000E+05    0.6138786153E+00    0.3759473830E-01    0.8270087977E-01    0.2813354375E-02    0.5626466653E+00
    0.3300000000E+05    0.6189619062E+00    0.3571606240E-01    0.8281135055E-01    0.2642919368E-02    0.5637069311E+00
    0.3500000000E+05    0.6234196086E+00    0.3405376928E-01    0.8291135690E-01    0.2492267663E-02    0.5646788045E+00
    0.3700000000E+05    0.6273519134E+00    0.3257341769E-01    0.8300236062E-01    0.2358328484E-02    0.5655740809E+00
    0.3900000000E+05    0.6308398121E+00    0.3124725505E-01    0.8308555654E-01    0.2238606432E-02    0.5664024539E+00
    0.4100000000E+05    0.6339492973E+00    0.3005272010E-01    0.8316193178E-01    0.2131057939E-02    0.5671719742E+00
    0.4300000000E+05    0.6367345448E+00    0.2897131930E-01    0.8323230976E-01    0.2033997151E-02    0.5678893923E+00
    0.4500000000E+05    0.6392403464E+00    0.2798777526E-01    0.8329738330E-01    0.1946023628E-02    0.5685604167E+00
    0.4700000000E+05    0.6415039836E+00    0.2708937512E-01    0.8335773996E-01    0.1865966381E-02    0.5691899128E+00
    0.4900000000E+05    0.6435566839E+00    0.2626546752E-01    0.8341388161E-01    0.1792840188E-02    0.5697820567E+00
    0.1000000000E+05    0.4547223039E+00    0.9498830536E-01    0.7981557093E-01    0.7818956129E-02    0.5376469405E+00
    0.3000000000E+05    0.6110644755E+00    0.3862829412E-01    0.8264117101E-01    0.2907146761E-02    0.5620789748E+00
    0.5000000000E+05    0.6445123216E+00    0.2587858532E-01    0.8344050905E-01    0.1758610549E-02    0.5700652684E+00
    0.7000000000E+05    0.6571697395E+00    0.2047056461E-01    0.8383047201E-01    0.1290435779E-02    0.5744323873E+00
    0.9000000000E+05    0.6634943950E+00    0.1743356571E-01    0.8406139507E-01    0.1040409898E-02    0.5773000475E+00
    0.1100000000E+06    0.6671970462E+00    0.1545116502E-01    0.8421282337E-01    0.8848849092E-03    0.5793744883E+00
    0.1300000000E+06    0.6695960235E+00    0.1403324932E-01    0.8431854929E-01    0.7783479979E-03    0.5809684496E+00
    0.1500000000E+06    0.6712633167E+00    0.1295577640E-01    0.8439552378E-01    0.7004027957E-03    0.5822448883E+00
    0.1700000000E+06    0.6724830651E+00    0.1210131919E-01    0.8445323249E-01    0.6406047473E-03    0.5832982997E+00
    0.1900000000E+06    0.6734109225E+00    0.1140203390E-01    0.8449741380E-01    0.5930645855E-03    0.5841878154E+00
    0.2100000000E+06    0.6741387113E+00    0.1081576809E-01    0.8453174853E-01    0.5542108138E-03    0.5849526152E+00
    0.2300000000E+06    0.6747238345E+00    0.1031481795E-01    0.8455870808E-01    0.5217506826E-03    0.5856198427E+00
    0.2500000000E+06    0.6752038924E+00    0.9880144446E-02    0.8458001380E-01    0.4941435557E-03    0.5862089879E+00
    0.2700000000E+06    0.6756044777E+00    0.9498179978E-02    0.8459690124E-01    0.4703146984E-03    0.5867344623E+00
    0.2900000000E+06    0.6759435777E+00    0.9158961477E-02    0.8461027986E-01    0.4494906143E-03    0.5872071875E+00
    0.3100000000E+06    0.6762341838E+00    0.8854985953E-02    0.8462083353E-01    0.4310997154E-03    0.5876356144E+00
    0.3300000000E+06    0.6764859008E+00    0.8580480444E-02    0.8462908599E-01    0.4147099587E-03    0.5880264001E+00
    0.3500000000E+06    0.6767059758E+00    0.8330920230E-02    0.8463544478E-01    0.3999883242E-03    0.5883848715E+00
    0.3700000000E+06    0.6768999746E+00    0.8102701462E-02    0.8464023145E-01    0.3866736947E-03    0.5887153493E+00
    0.3900000000E+06    0.6770722399E+00    0.7892912967E-02    0.8464370288E-01    0.3745582261E-03    0.5890213808E+00
    0.4100000000E+06    0.6772262075E+00    0.7699173609E-02    0.8464606650E-01    0.3634742563E-03    0.5893059096E+00
    0.4300000000E+06    0.6773646302E+00    0.7519514039E-02    0.8464749146E-01    0.3532849154E-03    0.5895714025E+00
    0.4500000000E+06    0.6774897383E+00    0.7352289204E-02    0.8464811694E-01    0.3438772696E-03    0.5898199441E+00
    0.4700000000E+06    0.6776033573E+00    0.7196112580E-02    0.8464805834E-01    0.3351572314E-03    0.5900533107E+00
    0.4900000000E+06    0.6777069956E+00    0.7049806024E-02    0.8464741205E-01    0.3270457255E-03    0.5902730262E+00
    0.1000000000E+06    0.6655642434E+00    0.1635062509E-01    0.8414435847E-01    0.9545740817E-03    0.5784118117E+00
    0.3000000000E+06    0.6760942770E+00    0.9002963125E-02    0.8461587392E-01    0.4400207340E-03    0.5874264864E+00
    0.5000000000E+06    0.6777554730E+00    0.6980033117E-02    0.8464689436E-01    0.3231968312E-03    0.5903781832E+00
    0.7000000000E+06    0.6784188676E+00    0.5919818175E-02    0.8461986125E-01    0.2662207017E-03    0.5920067777E+00
    0.9000000000E+06    0.6787757693E+00    0.5238596786E-02    0.8457911948E-01    0.2310517794E-03    0.5930856703E+00
    0.1100000000E+07    0.6789991576E+00    0.4752821497E-02    0.8453550174E-01    0.2066299243E-03    0.5938725954E+00
    0.1300000000E+07    0.6791524663E+00    0.4383551936E-02    0.8449241085E-01    0.1884206437E-03    0.5944819081E+00
    0.1500000000E+07    0.6792644126E+00    0.4090399910E-02    0.8445099694E-01    0.1741796255E-03    0.5949733439E+00
    0.1700000000E+07    0.6793498864E+00    0.3850243978E-02    0.8441160609E-01    0.1626534250E-03    0.5953816362E+00
    0.1900000000E+07    0.6794173814E+00    0.3648755497E-02    0.8437427260E-01    0.1530801646E-03    0.5957285807E+00
    0.2100000000E+07    0.6794720982E+00    0.3476513767E-02    0.8433890799E-01    0.1449667395E-03    0.5960286591E+00
    0.2300000000E+07    0.6795174011E+00    0.3327033871E-02    0.8430537926E-01    0.1379781281E-03    0.5962919322E+00
    0.2500000000E+07    0.6795555637E+00    0.3195684763E-02    0.8427354261E-01    0.1318777356E-03    0.5965256439E+00
    0.2700000000E+07    0.6795881788E+00    0.3079058309E-02    0.8424325798E-01    0.1264931166E-03    0.5967351648E+00
    0.2900000000E+07    0.6796163956E+00    0.2974582613E-02    0.8421439497E-01    0.1216952365E-03    0.5969245757E+00
    0.3100000000E+07    0.6796410645E+00    0.2880275115E-02    0.8418683477E-01    0.1173853741E-03    0.5970970423E+00
    0.3300000000E+07    0.6796628287E+00    0.2794579395E-02    0.8416047032E-01    0.1134865495E-03    0.5972550648E+00
    0.3500000000E+07    0.6796821838E+00    0.2716254054E-02    0.8413520560E-01    0.1099377380E-03    0.5974006485E+00
    0.3700000000E+07    0.6796995177E+00    0.2644295108E-02    0.8411095464E-01    0.1066898597E-03    0.5975354241E+00
    0.3900000000E+07    0.6797151388E+00    0.2577880562E-02    0.8408764046E-01    0.1037029362E-03    0.5976607332E+00
    0.4100000000E+07    0.6797292952E+00    0.2516330022E-02    0.8406519404E-01    0.1009440316E-03    0.5977776921E+00
    0.4300000000E+07    0.6797421890E+00    0.2459074768E-02    0.8404355342E-01    0.9838573609E-04    0.5978872379E+00
    0.4500000000E+07    0.6797539864E+00    0.2405635213E-02    0.8402266277E-01    0.9600502935E-04    0.5979901646E+00
    0.4700000000E+07    0.6797648253E+00    0.2355603686E-02    0.8400247174E-01    0.9378241768E-04    0.5980871502E+00
    0.4900000000E+07    0.6797748212E+00    0.2308631125E-02    0.8398293476E-01    0.9170126924E-04    0.5981787773E+00
    0.1000000000E+07    0.6788989516E+00    0.4977526225E-02    0.8455737504E-01    0.2178600116E-03    0.5935066364E+00
    0.3000000000E+07    0.6796291293E+00    0.2926263602E-02    0.8420045898E-01    0.1194845455E-03    0.5970127575E+00
    0.5000000000E+07    0.6797795342E+00    0.2286196287E-02    0.8397339847E-01    0.9070919901E-04    0.5982227418E+00
    0.7000000000E+07    0.6798467932E+00    0.1942939073E-02    0.8380875249E-01    0.7569004569E-04    0.5989138642E+00
    0.9000000000E+07    0.6798856435E+00    0.1720520229E-02    0.8367931810E-01    0.6612708840E-04    0.5993841250E+00
    0.1100000000E+08    0.6799112508E+00    0.1561289444E-02    0.8357251094E-01    0.5936930253E-04    0.5997347679E+00
    0.1300000000E+08    0.6799295542E+00    0.1439996063E-02    0.8348149682E-01    0.5427457602E-04    0.6000114293E+00
    0.1500000000E+08    0.6799433755E+00    0.1343591861E-02    0.8340214695E-01    0.5025996378E-04    0.6002382748E+00
    0.1700000000E+08    0.6799542347E+00    0.1264561519E-02    0.8333177320E-01    0.4699301078E-04    0.6004295262E+00
    0.1900000000E+08    0.6799630265E+00    0.1198229192E-02    0.8326852586E-01    0.4426857116E-04    0.6005942052E+00
    0.2100000000E+08    0.6799703136E+00    0.1141512267E-02    0.8321107681E-01    0.4195235488E-04    0.6007383661E+00
    0.2300000000E+08    0.6799764686E+00    0.1092284664E-02    0.8315843961E-01    0.3995231611E-04    0.6008662537E+00
    0.2500000000E+08    0.6799817484E+00    0.1049025958E-02    0.8310986125E-01    0.3820299351E-04    0.6009809503E+00
    0.2700000000E+08    0.6799863364E+00    0.1010616051E-02    0.8306475360E-01    0.3665640188E-04    0.6010847595E+00
