  Pressure (Pa) 22mC5-400 (mol/kg) 2mC6-400 (mol/kg) 3mC6-400 (mol/kg) 33mC5-400 (mol/kg) C7-400 (mol/kg)
    0.1000000000E+01    0.5293214563E-03    0.5527266072E-02    0.2093682565E-02    0.3214771512E-03    0.5096293478E-02
    0.3000000000E+01    0.1567748158E-02    0.1601991247E-01    0.6068494703E-02    0.9319256728E-03    0.1477376595E-01
    0.5000000000E+01    0.2580329945E-02    0.2582564728E-01    0.9784360287E-02    0.1502639138E-02    0.2382361103E-01
    0.7000000000E+01    0.3568319934E-02    0.3501055543E-01    0.1326715904E-01    0.2037443802E-02    0.3230846871E-01
    0.9000000000E+01    0.4532887915E-02    0.4363229262E-01    0.1653939102E-01    0.2539677211E-02    0.4028280461E-01
    0.1100000000E+02    0.5475127281E-02    0.5174140910E-01    0.1962071309E-01    0.3012265045E-02    0.4779420685E-01
    0.1300000000E+02    0.6396061270E-02    0.5938242949E-01    0.2252837613E-01    0.3457783772E-02    0.5488444327E-01
    0.1500000000E+02    0.7296648602E-02    0.6659473961E-01    0.2527758388E-01    0.3878512113E-02    0.6159032900E-01
    0.1700000000E+02    0.8177788572E-02    0.7341331980E-01    0.2788178928E-01    0.4276473572E-02    0.6794444315E-01
    0.1900000000E+02    0.9040325671E-02    0.7986935481E-01    0.3035294075E-01    0.4653471815E-02    0.7397572419E-01
    0.2100000000E+02    0.9885053771E-02    0.8599074411E-01    0.3270168781E-01    0.5011120259E-02    0.7970996751E-01
    0.2300000000E+02    0.1071271994E-01    0.9180253108E-01    0.3493755400E-01    0.5350866959E-02    0.8517024337E-01
    0.2500000000E+02    0.1152402788E-01    0.9732726597E-01    0.3706908260E-01    0.5674015642E-02    0.9037724962E-01
    0.2700000000E+02    0.1231964114E-01    0.1025853142E+00    0.3910396046E-01    0.5981743579E-02    0.9534961104E-01
    0.2900000000E+02    0.1310018594E-01    0.1075951193E+00    0.4104912330E-01    0.6275116831E-02    0.1001041342E+00
    0.3100000000E+02    0.1386625385E-01    0.1123734288E+00    0.4291084591E-01    0.6555103315E-02    0.1046560256E+00
    0.3300000000E+02    0.1461840417E-01    0.1169354882E+00    0.4469481956E-01    0.6822584050E-02    0.1090190789E+00
    0.3500000000E+02    0.1535716619E-01    0.1212952084E+00    0.4640621878E-01    0.7078362872E-02    0.1132058370E+00
    0.3700000000E+02    0.1608304118E-01    0.1254653115E+00    0.4804975915E-01    0.7323174856E-02    0.1172277309E+00
    0.3900000000E+02    0.1679650425E-01    0.1294574575E+00    0.4962974745E-01    0.7557693644E-02    0.1210952020E+00
    0.4100000000E+02    0.1749800614E-01    0.1332823543E+00    0.5115012536E-01    0.7782537849E-02    0.1248178074E+00
    0.4300000000E+02    0.1818797469E-01    0.1369498551E+00    0.5261450771E-01    0.7998276659E-02    0.1284043126E+00
    0.4500000000E+02    0.1886681642E-01    0.1404690433E+00    0.5402621588E-01    0.8205434760E-02    0.1318627723E+00
    0.4700000000E+02    0.1953491777E-01    0.1438483074E+00    0.5538830731E-01    0.8404496678E-02    0.1352006018E+00
    0.4900000000E+02    0.2019264644E-01    0.1470954073E+00    0.5670360141E-01    0.8595910613E-02    0.1384246397E+00
    0.1000000000E+02    0.5006733147E-02    0.4774801566E-01    0.1810278577E-01    0.2779508262E-02    0.4409363652E-01
    0.3000000000E+02    0.1348499382E-01    0.1100122250E+00    0.4199004609E-01    0.6416726439E-02    0.1024045156E+00
    0.5000000000E+02    0.2051773106E-01    0.1486716634E+00    0.5734452115E-01    0.8688880562E-02    0.1399959801E+00
    0.7000000000E+02    0.2655163397E-01    0.1747516142E+00    0.6824367173E-01    0.1023301028E-01    0.1667531411E+00
    0.9000000000E+02    0.3185970969E-01    0.1933001569E+00    0.7649522810E-01    0.1134065368E-01    0.1870629402E+00
    0.1100000000E+03    0.3661934803E-01    0.2069798568E+00    0.8303005324E-01    0.1216558603E-01    0.2031865304E+00
    0.1300000000E+03    0.4095148208E-01    0.2173351260E+00    0.8837949361E-01    0.1279704074E-01    0.2164157958E+00
    0.1500000000E+03    0.4494181132E-01    0.2253253674E+00    0.9287064626E-01    0.1329048869E-01    0.2275467345E+00
    0.1700000000E+03    0.4865303439E-01    0.2315783529E+00    0.9671686903E-01    0.1368225975E-01    0.2370990126E+00
    0.1900000000E+03    0.5213226412E-01    0.2365219790E+00    0.1000638511E+00    0.1399714421E-01    0.2454277818E+00
    0.2100000000E+03    0.5541571469E-01    0.2404576951E+00    0.1030148394E+00    0.1425262891E-01    0.2527849420E+00
    0.2300000000E+03    0.5853177171E-01    0.2436037438E+00    0.1056452869E+00    0.1446139208E-01    0.2593547325E+00
    0.2500000000E+03    0.6150306534E-01    0.2461217976E+00    0.1080117787E+00    0.1463284043E-01    0.2652754326E+00
    0.2700000000E+03    0.6434790775E-01    0.2481339924E+00    0.1101576953E+00    0.1477409249E-01    0.2706531369E+00
    0.2900000000E+03    0.6708131315E-01    0.2497341715E+00    0.1121169325E+00    0.1489062797E-01    0.2755708070E+00
    0.3100000000E+03    0.6971573665E-01    0.2509955141E+00    0.1139164166E+00    0.1498672841E-01    0.2800943969E+00
    0.3300000000E+03    0.7226161929E-01    0.2519758329E+00    0.1155778510E+00    0.1506578351E-01    0.2842771069E+00
    0.3500000000E+03    0.7472779663E-01    0.2527213321E+00    0.1171189556E+00    0.1513050840E-01    0.2881624045E+00
    0.3700000000E+03    0.7712180973E-01    0.2532693209E+00    0.1185543650E+00    0.1518310082E-01    0.2917862144E+00
    0.3900000000E+03    0.7945014491E-01    0.2536502070E+00    0.1198962901E+00    0.1522535647E-01    0.2951785336E+00
    0.4100000000E+03    0.8171842085E-01    0.2538889818E+00    0.1211550148E+00    0.1525875515E-01    0.2983646419E+00
    0.4300000000E+03    0.8393153633E-01    0.2540063412E+00    0.1223392728E+00    0.1528452576E-01    0.3013660234E+00
    0.4500000000E+03    0.8609378797E-01    0.2540195434E+00    0.1234565379E+00    0.1530369614E-01    0.3042010756E+00
    0.4700000000E+03    0.8820896500E-01    0.2539430710E+00    0.1245132509E+00    0.1531713150E-01    0.3068856630E+00
    0.4900000000E+03    0.9028042617E-01    0.2537891479E+00    0.1255149976E+00    0.1532556452E-01    0.3094335531E+00
    0.1000000000E+03    0.3429950916E-01    0.2006341020E+00    0.7993769312E-01    0.1178184371E-01    0.1955519051E+00
    0.3000000000E+03    0.6841020321E-01    0.2504032740E+00    0.1130351813E+00    0.1494100271E-01    0.2778782783E+00
    0.5000000000E+03    0.9130071094E-01    0.2536864468E+00    0.1259968058E+00    0.1532810381E-01    0.3106600527E+00
    0.7000000000E+03    0.1099914653E+00    0.2494042686E+00    0.1336588004E+00    0.1522759656E-01    0.3302643280E+00
    0.9000000000E+03    0.1263742121E+00    0.2432785246E+00    0.1389460686E+00    0.1498757058E-01    0.3439179280E+00
    0.1100000000E+04    0.1412437014E+00    0.2367724000E+00    0.1429083867E+00    0.1470219919E-01    0.3542302563E+00
    0.1300000000E+04    0.1550140931E+00    0.2303490971E+00    0.1460350049E+00    0.1440414072E-01    0.3624235555E+00
    0.1500000000E+04    0.1679310351E+00    0.2241641303E+00    0.1485912140E+00    0.1410627346E-01    0.3691634820E+00
    0.1700000000E+04    0.1801534329E+00    0.2182634394E+00    0.1507359669E+00    0.1381397090E-01    0.3748504369E+00
    0.1900000000E+04    0.1917907045E+00    0.2126509955E+00    0.1525715199E+00    0.1352944536E-01    0.3797429200E+00
    0.2100000000E+04    0.2029218444E+00    0.2073145980E+00    0.1541672592E+00    0.1325348785E-01    0.3840169109E+00
    0.2300000000E+04    0.2136060541E+00    0.2022364181E+00    0.1555722648E+00    0.1298622827E-01    0.3877972666E+00
    0.2500000000E+04    0.2238890744E+00    0.1973974510E+00    0.1568224293E+00    0.1272748873E-01    0.3911755565E+00
    0.2700000000E+04    0.2338071600E+00    0.1927793766E+00    0.1579447290E+00    0.1247695457E-01    0.3942207878E+00
    0.2900000000E+04    0.2433896832E+00    0.1883652758E+00    0.1589599076E+00    0.1223425929E-01    0.3969861593E+00
    0.3100000000E+04    0.2526608994E+00    0.1841398315E+00    0.1598842285E+00    0.1199902680E-01    0.3995134811E+00
    0.3300000000E+04    0.2616411809E+00    0.1800893020E+00    0.1607306569E+00    0.1177089196E-01    0.4018361617E+00
    0.3500000000E+04    0.2703478998E+00    0.1762014007E+00    0.1615096794E+00    0.1154950995E-01    0.4039812832E+00
    0.3700000000E+04    0.2787960741E+00    0.1724651441E+00    0.1622298866E+00    0.1133455974E-01    0.4059710788E+00
    0.3900000000E+04    0.2869988494E+00    0.1688706969E+00    0.1628983954E+00    0.1112574450E-01    0.4078240059E+00
    0.4100000000E+04    0.2949678625E+00    0.1654092288E+00    0.1635211612E+00    0.1092279059E-01    0.4095555406E+00
    0.4300000000E+04    0.3027135217E+00    0.1620727853E+00    0.1641032126E+00    0.1072544577E-01    0.4111787760E+00
    0.4500000000E+04    0.3102452235E+00    0.1588541745E+00    0.1646488299E+00    0.1053347727E-01    0.4127048786E+00
    0.4700000000E+04    0.3175715233E+00    0.1557468697E+00    0.1651616840E+00    0.1034666979E-01    0.4141434418E+00
    0.4900000000E+04    0.3247002708E+00    0.1527449255E+00    0.1656449436E+00    0.1016482361E-01    0.4155027623E+00
    0.1000000000E+04    0.1339667973E+00    0.2400328162E+00    0.1410548107E+00    0.1484780144E-01    0.3493968536E+00
    0.3000000000E+04    0.2480628521E+00    0.1862298662E+00    0.1594325486E+00    0.1211573342E-01    0.3982773193E+00
    0.5000000000E+04    0.3281928495E+00    0.1512817466E+00    0.1658763499E+00    0.1007570244E-01    0.4161549997E+00
    0.7000000000E+04    0.3892023835E+00    0.1264400409E+00    0.1694618135E+00    0.8514428489E-02    0.4263842378E+00
    0.9000000000E+04    0.4365361256E+00    0.1079426039E+00    0.1718240634E+00    0.7293743922E-02    0.4332741290E+00
    0.1100000000E+05    0.4736651661E+00    0.9379062663E-01    0.1735287658E+00    0.6327020439E-02    0.4383399950E+00
    0.1300000000E+05    0.5030950901E+00    0.8273988602E-01    0.1748317827E+00    0.5552799355E-02    0.4422765734E+00
    0.1500000000E+05    0.5266774108E+00    0.7395824041E-01    0.1758682041E+00    0.4925826996E-02    0.4454549550E+00
    0.1700000000E+05    0.5457848874E+00    0.6686866558E-01    0.1767170399E+00    0.4412440138E-02    0.4480943813E+00
    0.1900000000E+05    0.5614374462E+00    0.6106186476E-01    0.1774280103E+00    0.3987474031E-02    0.4503340500E+00
    0.2100000000E+05    0.5743962176E+00    0.5624237030E-01    0.1780341795E+00    0.3632014349E-02    0.4522672611E+00
    0.2300000000E+05    0.5852330231E+00    0.5219356669E-01    0.1785585051E+00    0.3331745494E-02    0.4539592594E+00
    0.2500000000E+05    0.5943810358E+00    0.4875435196E-01    0.1790174916E+00    0.3075743166E-02    0.4554572547E+00
    0.2700000000E+05    0.6021714301E+00    0.4580327427E-01    0.1794233479E+00    0.2855595735E-02    0.4567963818E+00
    0.2900000000E+05    0.6088598420E+00    0.4324758790E-01    0.1797853249E+00    0.2664765485E-02    0.4580034119E+00
    0.3100000000E+05    0.6146455150E+00    0.4101560113E-01    0.1801105760E+00    0.2498123153E-02    0.4590991579E+00
    0.3300000000E+05    0.6196852230E+00    0.3905125686E-01    0.1804047310E+00    0.2351607087E-02    0.4601000822E+00
    0.3500000000E+05    0.6241034637E+00    0.3731024714E-01    0.1806722886E+00    0.2221972038E-02    0.4610194043E+00
    0.3700000000E+05    0.6279999801E+00    0.3575719368E-01    0.1809168920E+00    0.2106602620E-02    0.4618678808E+00
    0.3900000000E+05    0.6314553578E+00    0.3436357838E-01    0.1811415275E+00    0.2003373658E-02    0.4626543677E+00
    0.4100000000E+05    0.6345352263E+00    0.3310620740E-01    0.1813486682E+00    0.1910544765E-02    0.4633862332E+00
    0.4300000000E+05    0.6372934399E+00    0.3196605903E-01    0.1815403824E+00    0.1826680095E-02    0.4640696652E+00
    0.4500000000E+05    0.6397745068E+00    0.3092741074E-01    0.1817184145E+00    0.1750586733E-02    0.4647099049E+00
    0.4700000000E+05    0.6420154594E+00    0.2997717131E-01    0.1818842471E+00    0.1681267029E-02    0.4653114259E+00
    0.4900000000E+05    0.6440473063E+00    0.2910436529E-01    0.1820391497E+00    0.1617881417E-02    0.4658780736E+00
    0.1000000000E+05    0.4562017449E+00    0.1004134661E+00    0.1727385617E+00    0.6782928797E-02    0.4359808198E+00
    0.3000000000E+05    0.6118548618E+00    0.4209495039E-01    0.1799521589E+00    0.2578696393E-02    0.4585640794E+00
    0.5000000000E+05    0.6449931430E+00    0.2869404779E-01    0.1821128501E+00    0.1588187434E-02    0.4661493772E+00
    0.7000000000E+05    0.6575149511E+00    0.2292029429E-01    0.1832132890E+00    0.1180076701E-02    0.4703581559E+00
    0.9000000000E+05    0.6637673952E+00    0.1963823727E-01    0.1838913334E+00    0.9599643764E-03    0.4731509376E+00
    0.1100000000E+06    0.6674260448E+00    0.1747601546E-01    0.1843537092E+00    0.8218684830E-03    0.4751881499E+00
    0.1300000000E+06    0.6697956095E+00    0.1591849938E-01    0.1846896671E+00    0.7265737361E-03    0.4767645454E+00
    0.1500000000E+06    0.6714418946E+00    0.1472838037E-01    0.1849446230E+00    0.6564135280E-03    0.4780346616E+00
    0.1700000000E+06    0.6726458784E+00    0.1378042268E-01    0.1851443293E+00    0.6022955195E-03    0.4790885760E+00
    0.1900000000E+06    0.6735614486E+00    0.1300183468E-01    0.1853045610E+00    0.5590685231E-03    0.4799829083E+00
    0.2100000000E+06    0.6742793695E+00    0.1234715098E-01    0.1854355586E+00    0.5235947506E-03    0.4807553228E+00
    0.2300000000E+06    0.6748563742E+00    0.1178635209E-01    0.1855442787E+00    0.4938515272E-03    0.4814320065E+00
    0.2500000000E+06    0.6753296195E+00    0.1129872354E-01    0.1856356218E+00    0.4684744574E-03    0.4820318236E+00
    0.2700000000E+06    0.6757243931E+00    0.1086945065E-01    0.1857131454E+00    0.4465083390E-03    0.4825687652E+00
    0.2900000000E+06    0.6760584659E+00    0.1048761989E-01    0.1857794971E+00    0.4272634122E-03    0.4830534636E+00
    0.3100000000E+06    0.6763446716E+00    0.1014498908E-01    0.1858366899E+00    0.4102283857E-03    0.4834941675E+00
    0.3300000000E+06    0.6765924975E+00    0.9835200381E-02    0.1858862827E+00    0.3950156747E-03    0.4838973908E+00
    0.3500000000E+06    0.6768091008E+00    0.9553259222E-02    0.1859295018E+00    0.3813257216E-03    0.4842683577E+00
    0.3700000000E+06    0.6769999782E+00    0.9295179302E-02    0.1859673255E+00    0.3689230538E-03    0.4846113152E+00
    0.3900000000E+06    0.6771694177E+00    0.9057734468E-02    0.1860005442E+00    0.3576197979E-03    0.4849297572E+00
    0.4100000000E+06    0.6773208117E+00    0.8838281439E-02    0.1860298031E+00    0.3472640661E-03    0.4852265891E+00
    0.4300000000E+06    0.6774568774E+00    0.8634630650E-02    0.1860556345E+00    0.3377316084E-03    0.4855042500E+00
    0.4500000000E+06    0.6775798166E+00    0.8444950477E-02    0.1860784813E+00    0.3289197038E-03    0.4857648053E+00
    0.4700000000E+06    0.6776914310E+00    0.8267695116E-02    0.1860987150E+00    0.3207426161E-03    0.4860100178E+00
    0.4900000000E+06    0.6777932092E+00    0.8101549491E-02    0.1861166496E+00    0.3131281639E-03    0.4862414025E+00
    0.1000000000E+06    0.6658128294E+00    0.1845918979E-01    0.1841424101E+00    0.8838819091E-03    0.4742408395E+00
    0.3000000000E+06    0.6762068948E+00    0.1031183892E-01    0.1858091319E+00    0.4184962958E-03    0.4832788731E+00
    0.5000000000E+06    0.6778408054E+00    0.8022284268E-02    0.1861248398E+00    0.3095124174E-03    0.4863523260E+00
    0.7000000000E+06    0.6784912274E+00    0.6815449879E-02    0.1862157155E+00    0.2557842847E-03    0.4880866642E+00
    0.9000000000E+06    0.6788401311E+00    0.6037791957E-02    0.1862326229E+00    0.2224322439E-03    0.4892551316E+00
    0.1100000000E+07    0.6790579282E+00    0.5482253429E-02    0.1862185212E+00    0.1991900999E-03    0.4901191344E+00
    0.1300000000E+07    0.6792070284E+00    0.5059420776E-02    0.1861898494E+00    0.1818180521E-03    0.4907959374E+00
    0.1500000000E+07    0.6793156490E+00    0.4723427939E-02    0.1861540178E+00    0.1682072780E-03    0.4913473567E+00
    0.1700000000E+07    0.6793984030E+00    0.4447968908E-02    0.1861147280E+00    0.1571757769E-03    0.4918096197E+00
    0.1900000000E+07    0.6794636159E+00    0.4216718754E-02    0.1860739582E+00    0.1480031284E-03    0.4922056189E+00
    0.2100000000E+07    0.6795163796E+00    0.4018932452E-02    0.1860328122E+00    0.1402220491E-03    0.4925506614E+00
    0.2300000000E+07    0.6795599844E+00    0.3847206816E-02    0.1859919218E+00    0.1335145003E-03    0.4928554424E+00
    0.2500000000E+07    0.6795966516E+00    0.3696251076E-02    0.1859516507E+00    0.1276555513E-03    0.4931277039E+00
    0.2700000000E+07    0.6796279355E+00    0.3562169093E-02    0.1859122053E+00    0.1224810548E-03    0.4933732141E+00
    0.2900000000E+07    0.6796549565E+00    0.3442019075E-02    0.1858736968E+00    0.1178680540E-03    0.4935963764E+00
    0.3100000000E+07    0.6796785430E+00    0.3333532221E-02    0.1858361780E+00    0.1137223905E-03    0.4938006215E+00
    0.3300000000E+07    0.6796993209E+00    0.3234926623E-02    0.1857996655E+00    0.1099705825E-03    0.4939886700E+00
    0.3500000000E+07    0.6797177719E+00    0.3144780482E-02    0.1857641531E+00    0.1065543359E-03    0.4941627127E+00
    0.3700000000E+07    0.6797342728E+00    0.3061943514E-02    0.1857296211E+00    0.1034267367E-03    0.4943245375E+00
    0.3900000000E+07    0.6797491230E+00    0.2985473636E-02    0.1856960409E+00    0.1005495482E-03    0.4944756209E+00
    0.4100000000E+07    0.6797625630E+00    0.2914590829E-02    0.1856633798E+00    0.9789125314E-04    0.4946171950E+00
    0.4300000000E+07    0.6797747885E+00    0.2848642922E-02    0.1856316023E+00    0.9542560909E-04    0.4947502982E+00
    0.4500000000E+07    0.6797859604E+00    0.2787079816E-02    0.1856006720E+00    0.9313056678E-04    0.4948758126E+00
    0.4700000000E+07    0.6797962122E+00    0.2729433796E-02    0.1855705529E+00    0.9098744704E-04    0.4949944936E+00
    0.4900000000E+07    0.6798056555E+00    0.2675304298E-02    0.1855412096E+00    0.8898030695E-04    0.4951069927E+00
    0.1000000000E+07    0.6789602992E+00    0.5739328708E-02    0.1862281040E+00    0.2098859063E-03    0.4897159946E+00
    0.3000000000E+07    0.6796671360E+00    0.3386438821E-02    0.1858548120E+00    0.1157418080E-03    0.4937006793E+00
    0.5000000000E+07    0.6798101040E+00    0.2649448441E-02    0.1855268180E+00    0.8802337147E-04    0.4951611037E+00
    0.7000000000E+07    0.6798732703E+00    0.2253620534E-02    0.1852721915E+00    0.7352463176E-04    0.4960236871E+00
    0.9000000000E+07    0.6799094125E+00    0.1996897162E-02    0.1850653647E+00    0.6428156223E-04    0.4966247183E+00
    0.1100000000E+08    0.6799330471E+00    0.1812982545E-02    0.1848912581E+00    0.5774423176E-04    0.4970811987E+00
    0.1300000000E+08    0.6799498255E+00    0.1672811761E-02    0.1847408480E+00    0.5281251270E-04    0.4974468175E+00
    0.1500000000E+08    0.6799624191E+00    0.1561355126E-02    0.1846083773E+00    0.4892433379E-04    0.4977504199E+00
    0.1700000000E+08    0.6799722604E+00    0.1469951327E-02    0.1844899616E+00    0.4575890467E-04    0.4980091914E+00
    0.1900000000E+08    0.6799801890E+00    0.1393209080E-02    0.1843828591E+00    0.4311815918E-04    0.4982341511E+00
    0.2100000000E+08    0.6799867312E+00    0.1327572743E-02    0.1842850625E+00    0.4087237767E-04    0.4984327639E+00
    0.2300000000E+08    0.6799922340E+00    0.1270589177E-02    0.1841950584E+00    0.3893260961E-04    0.4986103085E+00
    0.2500000000E+08    0.6799969362E+00    0.1220503546E-02    0.1841116766E+00    0.3723557193E-04    0.4987706475E+00
    0.2700000000E+08    0.6800010076E+00    0.1176022725E-02    0.1840339941E+00    0.3573486130E-04    0.4989166883E+00
