  Pressure (Pa) 22mC5-400 (mol/kg) 2mC6-400 (mol/kg) 3mC6-400 (mol/kg) 33mC5-400 (mol/kg) C7-400 (mol/kg)
    0.1000000000E+01    0.5293885210E-03    0.5513617379E-02    0.2609017146E-02    0.1924164492E-03    0.6774166988E-02
    0.3000000000E+01    0.1568331912E-02    0.1590683142E-01    0.7518199152E-02    0.5552652663E-03    0.1952415465E-01
    0.5000000000E+01    0.2581899205E-02    0.2553556920E-01    0.1205642573E-01    0.8916109167E-03    0.3131512149E-01
    0.7000000000E+01    0.3571298330E-02    0.3448397100E-01    0.1626609962E-01    0.1204374593E-02    0.4225653470E-01
    0.9000000000E+01    0.4537658345E-02    0.4282388102E-01    0.2018333109E-01    0.1496049818E-02    0.5244162858E-01
    0.1100000000E+02    0.5482035879E-02    0.5061704849E-01    0.2383906728E-01    0.1768779109E-02    0.6195031655E-01
    0.1300000000E+02    0.6405420946E-02    0.5791686930E-01    0.2725998641E-01    0.2024414618E-02    0.7085149721E-01
    0.1500000000E+02    0.7308742202E-02    0.6476977660E-01    0.3046921217E-01    0.2264566541E-02    0.7920489663E-01
    0.1700000000E+02    0.8192871713E-02    0.7121636032E-01    0.3348688900E-01    0.2490642081E-02    0.8706255230E-01
    0.1900000000E+02    0.9058629276E-02    0.7729227569E-01    0.3633064910E-01    0.2703877058E-02    0.9447001746E-01
    0.2100000000E+02    0.9906786352E-02    0.8302898574E-01    0.3901599396E-01    0.2905361734E-02    0.1014673456E+00
    0.2300000000E+02    0.1073806964E-01    0.8845437236E-01    0.4155660839E-01    0.3096062063E-02    0.1080899004E+00
    0.2500000000E+02    0.1155316433E-01    0.9359324241E-01    0.4396462045E-01    0.3276837290E-02    0.1143690264E+00
    0.2700000000E+02    0.1235271710E-01    0.9846774935E-01    0.4625081789E-01    0.3448454605E-02    0.1203326077E+00
    0.2900000000E+02    0.1313733882E-01    0.1030977466E+00    0.4842482940E-01    0.3611601418E-02    0.1260055351E+00
    0.3100000000E+02    0.1390760707E-01    0.1075010852E+00    0.5049527711E-01    0.3766895705E-02    0.1314101002E+00
    0.3300000000E+02    0.1466406837E-01    0.1116938656E+00    0.5246990563E-01    0.3914894756E-02    0.1365663284E+00
    0.3500000000E+02    0.1540724035E-01    0.1156906525E+00    0.5435569163E-01    0.4056102621E-02    0.1414922613E+00
    0.3700000000E+02    0.1613761362E-01    0.1195046574E+00    0.5615893735E-01    0.4190976466E-02    0.1462041984E+00
    0.3900000000E+02    0.1685565359E-01    0.1231478964E+00    0.5788535080E-01    0.4319932035E-02    0.1507169041E+00
    0.4100000000E+02    0.1756180205E-01    0.1266313252E+00    0.5954011466E-01    0.4443348345E-02    0.1550437855E+00
    0.4300000000E+02    0.1825647873E-01    0.1299649565E+00    0.6112794582E-01    0.4561571755E-02    0.1591970463E+00
    0.4500000000E+02    0.1894008268E-01    0.1331579617E+00    0.6265314700E-01    0.4674919490E-02    0.1631878198E+00
    0.4700000000E+02    0.1961299353E-01    0.1362187597E+00    0.6411965156E-01    0.4783682722E-02    0.1670262848E+00
    0.4900000000E+02    0.2027557270E-01    0.1391550939E+00    0.6553106268E-01    0.4888129249E-02    0.1707217666E+00
    0.1000000000E+02    0.5012531549E-02    0.4678529234E-01    0.2204212779E-01    0.1634660760E-02    0.5727598254E-01
    0.3000000000E+02    0.1352423227E-01    0.1053267036E+00    0.4947249550E-01    0.3690193967E-02    0.1287400618E+00
    0.5000000000E+02    0.2060309615E-01    0.1405788392E+00    0.6621715242E-01    0.4938811629E-02    0.1725185917E+00
    0.7000000000E+02    0.2668677395E-01    0.1639869241E+00    0.7772107115E-01    0.5776577048E-02    0.2026948518E+00
    0.9000000000E+02    0.3204453991E-01    0.1804762418E+00    0.8623166659E-01    0.6373802851E-02    0.2250887566E+00
    0.1100000000E+03    0.3685224372E-01    0.1925561537E+00    0.9285405220E-01    0.6817273528E-02    0.2425654225E+00
    0.1300000000E+03    0.4123023995E-01    0.2016521373E+00    0.9819895503E-01    0.7156326016E-02    0.2567099926E+00
    0.1500000000E+03    0.4526408441E-01    0.2086379980E+00    0.1026334175E+00    0.7421240232E-02    0.2684761644E+00
    0.1700000000E+03    0.4901652848E-01    0.2140804297E+00    0.1063924466E+00    0.7631684467E-02    0.2784752138E+00
    0.1900000000E+03    0.5253482185E-01    0.2183633088E+00    0.1096341502E+00    0.7801006476E-02    0.2871188232E+00
    0.2100000000E+03    0.5585534589E-01    0.2217558603E+00    0.1124692210E+00    0.7938586968E-02    0.2946955086E+00
    0.2300000000E+03    0.5900665785E-01    0.2244523418E+00    0.1149777317E+00    0.8051210044E-02    0.3014141853E+00
    0.2500000000E+03    0.6201155199E-01    0.2265962807E+00    0.1172192104E+00    0.8143900622E-02    0.3074303185E+00
    0.2700000000E+03    0.6488849193E-01    0.2282958766E+00    0.1192389497E+00    0.8220456922E-02    0.3128623095E+00
    0.2900000000E+03    0.6765262906E-01    0.2296341194E+00    0.1210721036E+00    0.8283800523E-02    0.3178021420E+00
    0.3100000000E+03    0.7031654151E-01    0.2306756272E+00    0.1227464320E+00    0.8336213134E-02    0.3223225202E+00
    0.3300000000E+03    0.7289078005E-01    0.2314713818E+00    0.1242841899E+00    0.8379500726E-02    0.3264817834E+00
    0.3500000000E+03    0.7538427791E-01    0.2320620787E+00    0.1257034586E+00    0.8415109772E-02    0.3303273725E+00
    0.3700000000E+03    0.7780466301E-01    0.2324805429E+00    0.1270191035E+00    0.8444211139E-02    0.3338983248E+00
    0.3900000000E+03    0.8015849897E-01    0.2327534990E+00    0.1282434765E+00    0.8467761665E-02    0.3372271047E+00
    0.4100000000E+03    0.8245147338E-01    0.2329028893E+00    0.1293869391E+00    0.8486550036E-02    0.3403409688E+00
    0.4300000000E+03    0.8468854655E-01    0.2329468671E+00    0.1304582588E+00    0.8501231436E-02    0.3432629990E+00
    0.4500000000E+03    0.8687407016E-01    0.2329005558E+00    0.1314649120E+00    0.8512354040E-02    0.3460128949E+00
    0.4700000000E+03    0.8901188278E-01    0.2327766345E+00    0.1324133203E+00    0.8520379496E-02    0.3486075904E+00
    0.4900000000E+03    0.9110538755E-01    0.2325857952E+00    0.1333090353E+00    0.8525698922E-02    0.3510617364E+00
    0.1000000000E+03    0.3450862572E-01    0.1869611750E+00    0.8973307114E-01    0.6611083123E-02    0.2343228719E+00
    0.3000000000E+03    0.6899641179E-01    0.2301885039E+00    0.1219276188E+00    0.8311250730E-02    0.3201108263E+00
    0.5000000000E+03    0.9213648477E-01    0.2324681691E+00    0.1337386666E+00    0.8527449976E-02    0.3522401539E+00
    0.7000000000E+03    0.1110202827E+00    0.2282057719E+00    0.1404632978E+00    0.8479936274E-02    0.3708058729E+00
    0.9000000000E+03    0.1275651486E+00    0.2223893826E+00    0.1449777672E+00    0.8355013349E-02    0.3834209934E+00
    0.1100000000E+04    0.1425768232E+00    0.2162800297E+00    0.1482880348E+00    0.8203588417E-02    0.3927679114E+00
    0.1300000000E+04    0.1564750370E+00    0.2102709782E+00    0.1508535601E+00    0.8043604657E-02    0.4000794444E+00
    0.1500000000E+04    0.1695086086E+00    0.2044910107E+00    0.1529192444E+00    0.7882323434E-02    0.4060163252E+00
    0.1700000000E+04    0.1818384083E+00    0.1989758222E+00    0.1546296337E+00    0.7722907382E-02    0.4109704664E+00
    0.1900000000E+04    0.1935751547E+00    0.1937260311E+00    0.1560764763E+00    0.7566764404E-02    0.4151917602E+00
    0.2100000000E+04    0.2047987512E+00    0.1887290986E+00    0.1573212792E+00    0.7414494572E-02    0.4188484373E+00
    0.2300000000E+04    0.2155690645E+00    0.1839681755E+00    0.1584070723E+00    0.7266308661E-02    0.4220586563E+00
    0.2500000000E+04    0.2259323436E+00    0.1794257718E+00    0.1593650084E+00    0.7122225661E-02    0.4249082797E+00
    0.2700000000E+04    0.2359252458E+00    0.1750852472E+00    0.1602182848E+00    0.6982170507E-02    0.4274614697E+00
    0.2900000000E+04    0.2455774738E+00    0.1709313509E+00    0.1609845866E+00    0.6846024021E-02    0.4297673075E+00
    0.3100000000E+04    0.2549135629E+00    0.1669503422E+00    0.1616776690E+00    0.6713648906E-02    0.4318640906E+00
    0.3300000000E+04    0.2639541287E+00    0.1631299311E+00    0.1623084160E+00    0.6584903305E-02    0.4337822173E+00
    0.3500000000E+04    0.2727167605E+00    0.1594591488E+00    0.1628855698E+00    0.6459647751E-02    0.4355461771E+00
    0.3700000000E+04    0.2812166741E+00    0.1559281986E+00    0.1634162452E+00    0.6337748539E-02    0.4371759583E+00
    0.3900000000E+04    0.2894671976E+00    0.1525283103E+00    0.1639063000E+00    0.6219079157E-02    0.4386880647E+00
    0.4100000000E+04    0.2974801396E+00    0.1492516064E+00    0.1643606076E+00    0.6103520666E-02    0.4400962639E+00
    0.4300000000E+04    0.3052660708E+00    0.1460909848E+00    0.1647832602E+00    0.5990961533E-02    0.4414121480E+00
    0.4500000000E+04    0.3128345433E+00    0.1430400163E+00    0.1651777231E+00    0.5881297194E-02    0.4426455582E+00
    0.4700000000E+04    0.3201942619E+00    0.1400928571E+00    0.1655469530E+00    0.5774429495E-02    0.4438049134E+00
    0.4900000000E+04    0.3273532204E+00    0.1372441735E+00    0.1658934904E+00    0.5670266114E-02    0.4448974652E+00
    0.1000000000E+04    0.1352308922E+00    0.2193370504E+00    0.1467475246E+00    0.8281109698E-02    0.3884068011E+00
    0.3000000000E+04    0.2502836672E+00    0.1689200364E+00    0.1613395425E+00    0.6779373906E-02    0.4308397726E+00
    0.5000000000E+04    0.3308597457E+00    0.1358552168E+00    0.1660589477E+00    0.5619171144E-02    0.4454206872E+00
    0.7000000000E+04    0.3920117660E+00    0.1122432838E+00    0.1685814114E+00    0.4720330888E-02    0.4535410898E+00
    0.9000000000E+04    0.4393028998E+00    0.9466309807E-01    0.1701984253E+00    0.4014769782E-02    0.4589206209E+00
    0.1100000000E+05    0.4762881208E+00    0.8124914136E-01    0.1713410227E+00    0.3455854697E-02    0.4628300330E+00
    0.1300000000E+05    0.5055273206E+00    0.7081807922E-01    0.1721993967E+00    0.3008945096E-02    0.4658411626E+00
    0.1500000000E+05    0.5289042830E+00    0.6257002700E-01    0.1728720804E+00    0.2647956810E-02    0.4682553460E+00
    0.1700000000E+05    0.5478095151E+00    0.5594746119E-01    0.1734158253E+00    0.2353277489E-02    0.4702487402E+00
    0.1900000000E+05    0.5632718421E+00    0.5055416979E-01    0.1738658873E+00    0.2110174026E-02    0.4719322200E+00
    0.2100000000E+05    0.5760561873E+00    0.4610413626E-01    0.1742454522E+00    0.1907551740E-02    0.4733795538E+00
    0.2300000000E+05    0.5867353561E+00    0.4238791340E-01    0.1745704622E+00    0.1737011165E-02    0.4746419959E+00
    0.2500000000E+05    0.5957420447E+00    0.3925001340E-01    0.1748522783E+00    0.1592146680E-02    0.4757564225E+00
    0.2700000000E+05    0.6034062563E+00    0.3657347814E-01    0.1750992383E+00    0.1468031671E-02    0.4767501377E+00
    0.2900000000E+05    0.6099821859E+00    0.3426921571E-01    0.1753176146E+00    0.1360842618E-02    0.4776438510E+00
    0.3100000000E+05    0.6156675916E+00    0.3226854143E-01    0.1755122248E+00    0.1267584601E-02    0.4784535954E+00
    0.3300000000E+05    0.6206178311E+00    0.3051789770E-01    0.1756868371E+00    0.1185890176E-02    0.4791920048E+00
    0.3500000000E+05    0.6249561065E+00    0.2897507193E-01    0.1758444452E+00    0.1113871151E-02    0.4798691889E+00
    0.3700000000E+05    0.6287810033E+00    0.2760645582E-01    0.1759874604E+00    0.1050008587E-02    0.4804933478E+00
    0.3900000000E+05    0.6321720872E+00    0.2638503670E-01    0.1761178488E+00    0.9930705153E-03    0.4810712130E+00
    0.4100000000E+05    0.6351940963E+00    0.2528890933E-01    0.1762372311E+00    0.9420498967E-03    0.4816083700E+00
    0.4300000000E+05    0.6379001098E+00    0.2430016150E-01    0.1763469560E+00    0.8961174406E-03    0.4821094976E+00
    0.4500000000E+05    0.6403339632E+00    0.2340403125E-01    0.1764481563E+00    0.8545854367E-03    0.4825785500E+00
    0.4700000000E+05    0.6425321054E+00    0.2258826328E-01    0.1765417906E+00    0.8168798004E-03    0.4830188946E+00
    0.4900000000E+05    0.6445250393E+00    0.2184261313E-01    0.1766286763E+00    0.7825182981E-03    0.4834334204E+00
    0.1000000000E+05    0.4589052539E+00    0.8752059691E-01    0.1708140390E+00    0.3719376401E-02    0.4610142548E+00
    0.3000000000E+05    0.6129256361E+00    0.3323458161E-01    0.1754176340E+00    0.1312632947E-02    0.4780583618E+00
    0.5000000000E+05    0.6454527412E+00    0.2149333399E-01    0.1766698115E+00    0.7664617312E-03    0.4836317942E+00
    0.7000000000E+05    0.6577361314E+00    0.1667748854E-01    0.1772657799E+00    0.5490248111E-03    0.4867024554E+00
    0.9000000000E+05    0.6638750609E+00    0.1403940148E-01    0.1776109970E+00    0.4351509000E-03    0.4887351297E+00
    0.1100000000E+06    0.6674719701E+00    0.1234914515E-01    0.1778324548E+00    0.3654744963E-03    0.4902170006E+00
    0.1300000000E+06    0.6698048102E+00    0.1115722833E-01    0.1779835377E+00    0.3184090329E-03    0.4913639826E+00
    0.1500000000E+06    0.6714278381E+00    0.1026143800E-01    0.1780907927E+00    0.2843853668E-03    0.4922887864E+00
    0.1700000000E+06    0.6726164126E+00    0.9557248652E-02    0.1781689621E+00    0.2585518008E-03    0.4930569191E+00
    0.1900000000E+06    0.6735214294E+00    0.8984995221E-02    0.1782269016E+00    0.2381975733E-03    0.4937094748E+00
    0.2100000000E+06    0.6742319456E+00    0.8507995602E-02    0.1782702543E+00    0.2216926110E-03    0.4942737518E+00
    0.2300000000E+06    0.6748036652E+00    0.8102362947E-02    0.1783027851E+00    0.2079986445E-03    0.4947687116E+00
    0.2500000000E+06    0.6752730960E+00    0.7751814194E-02    0.1783271001E+00    0.1964230550E-03    0.4952080043E+00
    0.2700000000E+06    0.6756651011E+00    0.7444828699E-02    0.1783450588E+00    0.1864859338E-03    0.4956017494E+00
    0.2900000000E+06    0.6759971653E+00    0.7173000204E-02    0.1783580214E+00    0.1778440537E-03    0.4959576348E+00
    0.3100000000E+06    0.6762819239E+00    0.6930033920E-02    0.1783670050E+00    0.1702452657E-03    0.4962816241E+00
    0.3300000000E+06    0.6765287236E+00    0.6711110993E-02    0.1783727836E+00    0.1635000205E-03    0.4965784268E+00
    0.3500000000E+06    0.6767446205E+00    0.6512471672E-02    0.1783759558E+00    0.1574629597E-03    0.4968518197E+00
    0.3700000000E+06    0.6769350365E+00    0.6331133653E-02    0.1783769912E+00    0.1520206545E-03    0.4971048738E+00
    0.3900000000E+06    0.6771042042E+00    0.6164696773E-02    0.1783762625E+00    0.1470832230E-03    0.4973401159E+00
    0.4100000000E+06    0.6772554739E+00    0.6011204471E-02    0.1783740688E+00    0.1425784651E-03    0.4975596476E+00
    0.4300000000E+06    0.6773915309E+00    0.5869043506E-02    0.1783706524E+00    0.1384476743E-03    0.4977652336E+00
    0.4500000000E+06    0.6775145521E+00    0.5736870066E-02    0.1783662114E+00    0.1346425913E-03    0.4979583688E+00
    0.4700000000E+06    0.6776263200E+00    0.5613554434E-02    0.1783609089E+00    0.1311231516E-03    0.4981403293E+00
    0.4900000000E+06    0.6777283079E+00    0.5498138942E-02    0.1783548802E+00    0.1278557948E-03    0.4983122123E+00
    0.1000000000E+06    0.6658853686E+00    0.1311271587E-01    0.1777329394E+00    0.3965666456E-03    0.4895279331E+00
    0.3000000000E+06    0.6761448103E+00    0.7048239356E-02    0.1783629575E+00    0.1739273342E-03    0.4961232971E+00
    0.5000000000E+06    0.6777760263E+00    0.5443133403E-02    0.1783516295E+00    0.1263076154E-03    0.4983946765E+00
    0.7000000000E+06    0.6784299542E+00    0.4609907089E-02    0.1782679663E+00    0.1035498616E-03    0.4996902065E+00
    0.9000000000E+06    0.6787825890E+00    0.4076771666E-02    0.1781725519E+00    0.8964548953E-04    0.5005707272E+00
    0.1100000000E+07    0.6790036605E+00    0.3697469252E-02    0.1780786180E+00    0.8004889101E-04    0.5012266534E+00
    0.1300000000E+07    0.6791555571E+00    0.3409548342E-02    0.1779895699E+00    0.7292229876E-04    0.5017437662E+00
    0.1500000000E+07    0.6792665714E+00    0.3181195786E-02    0.1779060869E+00    0.6736455851E-04    0.5021674651E+00
    0.1700000000E+07    0.6793513937E+00    0.2994252048E-02    0.1778279986E+00    0.6287571823E-04    0.5025244551E+00
    0.1900000000E+07    0.6794184124E+00    0.2837486696E-02    0.1777548784E+00    0.5915340742E-04    0.5028316696E+00
    0.2100000000E+07    0.6794727688E+00    0.2703527390E-02    0.1776862481E+00    0.5600268213E-04    0.5031004674E+00
    0.2300000000E+07    0.6795177910E+00    0.2587305265E-02    0.1776216504E+00    0.5329150381E-04    0.5033388094E+00
    0.2500000000E+07    0.6795557299E+00    0.2485203912E-02    0.1775606721E+00    0.5092686023E-04    0.5035524741E+00
    0.2700000000E+07    0.6795881631E+00    0.2394563927E-02    0.1775029483E+00    0.4884109972E-04    0.5037457787E+00
    0.2900000000E+07    0.6796162294E+00    0.2313379684E-02    0.1774481599E+00    0.4698368966E-04    0.5039220271E+00
    0.3100000000E+07    0.6796407721E+00    0.2240105947E-02    0.1773960285E+00    0.4531602674E-04    0.5040837996E+00
    0.3300000000E+07    0.6796624290E+00    0.2173530148E-02    0.1773463110E+00    0.4380804789E-04    0.5042331473E+00
    0.3500000000E+07    0.6796816918E+00    0.2112685516E-02    0.1772987948E+00    0.4243594769E-04    0.5043717252E+00
    0.3700000000E+07    0.6796989456E+00    0.2056790426E-02    0.1772532931E+00    0.4118059919E-04    0.5045008869E+00
    0.3900000000E+07    0.6797144966E+00    0.2005205113E-02    0.1772096415E+00    0.4002643577E-04    0.5046217524E+00
    0.4100000000E+07    0.6797285910E+00    0.1957400156E-02    0.1771676943E+00    0.3896064292E-04    0.5047352583E+00
    0.4300000000E+07    0.6797414297E+00    0.1912933125E-02    0.1771273223E+00    0.3797256344E-04    0.5048421953E+00
    0.4500000000E+07    0.6797531777E+00    0.1871431000E-02    0.1770884100E+00    0.3705325239E-04    0.5049432362E+00
    0.4700000000E+07    0.6797639721E+00    0.1832576753E-02    0.1770508545E+00    0.3619513932E-04    0.5050389582E+00
    0.4900000000E+07    0.6797739277E+00    0.1796098975E-02    0.1770145628E+00    0.3539176846E-04    0.5051298600E+00
    0.1000000000E+07    0.6789044574E+00    0.3872841066E-02    0.1781250839E+00    0.8445607186E-04    0.5009200449E+00
    0.3000000000E+07    0.6796288973E+00    0.2275836411E-02    0.1774217780E+00    0.4612818796E-04    0.5040045840E+00
    0.5000000000E+07    0.6797786219E+00    0.1778676885E-02    0.1769968645E+00    0.3500884803E-04    0.5051736411E+00
    0.7000000000E+07    0.6798456270E+00    0.1512128543E-02    0.1766927367E+00    0.2921459969E-04    0.5058768581E+00
    0.9000000000E+07    0.6798843384E+00    0.1339413403E-02    0.1764551706E+00    0.2552751724E-04    0.5063730738E+00
    0.1100000000E+08    0.6799098536E+00    0.1215756089E-02    0.1762598937E+00    0.2292267242E-04    0.5067535802E+00
    0.1300000000E+08    0.6799280889E+00    0.1121551128E-02    0.1760939296E+00    0.2095908908E-04    0.5070606983E+00
    0.1500000000E+08    0.6799418562E+00    0.1046668815E-02    0.1759495133E+00    0.1941185751E-04    0.5073173537E+00
    0.1700000000E+08    0.6799526705E+00    0.9852751402E-03    0.1758216215E+00    0.1815277131E-04    0.5075372995E+00
    0.1900000000E+08    0.6799614237E+00    0.9337403873E-03    0.1757068143E+00    0.1710274352E-04    0.5077294070E+00
    0.2100000000E+08    0.6799686769E+00    0.8896715987E-03    0.1756026308E+00    0.1621001425E-04    0.5078997174E+00
    0.2300000000E+08    0.6799748015E+00    0.8514183160E-03    0.1755072483E+00    0.1543911117E-04    0.5080525226E+00
    0.2500000000E+08    0.6799800538E+00    0.8178002089E-03    0.1754192790E+00    0.1476480966E-04    0.5081909766E+00
    0.2700000000E+08    0.6799846167E+00    0.7879476947E-03    0.1753376409E+00    0.1416862065E-04    0.5083174621E+00
