  Pressure (Pa) 22mC5-400 (mol/kg) 2mC6-400 (mol/kg) 3mC6-400 (mol/kg) 33mC5-400 (mol/kg) C7-400 (mol/kg)
    0.1000000000E+01    0.5308184303E-03    0.2372073149E-02    0.1046906095E-02    0.5794736302E-03    0.8494378661E-02
    0.3000000000E+01    0.1580866282E-02    0.6893721993E-02    0.3034637411E-02    0.1684514989E-02    0.2462637541E-01
    0.5000000000E+01    0.2615824959E-02    0.1114305462E-01    0.4892801789E-02    0.2723598159E-02    0.3971178831E-01
    0.7000000000E+01    0.3636115108E-02    0.1514592575E-01    0.6634017293E-02    0.3703003695E-02    0.5385238941E-01
    0.9000000000E+01    0.4642141252E-02    0.1892490260E-01    0.8269304112E-02    0.4628211404E-02    0.6713707259E-01
    0.1100000000E+02    0.5634292564E-02    0.2249977570E-01    0.9808330220E-02    0.5504024974E-02    0.7964383254E-01
    0.1300000000E+02    0.6612943599E-02    0.2588797730E-01    0.1125961305E-01    0.6334674040E-02    0.9144138947E-01
    0.1500000000E+02    0.7578454987E-02    0.2910492623E-01    0.1263068607E-01    0.7123898294E-02    0.1025905314E+00
    0.1700000000E+02    0.8531174078E-02    0.3216431398E-01    0.1392823725E-01    0.7875017224E-02    0.1131452297E+00
    0.1900000000E+02    0.9471435561E-02    0.3507834315E-01    0.1515822475E-01    0.8590988251E-02    0.1231535712E+00
    0.2100000000E+02    0.1039956204E-01    0.3785792747E-01    0.1632597409E-01    0.9274455462E-02    0.1326585414E+00
    0.2300000000E+02    0.1131586460E-01    0.4051286027E-01    0.1743626018E-01    0.9927790663E-02    0.1416986859E+00
    0.2500000000E+02    0.1222064329E-01    0.4305195709E-01    0.1849337694E-01    0.1055312811E-01    0.1503086708E+00
    0.2700000000E+02    0.1311418765E-01    0.4548317706E-01    0.1950119656E-01    0.1115239408E-01    0.1585197609E+00
    0.2900000000E+02    0.1399677715E-01    0.4781372639E-01    0.2046322020E-01    0.1172733203E-01    0.1663602280E+00
    0.3100000000E+02    0.1486868166E-01    0.5005014732E-01    0.2138262157E-01    0.1227952429E-01    0.1738557027E+00
    0.3300000000E+02    0.1573016183E-01    0.5219839447E-01    0.2226228448E-01    0.1281041061E-01    0.1810294766E+00
    0.3500000000E+02    0.1658146950E-01    0.5426390102E-01    0.2310483530E-01    0.1332130426E-01    0.1879027645E+00
    0.3700000000E+02    0.1742284810E-01    0.5625163591E-01    0.2391267123E-01    0.1381340597E-01    0.1944949318E+00
    0.3900000000E+02    0.1825453296E-01    0.5816615371E-01    0.2468798483E-01    0.1428781600E-01    0.2008236928E+00
    0.4100000000E+02    0.1907675169E-01    0.6001163813E-01    0.2543278551E-01    0.1474554476E-01    0.2069052836E+00
    0.4300000000E+02    0.1988972448E-01    0.6179194004E-01    0.2614891836E-01    0.1518752205E-01    0.2127546142E+00
    0.4500000000E+02    0.2069366438E-01    0.6351061096E-01    0.2683808067E-01    0.1561460515E-01    0.2183854016E+00
    0.4700000000E+02    0.2148877766E-01    0.6517093245E-01    0.2750183652E-01    0.1602758601E-01    0.2238102878E+00
    0.4900000000E+02    0.2227526401E-01    0.6677594211E-01    0.2814162968E-01    0.1642719753E-01    0.2290409433E+00
    0.1000000000E+02    0.5139927518E-02    0.2073671169E-01    0.9050292554E-02    0.5072015714E-02    0.7348319754E-01
    0.3000000000E+02    0.1443404853E-01    0.4894331779E-01    0.2092806204E-01    0.1200617825E-01    0.1701495821E+00
    0.5000000000E+02    0.2266533277E-01    0.6755859328E-01    0.2845296136E-01    0.1662220405E-01    0.2315868388E+00
    0.7000000000E+02    0.3005779863E-01    0.8089405447E-01    0.3369754966E-01    0.1996181835E-01    0.2745393412E+00
    0.9000000000E+02    0.3677435285E-01    0.9093860264E-01    0.3759067615E-01    0.2250446471E-01    0.3065194003E+00
    0.1100000000E+03    0.4293655694E-01    0.9876018998E-01    0.4061264362E-01    0.2450728513E-01    0.3314156660E+00
    0.1300000000E+03    0.4863714339E-01    0.1049945780E+00    0.4303774376E-01    0.2612333076E-01    0.3514511645E+00
    0.1500000000E+03    0.5394821508E-01    0.1100492058E+00    0.4503452215E-01    0.2745074558E-01    0.3679932843E+00
    0.1700000000E+03    0.5892677656E-01    0.1141998877E+00    0.4671254912E-01    0.2855604705E-01    0.3819318523E+00
    0.1900000000E+03    0.6361856202E-01    0.1176413410E+00    0.4814631433E-01    0.2948627178E-01    0.3938724075E+00
    0.2100000000E+03    0.6806074478E-01    0.1205156503E+00    0.4938833510E-01    0.3027581051E-01    0.4042422941E+00
    0.2300000000E+03    0.7228389344E-01    0.1229292946E+00    0.5047677225E-01    0.3095049377E-01    0.4133523385E+00
    0.2500000000E+03    0.7631340984E-01    0.1249638376E+00    0.5144006920E-01    0.3153015655E-01    0.4214344420E+00
    0.2700000000E+03    0.8017060276E-01    0.1266829148E+00    0.5229989223E-01    0.3203031460E-01    0.4286654208E+00
    0.2900000000E+03    0.8387350155E-01    0.1281369548E+00    0.5307305810E-01    0.3246329741E-01    0.4351826448E+00
    0.3100000000E+03    0.8743748070E-01    0.1293664606E+00    0.5377283511E-01    0.3283903626E-01    0.4410946003E+00
    0.3300000000E+03    0.9087574498E-01    0.1304043463E+00    0.5440984390E-01    0.3316562571E-01    0.4464882057E+00
    0.3500000000E+03    0.9419971063E-01    0.1312776361E+00    0.5499269519E-01    0.3344973230E-01    0.4514339956E+00
    0.3700000000E+03    0.9741930759E-01    0.1320087223E+00    0.5552845027E-01    0.3369689738E-01    0.4559898652E+00
    0.3900000000E+03    0.1005432217E+00    0.1326163116E+00    0.5602295948E-01    0.3391176533E-01    0.4602038243E+00
    0.4100000000E+03    0.1035790900E+00    0.1331161474E+00    0.5648111491E-01    0.3409825784E-01    0.4641160548E+00
    0.4300000000E+03    0.1065336603E+00    0.1335215679E+00    0.5690704184E-01    0.3425970884E-01    0.4677604707E+00
    0.4500000000E+03    0.1094129212E+00    0.1338439429E+00    0.5730424568E-01    0.3439897017E-01    0.4711659147E+00
    0.4700000000E+03    0.1122222105E+00    0.1340930181E+00    0.5767572600E-01    0.3451849502E-01    0.4743570891E+00
    0.4900000000E+03    0.1149663040E+00    0.1342771900E+00    0.5802406605E-01    0.3462040477E-01    0.4773552861E+00
    0.1000000000E+03    0.3991838939E-01    0.9508055013E-01    0.3919013767E-01    0.2356210784E-01    0.3196875861E+00
    0.3000000000E+03    0.8567198483E-01    0.1287775619E+00    0.5343140288E-01    0.3265777877E-01    0.4382084124E+00
    0.5000000000E+03    0.1163152601E+00    0.1343472475E+00    0.5819026970E-01    0.3466533958E-01    0.4787878845E+00
    0.7000000000E+03    0.1407144169E+00    0.1336747294E+00    0.6071268418E-01    0.3498001665E-01    0.5007226161E+00
    0.9000000000E+03    0.1616256500E+00    0.1309554355E+00    0.6231538369E-01    0.3467904625E-01    0.5149006442E+00
    0.1100000000E+04    0.1802504387E+00    0.1274864611E+00    0.6343957377E-01    0.3411219776E-01    0.5250014146E+00
    0.1300000000E+04    0.1972200170E+00    0.1237652063E+00    0.6427913311E-01    0.3342209251E-01    0.5326540504E+00
    0.1500000000E+04    0.2129083661E+00    0.1200065474E+00    0.6493394645E-01    0.3267544234E-01    0.5387037038E+00
    0.1700000000E+04    0.2275566024E+00    0.1163093702E+00    0.6546122161E-01    0.3190641667E-01    0.5436375714E+00
    0.1900000000E+04    0.2413303243E+00    0.1127199371E+00    0.6589631035E-01    0.3113363373E-01    0.5477585661E+00
    0.2100000000E+04    0.2543490278E+00    0.1092589449E+00    0.6626234790E-01    0.3036766235E-01    0.5512660813E+00
    0.2300000000E+04    0.2667024606E+00    0.1059340913E+00    0.6657516994E-01    0.2961464271E-01    0.5542973637E+00
    0.2500000000E+04    0.2784603045E+00    0.1027462885E+00    0.6684601475E-01    0.2887815905E-01    0.5569503402E+00
    0.2700000000E+04    0.2896782049E+00    0.9969288652E-01    0.6708309876E-01    0.2816026338E-01    0.5592969805E+00
    0.2900000000E+04    0.3004016831E+00    0.9676940428E-01    0.6729258078E-01    0.2746206104E-01    0.5613915048E+00
    0.3100000000E+04    0.3106687649E+00    0.9397048272E-01    0.6747917617E-01    0.2678405848E-01    0.5632756305E+00
    0.3300000000E+04    0.3205117963E+00    0.9129041750E-01    0.6764656164E-01    0.2612637650E-01    0.5649820432E+00
    0.3500000000E+04    0.3299587320E+00    0.8872345746E-01    0.6779765001E-01    0.2548888462E-01    0.5665367593E+00
    0.3700000000E+04    0.3390340668E+00    0.8626396996E-01    0.6793478127E-01    0.2487128777E-01    0.5679607760E+00
    0.3900000000E+04    0.3477595242E+00    0.8390652933E-01    0.6805985867E-01    0.2427318329E-01    0.5692712488E+00
    0.4100000000E+04    0.3561545721E+00    0.8164596049E-01    0.6817444735E-01    0.2369409920E-01    0.5704823488E+00
    0.4300000000E+04    0.3642368159E+00    0.7947735642E-01    0.6827984721E-01    0.2313352016E-01    0.5716058970E+00
    0.4500000000E+04    0.3720223021E+00    0.7739608041E-01    0.6837714755E-01    0.2259090542E-01    0.5726518422E+00
    0.4700000000E+04    0.3795257558E+00    0.7539775980E-01    0.6846726858E-01    0.2206570125E-01    0.5736286250E+00
    0.4900000000E+04    0.3867607685E+00    0.7347827499E-01    0.6855099347E-01    0.2155734971E-01    0.5745434589E+00
    0.1000000000E+04    0.1711761316E+00    0.1292737006E+00    0.6292199227E-01    0.3441732696E-01    0.5203323748E+00
    0.3000000000E+04    0.3055901360E+00    0.9535472618E-01    0.6738848888E-01    0.2712052006E-01    0.5623576449E+00
    0.5000000000E+04    0.3902815843E+00    0.7254687462E-01    0.6859067087E-01    0.2130931975E-01    0.5749796188E+00
    0.7000000000E+04    0.4492608809E+00    0.5722862386E-01    0.6917010871E-01    0.1710328172E-01    0.5815845475E+00
    0.9000000000E+04    0.4917875309E+00    0.4654405812E-01    0.6951342614E-01    0.1402657661E-01    0.5857865285E+00
    0.1100000000E+05    0.5232651305E+00    0.3884474730E-01    0.6974030330E-01    0.1173381742E-01    0.5887509170E+00
    0.1300000000E+05    0.5471187719E+00    0.3313459908E-01    0.6990075875E-01    0.9990546428E-02    0.5909819472E+00
    0.1500000000E+05    0.5655870564E+00    0.2878993362E-01    0.7001960456E-01    0.8638754706E-02    0.5927374460E+00
    0.1700000000E+05    0.5801660866E+00    0.2540833633E-01    0.7011061636E-01    0.7571089895E-02    0.5941644761E+00
    0.1900000000E+05    0.5918771171E+00    0.2272292960E-01    0.7018208119E-01    0.6713550919E-02    0.5953537039E+00
    0.2100000000E+05    0.6014318620E+00    0.2055215354E-01    0.7023929387E-01    0.6014246601E-02    0.5963643892E+00
    0.2300000000E+05    0.6093363125E+00    0.1876954441E-01    0.7028580021E-01    0.5436136917E-02    0.5972370739E+00
    0.2500000000E+05    0.6159570527E+00    0.1728508501E-01    0.7032406601E-01    0.4952316892E-02    0.5980005317E+00
    0.2700000000E+05    0.6215643855E+00    0.1603341679E-01    0.7035585996E-01    0.4542915250E-02    0.5986758113E+00
    0.2900000000E+05    0.6263608969E+00    0.1496621727E-01    0.7038248401E-01    0.4193024454E-02    0.5992787053E+00
    0.3100000000E+05    0.6305007198E+00    0.1404716365E-01    0.7040491780E-01    0.3891297028E-02    0.5998213210E+00
    0.3300000000E+05    0.6341027553E+00    0.1324853762E-01    0.7042391253E-01    0.3628978337E-02    0.6003131139E+00
    0.3500000000E+05    0.6372598992E+00    0.1254889294E-01    0.7044005375E-01    0.3399229631E-02    0.6007615892E+00
    0.3700000000E+05    0.6400455839E+00    0.1193142516E-01    0.7045380450E-01    0.3196647081E-02    0.6011727889E+00
    0.3900000000E+05    0.6425184841E+00    0.1138281325E-01    0.7046553560E-01    0.3016915190E-02    0.6015516387E+00
    0.4100000000E+05    0.6447259504E+00    0.1089238430E-01    0.7047554745E-01    0.2856553649E-02    0.6019021992E+00
    0.4300000000E+05    0.6467065473E+00    0.1045150257E-01    0.7048408584E-01    0.2712730116E-02    0.6022278519E+00
    0.4500000000E+05    0.6484919508E+00    0.1005311687E-01    0.7049135371E-01    0.2583120101E-02    0.6025314381E+00
    0.4700000000E+05    0.6501083847E+00    0.9691421184E-02    0.7049752008E-01    0.2465800934E-02    0.6028153650E+00
    0.4900000000E+05    0.6515777182E+00    0.9361597334E-02    0.7050272669E-01    0.2359170703E-02    0.6030816876E+00
    0.1000000000E+05    0.5086586784E+00    0.4239465228E-01    0.6963742791E-01    0.1279901844E-01    0.5873835259E+00
    0.3000000000E+05    0.6285047612E+00    0.1449007482E-01    0.7039417323E-01    0.4036739177E-02    0.5995569043E+00
    0.5000000000E+05    0.6522630783E+00    0.9207352272E-02    0.7050500826E-01    0.2309435344E-02    0.6032088089E+00
    0.7000000000E+05    0.6614586290E+00    0.7095886495E-02    0.7052140854E-01    0.1641322936E-02    0.6051491760E+00
    0.9000000000E+05    0.6661889669E+00    0.5950191428E-02    0.7050995968E-01    0.1295124690E-02    0.6064050071E+00
    0.1100000000E+06    0.6690320177E+00    0.5219842427E-02    0.7048830855E-01    0.1084442286E-02    0.6073059154E+00
    0.1300000000E+06    0.6709162610E+00    0.4706552953E-02    0.7046275386E-01    0.9426138926E-03    0.6079946360E+00
    0.1500000000E+06    0.6722515204E+00    0.4321763336E-02    0.7043592431E-01    0.8403374603E-03    0.6085444181E+00
    0.1700000000E+06    0.6732448935E+00    0.4019894491E-02    0.7040901608E-01    0.7628305094E-03    0.6089972668E+00
    0.1900000000E+06    0.6740116703E+00    0.3775005628E-02    0.7038259489E-01    0.7018608618E-03    0.6093792445E+00
    0.2100000000E+06    0.6746208789E+00    0.3571183437E-02    0.7035692565E-01    0.6524898664E-03    0.6097075045E+00
    0.2300000000E+06    0.6751162638E+00    0.3398083676E-02    0.7033212188E-01    0.6115775073E-03    0.6099938668E+00
    0.2500000000E+06    0.6755268379E+00    0.3248665402E-02    0.7030821840E-01    0.5770321288E-03    0.6102467811E+00
    0.2700000000E+06    0.6758725760E+00    0.3117953436E-02    0.7028520863E-01    0.5474061891E-03    0.6104724727E+00
    0.2900000000E+06    0.6761676657E+00    0.3002321744E-02    0.7026306448E-01    0.5216654942E-03    0.6106756449E+00
    0.3100000000E+06    0.6764224534E+00    0.2899057925E-02    0.7024174731E-01    0.4990509826E-03    0.6108599277E+00
    0.3300000000E+06    0.6766446578E+00    0.2806087563E-02    0.7022121400E-01    0.4789925159E-03    0.6110281744E+00
    0.3500000000E+06    0.6768401512E+00    0.2721793616E-02    0.7020142033E-01    0.4610532099E-03    0.6111826641E+00
    0.3700000000E+06    0.6770134789E+00    0.2644894492E-02    0.7018232293E-01    0.4448923879E-03    0.6113252421E+00
    0.3900000000E+06    0.6771682128E+00    0.2574359577E-02    0.7016388025E-01    0.4302402742E-03    0.6114574218E+00
    0.4100000000E+06    0.6773071982E+00    0.2509349357E-02    0.7014605305E-01    0.4168802994E-03    0.6115804572E+00
    0.4300000000E+06    0.6774327290E+00    0.2449172118E-02    0.7012880462E-01    0.4046364730E-03    0.6116953984E+00
    0.4500000000E+06    0.6775466750E+00    0.2393252050E-02    0.7011210080E-01    0.3933642051E-03    0.6118031320E+00
    0.4700000000E+06    0.6776505752E+00    0.2341105389E-02    0.7009590990E-01    0.3829435222E-03    0.6119044129E+00
    0.4900000000E+06    0.6777457080E+00    0.2292322289E-02    0.7008020257E-01    0.3732739798E-03    0.6119998884E+00
    0.1000000000E+06    0.6677698014E+00    0.5549422761E-02    0.7049988480E-01    0.1178351025E-02    0.6068885416E+00
    0.3000000000E+06    0.6762995640E+00    0.2949285983E-02    0.7025230517E-01    0.5100067616E-03    0.6107699536E+00
    0.5000000000E+06    0.6777903280E+00    0.2269080714E-02    0.7007252167E-01    0.3686938657E-03    0.6120456267E+00
    0.7000000000E+06    0.6784094504E+00    0.1917649791E-02    0.6993870164E-01    0.3014962900E-03    0.6127583421E+00
    0.9000000000E+06    0.6787500655E+00    0.1693433885E-02    0.6983225944E-01    0.2605695011E-03    0.6132363684E+00
    0.1100000000E+07    0.6789664774E+00    0.1534233549E-02    0.6974382803E-01    0.2323854074E-03    0.6135890388E+00
    0.1300000000E+07    0.6791166387E+00    0.1413570263E-02    0.6966813615E-01    0.2114908585E-03    0.6138649815E+00
    0.1500000000E+07    0.6792272271E+00    0.1317985803E-02    0.6960193521E-01    0.1952179549E-03    0.6140896874E+00
    0.1700000000E+07    0.6793122509E+00    0.1239811362E-02    0.6954308285E-01    0.1820892655E-03    0.6142780360E+00
    0.1900000000E+07    0.6793797800E+00    0.1174311033E-02    0.6949009151E-01    0.1712125872E-03    0.6144394026E+00
    0.2100000000E+07    0.6794347961E+00    0.1118379563E-02    0.6944188592E-01    0.1620134331E-03    0.6145800417E+00
    0.2300000000E+07    0.6794805438E+00    0.1069884092E-02    0.6939766328E-01    0.1541031210E-03    0.6147043162E+00
    0.2500000000E+07    0.6795192287E+00    0.1027304258E-02    0.6935680817E-01    0.1472081133E-03    0.6148153798E+00
    0.2700000000E+07    0.6795524033E+00    0.9895228949E-03    0.6931883832E-01    0.1411296231E-03    0.6149155797E+00
    0.2900000000E+07    0.6795811932E+00    0.9556980598E-03    0.6928336864E-01    0.1357192784E-03    0.6150067062E+00
    0.3100000000E+07    0.6796064346E+00    0.9251814767E-03    0.6925008672E-01    0.1308638105E-03    0.6150901531E+00
    0.3300000000E+07    0.6796287618E+00    0.8974647227E-03    0.6921873557E-01    0.1264750640E-03    0.6151670253E+00
    0.3500000000E+07    0.6796486655E+00    0.8721426414E-03    0.6918910117E-01    0.1224832723E-03    0.6152382119E+00
    0.3700000000E+07    0.6796665307E+00    0.8488878230E-03    0.6916100340E-01    0.1188324089E-03    0.6153044384E+00
    0.3900000000E+07    0.6796826646E+00    0.8274323968E-03    0.6913428924E-01    0.1154768982E-03    0.6153663037E+00
    0.4100000000E+07    0.6796973145E+00    0.8075547824E-03    0.6910882751E-01    0.1123792387E-03    0.6154243076E+00
    0.4300000000E+07    0.6797106827E+00    0.7890698769E-03    0.6908450496E-01    0.1095082548E-03    0.6154788710E+00
    0.4500000000E+07    0.6797229356E+00    0.7718216722E-03    0.6906122310E-01    0.1068377901E-03    0.6155303517E+00
    0.4700000000E+07    0.6797342119E+00    0.7556776213E-03    0.6903889574E-01    0.1043457155E-03    0.6155790559E+00
    0.4900000000E+07    0.6797446278E+00    0.7405242844E-03    0.6901744703E-01    0.1020131662E-03    0.6156252478E+00
    0.1000000000E+07    0.6788690681E+00    0.1607806799E-02    0.6978618516E-01    0.2453221440E-03    0.6134245526E+00
    0.3000000000E+07    0.6795942139E+00    0.9400607965E-03    0.6926647141E-01    0.1332281920E-03    0.6150493148E+00
    0.5000000000E+07    0.6797495444E+00    0.7332880548E-03    0.6900703089E-01    0.1009015624E-03    0.6156474744E+00
    0.7000000000E+07    0.6798201507E+00    0.6226712673E-03    0.6883196048E-01    0.8409629570E-04    0.6160026480E+00
    0.9000000000E+07    0.6798613771E+00    0.5510927782E-03    0.6869946224E-01    0.7341810776E-04    0.6162512252E+00
    0.1100000000E+08    0.6798887738E+00    0.4998955552E-03    0.6859275780E-01    0.6588202035E-04    0.6164407198E+00
    0.1300000000E+08    0.6799084863E+00    0.4609219042E-03    0.6850338943E-01    0.6020570158E-04    0.6165929758E+00
    0.1500000000E+08    0.6799234550E+00    0.4299613008E-03    0.6842648606E-01    0.5573585365E-04    0.6167197522E+00
    0.1700000000E+08    0.6799352726E+00    0.4045907498E-03    0.6835898236E-01    0.5210039692E-04    0.6168280682E+00
    0.1900000000E+08    0.6799448811E+00    0.3833037580E-03    0.6829882270E-01    0.4906996842E-04    0.6169224325E+00
    0.2100000000E+08    0.6799528753E+00    0.3651077030E-03    0.6824456083E-01    0.4649454675E-04    0.6170059048E+00
    0.2300000000E+08    0.6799596508E+00    0.3493182929E-03    0.6819514031E-01    0.4427137142E-04    0.6170806520E+00
    0.2500000000E+08    0.6799654810E+00    0.3354463640E-03    0.6814976577E-01    0.4232740149E-04    0.6171482625E+00
    0.2700000000E+08    0.6799705620E+00    0.3231316730E-03    0.6810782331E-01    0.4060912094E-04    0.6172099332E+00
