  Pressure (Pa) 22mC5-400 (mol/kg) 2mC6-400 (mol/kg) 3mC6-400 (mol/kg) 33mC5-400 (mol/kg) C7-400 (mol/kg)
    0.1000000000E+01    0.5309535857E-03    0.2360410596E-02    0.2080904818E-02    0.3203686139E-03    0.1181918237E-01
    0.3000000000E+01    0.1582060377E-02    0.6797675055E-02    0.5962135334E-02    0.9229945892E-03    0.3387134198E-01
    0.5000000000E+01    0.2619081691E-02    0.1089808684E-01    0.9510203272E-02    0.1480369117E-02    0.5403968418E-01
    0.7000000000E+01    0.3642383628E-02    0.1470368649E-01    0.1276699648E-01    0.1998163003E-02    0.7256069596E-01
    0.9000000000E+01    0.4652319201E-02    0.1824959751E-01    0.1576763198E-01    0.2481111011E-02    0.8963266726E-01
    0.1100000000E+02    0.5649228929E-02    0.2156539406E-01    0.1854177266E-01    0.2933197287E-02    0.1054231154E+00
    0.1300000000E+02    0.6633441388E-02    0.2467615741E-01    0.2111464806E-01    0.3357798552E-02    0.1200745420E+00
    0.1500000000E+02    0.7605273739E-02    0.2760330071E-01    0.2350785414E-01    0.3757795843E-02    0.1337089429E+00
    0.1700000000E+02    0.8565032225E-02    0.3036521897E-01    0.2573998580E-01    0.4135662555E-02    0.1464313764E+00
    0.1900000000E+02    0.9513012649E-02    0.3297780590E-01    0.2782714170E-01    0.4493534415E-02    0.1583328104E+00
    0.2100000000E+02    0.1044950081E-01    0.3545486835E-01    0.2978333037E-01    0.4833265572E-02    0.1694924138E+00
    0.2300000000E+02    0.1137477295E-01    0.3780846105E-01    0.3162079950E-01    0.5156473894E-02    0.1799794140E+00
    0.2500000000E+02    0.1228909612E-01    0.4004915911E-01    0.3335030487E-01    0.5464577806E-02    0.1898546145E+00
    0.2700000000E+02    0.1319272861E-01    0.4218628113E-01    0.3498133135E-01    0.5758826470E-02    0.1991716421E+00
    0.2900000000E+02    0.1408592028E-01    0.4422807323E-01    0.3652227573E-01    0.6040324641E-02    0.2079779782E+00
    0.3100000000E+02    0.1496891290E-01    0.4618186160E-01    0.3798059887E-01    0.6310053276E-02    0.2163158178E+00
    0.3300000000E+02    0.1584194051E-01    0.4805417970E-01    0.3936295290E-01    0.6568886710E-02    0.2242227880E+00
    0.3500000000E+02    0.1670522972E-01    0.4985087491E-01    0.4067528832E-01    0.6817607054E-02    0.2317325514E+00
    0.3700000000E+02    0.1755899998E-01    0.5157719839E-01    0.4192294437E-01    0.7056916306E-02    0.2388753173E+00
    0.3900000000E+02    0.1840346390E-01    0.5323788104E-01    0.4311072589E-01    0.7287446609E-02    0.2456782753E+00
    0.4100000000E+02    0.1923882752E-01    0.5483719824E-01    0.4424296873E-01    0.7509768964E-02    0.2521659642E+00
    0.4300000000E+02    0.2006529053E-01    0.5637902496E-01    0.4532359584E-01    0.7724400663E-02    0.2583605897E+00
    0.4500000000E+02    0.2088304655E-01    0.5786688310E-01    0.4635616549E-01    0.7931811662E-02    0.2642822958E+00
    0.4700000000E+02    0.2169228335E-01    0.5930398218E-01    0.4734391284E-01    0.8132430057E-02    0.2699493997E+00
    0.4900000000E+02    0.2249318307E-01    0.6069325453E-01    0.4828978595E-01    0.8326646820E-02    0.2753785960E+00
    0.1000000000E+02    0.5152381486E-02    0.1993459785E-01    0.1718134372E-01    0.2710788025E-02    0.9767864718E-01
    0.3000000000E+02    0.1452867666E-01    0.4521554230E-01    0.3726133159E-01    0.6176603186E-02    0.2122030089E+00
    0.5000000000E+02    0.2289056197E-01    0.6137080381E-01    0.4874787021E-01    0.8421467636E-02    0.2780087958E+00
    0.7000000000E+02    0.3044081181E-01    0.7295733160E-01    0.5625497686E-01    0.1005458301E-01    0.3212035209E+00
    0.9000000000E+02    0.3732957867E-01    0.8180004229E-01    0.6158124115E-01    0.1131894090E-01    0.3519794630E+00
    0.1100000000E+03    0.4367062994E-01    0.8880674634E-01    0.6557670090E-01    0.1233522933E-01    0.3751607133E+00
    0.1300000000E+03    0.4955188855E-01    0.9449710346E-01    0.6869695811E-01    0.1317256874E-01    0.3933366332E+00
    0.1500000000E+03    0.5504248687E-01    0.9919853292E-01    0.7120898709E-01    0.1387459686E-01    0.4080267219E+00
    0.1700000000E+03    0.6019761382E-01    0.1031318472E+00    0.7328002406E-01    0.1447083116E-01    0.4201841709E+00
    0.1900000000E+03    0.6506192367E-01    0.1064535603E+00    0.7502040486E-01    0.1498226911E-01    0.4304387475E+00
    0.2100000000E+03    0.6967198311E-01    0.1092788513E+00    0.7650600949E-01    0.1542442357E-01    0.4392241621E+00
    0.2300000000E+03    0.7405806029E-01    0.1116949802E+00    0.7779082565E-01    0.1580909547E-01    0.4468494232E+00
    0.2500000000E+03    0.7824545454E-01    0.1137696018E+00    0.7891436873E-01    0.1614547269E-01    0.4535410165E+00
    0.2700000000E+03    0.8225549933E-01    0.1155561661E+00    0.7990626361E-01    0.1644084465E-01    0.4594689711E+00
    0.2900000000E+03    0.8610632907E-01    0.1170975655E+00    0.8078918176E-01    0.1670108566E-01    0.4647635840E+00
    0.3100000000E+03    0.8981347253E-01    0.1184286782E+00    0.8158078563E-01    0.1693099243E-01    0.4695265003E+00
    0.3300000000E+03    0.9339031725E-01    0.1195781889E+00    0.8229505178E-01    0.1713452642E-01    0.4738382605E+00
    0.3500000000E+03    0.9684847677E-01    0.1205699227E+00    0.8294319357E-01    0.1731499165E-01    0.4777635666E+00
    0.3700000000E+03    0.1001980838E+00    0.1214238413E+00    0.8353431829E-01    0.1747516780E-01    0.4813550374E+00
    0.3900000000E+03    0.1034480260E+00    0.1221567990E+00    0.8407590427E-01    0.1761741158E-01    0.4846559355E+00
    0.4100000000E+03    0.1066061381E+00    0.1227831255E+00    0.8457415313E-01    0.1774373494E-01    0.4877021837E+00
    0.4300000000E+03    0.1096793580E+00    0.1233150806E+00    0.8503425380E-01    0.1785586633E-01    0.4905238771E+00
    0.4500000000E+03    0.1126738565E+00    0.1237632131E+00    0.8546058334E-01    0.1795529909E-01    0.4931464337E+00
    0.4700000000E+03    0.1155951437E+00    0.1241366469E+00    0.8585686134E-01    0.1804333021E-01    0.4955914805E+00
    0.4900000000E+03    0.1184481589E+00    0.1244433112E+00    0.8622627028E-01    0.1812109159E-01    0.4978775444E+00
    0.1000000000E+03    0.4056256370E-01    0.8549442276E-01    0.6371086824E-01    0.1185297881E-01    0.3643236962E+00
    0.3000000000E+03    0.8797697939E-01    0.1177874873E+00    0.8119545043E-01    0.1681956599E-01    0.4672060464E+00
    0.5000000000E+03    0.1198504705E+00    0.1245738029E+00    0.8640177020E-01    0.1815643603E-01    0.4989660359E+00
    0.7000000000E+03    0.1451877156E+00    0.1249673067E+00    0.8900168456E-01    0.1851046436E-01    0.5153133765E+00
    0.9000000000E+03    0.1668540511E+00    0.1230462572E+00    0.9058545737E-01    0.1847422823E-01    0.5255477507E+00
    0.1100000000E+04    0.1861091762E+00    0.1201675844E+00    0.9166014473E-01    0.1825475467E-01    0.5326714893E+00
    0.1300000000E+04    0.2036171881E+00    0.1168863268E+00    0.9244087368E-01    0.1794153849E-01    0.5379727486E+00
    0.1500000000E+04    0.2197720929E+00    0.1134590140E+00    0.9303544395E-01    0.1757873321E-01    0.5421037998E+00
    0.1700000000E+04    0.2348280816E+00    0.1100135916E+00    0.9350418607E-01    0.1719018208E-01    0.5454333195E+00
    0.1900000000E+04    0.2489598179E+00    0.1066167585E+00    0.9388364759E-01    0.1678962107E-01    0.5481867744E+00
    0.2100000000E+04    0.2622934210E+00    0.1033038403E+00    0.9419733181E-01    0.1638534460E-01    0.5505104917E+00
    0.2300000000E+04    0.2749237025E+00    0.1000932032E+00    0.9446107700E-01    0.1598253236E-01    0.5525039563E+00
    0.2500000000E+04    0.2869243716E+00    0.9699367522E-01    0.9468596556E-01    0.1558449165E-01    0.5542373845E+00
    0.2700000000E+04    0.2983543862E+00    0.9400856859E-01    0.9487999603E-01    0.1519335819E-01    0.5557618846E+00
    0.2900000000E+04    0.3092620698E+00    0.9113795046E-01    0.9504909293E-01    0.1481051001E-01    0.5571156279E+00
    0.3100000000E+04    0.3196878729E+00    0.8837996873E-01    0.9519774246E-01    0.1443682143E-01    0.5583277554E+00
    0.3300000000E+04    0.3296662805E+00    0.8573164673E-01    0.9532940679E-01    0.1407282427E-01    0.5594209381E+00
    0.3500000000E+04    0.3392271600E+00    0.8318936966E-01    0.9544680233E-01    0.1371881299E-01    0.5604131053E+00
    0.3700000000E+04    0.3483967379E+00    0.8074918716E-01    0.9555209152E-01    0.1337491520E-01    0.5613186424E+00
    0.3900000000E+04    0.3571983178E+00    0.7840700338E-01    0.9564701804E-01    0.1304113992E-01    0.5621492393E+00
    0.4100000000E+04    0.3656528194E+00    0.7615869709E-01    0.9573300414E-01    0.1271741122E-01    0.5629145047E+00
    0.4300000000E+04    0.3737791881E+00    0.7400019728E-01    0.9581122182E-01    0.1240359224E-01    0.5636224172E+00
    0.4500000000E+04    0.3815947117E+00    0.7192753028E-01    0.9588264589E-01    0.1209950248E-01    0.5642796632E+00
    0.4700000000E+04    0.3891152678E+00    0.6993684828E-01    0.9594809400E-01    0.1180493044E-01    0.5648918933E+00
    0.4900000000E+04    0.3963555192E+00    0.6802444572E-01    0.9600825722E-01    0.1151964305E-01    0.5654639192E+00
    0.1000000000E+04    0.1767328411E+00    0.1216816786E+00    0.9116932037E-01    0.1838026521E-01    0.5293962554E+00
    0.3000000000E+04    0.3145329293E+00    0.8974504656E-01    0.9512573701E-01    0.1462248095E-01    0.5577378484E+00
    0.5000000000E+04    0.3998748202E+00    0.6709648232E-01    0.9603654429E-01    0.1138040415E-01    0.5657361682E+00
    0.7000000000E+04    0.4584086330E+00    0.5186545097E-01    0.9643029058E-01    0.9020015280E-02    0.5698201985E+00
    0.9000000000E+04    0.5000829618E+00    0.4132662769E-01    0.9664111958E-01    0.7302389830E-02    0.5723777913E+00
    0.1100000000E+05    0.5306216801E+00    0.3381076087E-01    0.9676665989E-01    0.6032334417E-02    0.5741610561E+00
    0.1300000000E+05    0.5535846633E+00    0.2829629578E-01    0.9684593179E-01    0.5074430383E-02    0.5754909151E+00
    0.1500000000E+05    0.5712577360E+00    0.2414445462E-01    0.9689756319E-01    0.4337351245E-02    0.5765297430E+00
    0.1700000000E+05    0.5851457188E+00    0.2094554022E-01    0.9693154275E-01    0.3759381317E-02    0.5773693218E+00
    0.1900000000E+05    0.5962631317E+00    0.1842984067E-01    0.9695368663E-01    0.3298273474E-02    0.5780657732E+00
    0.2100000000E+05    0.6053098453E+00    0.1641524626E-01    0.9696759664E-01    0.2924611517E-02    0.5786555019E+00
    0.2300000000E+05    0.6127793115E+00    0.1477582893E-01    0.9697561250E-01    0.2617537311E-02    0.5791632402E+00
    0.2500000000E+05    0.6190265979E+00    0.1342256569E-01    0.9697931321E-01    0.2361992283E-02    0.5796064289E+00
    0.2700000000E+05    0.6243120463E+00    0.1229123481E-01    0.9697979803E-01    0.2146916328E-02    0.5799977510E+00
    0.2900000000E+05    0.6288298682E+00    0.1133464084E-01    0.9697785228E-01    0.1964054106E-02    0.5803466712E+00
    0.3100000000E+05    0.6327272519E+00    0.1051751028E-01    0.9697404929E-01    0.1807150871E-02    0.5806604097E+00
    0.3300000000E+05    0.6361173724E+00    0.9813070988E-02    0.9696881538E-01    0.1671401665E-02    0.5809445800E+00
    0.3500000000E+05    0.6390884108E+00    0.9200715688E-02    0.9696247268E-01    0.1553067925E-02    0.5812036192E+00
    0.3700000000E+05    0.6417099125E+00    0.8664377133E-02    0.9695526785E-01    0.1449206444E-02    0.5814410863E+00
    0.3900000000E+05    0.6440373387E+00    0.8191379441E-02    0.9694739208E-01    0.1357474936E-02    0.5816598724E+00
    0.4100000000E+05    0.6461153736E+00    0.7771613449E-02    0.9693899504E-01    0.1275990624E-02    0.5818623538E+00
    0.4300000000E+05    0.6479803596E+00    0.7396936239E-02    0.9693019499E-01    0.1203226044E-02    0.5820505034E+00
    0.4500000000E+05    0.6496621129E+00    0.7060728084E-02    0.9692108607E-01    0.1137931346E-02    0.5822259749E+00
    0.4700000000E+05    0.6511852930E+00    0.6757561533E-02    0.9691174375E-01    0.1079075689E-02    0.5823901658E+00
    0.4900000000E+05    0.6525704480E+00    0.6482951405E-02    0.9690222886E-01    0.1025802568E-02    0.5825442665E+00
    0.1000000000E+05    0.5164841738E+00    0.3726606072E-01    0.9671140321E-01    0.6621111044E-02    0.5733407441E+00
    0.3000000000E+05    0.6308483655E+00    0.1091048356E-01    0.9697615343E-01    0.1882686754E-02    0.5805075555E+00
    0.5000000000E+05    0.6532167649E+00    0.6355163108E-02    0.9689742249E-01    0.1001030840E-02    0.5826178579E+00
    0.7000000000E+05    0.6619093875E+00    0.4654412846E-02    0.9680025194E-01    0.6741520703E-03    0.5837456552E+00
    0.9000000000E+05    0.6664065393E+00    0.3779634244E-02    0.9670907327E-01    0.5107971485E-03    0.5844829318E+00
    0.1100000000E+06    0.6691243154E+00    0.3245039473E-02    0.9662657135E-01    0.4144938909E-03    0.5850175655E+00
    0.1300000000E+06    0.6709345424E+00    0.2881743146E-02    0.9655210493E-01    0.3514571807E-03    0.5854306302E+00
    0.1500000000E+06    0.6722231204E+00    0.2616665807E-02    0.9648454798E-01    0.3071164002E-03    0.5857637243E+00
    0.1700000000E+06    0.6731856482E+00    0.2413245611E-02    0.9642284844E-01    0.2742498916E-03    0.5860407383E+00
    0.1900000000E+06    0.6739313410E+00    0.2251195260E-02    0.9636612497E-01    0.2489023052E-03    0.5862765315E+00
    0.2100000000E+06    0.6745257785E+00    0.2118349661E-02    0.9631365914E-01    0.2287376342E-03    0.5864809125E+00
    0.2300000000E+06    0.6750106332E+00    0.2006961058E-02    0.9626486742E-01    0.2122924487E-03    0.5866606624E+00
    0.2500000000E+06    0.6754136155E+00    0.1911851911E-02    0.9621927343E-01    0.1986054566E-03    0.5868206455E+00
    0.2700000000E+06    0.6757538498E+00    0.1829423848E-02    0.9617648513E-01    0.1870201374E-03    0.5869644582E+00
    0.2900000000E+06    0.6760449506E+00    0.1757093236E-02    0.9613617696E-01    0.1770732826E-03    0.5870948274E+00
    0.3100000000E+06    0.6762968684E+00    0.1692953433E-02    0.9609807611E-01    0.1684289263E-03    0.5872138653E+00
    0.3300000000E+06    0.6765170413E+00    0.1635564076E-02    0.9606195199E-01    0.1608375464E-03    0.5873232379E+00
    0.3500000000E+06    0.6767111393E+00    0.1583814868E-02    0.9602760811E-01    0.1541099706E-03    0.5874242808E+00
    0.3700000000E+06    0.6768835592E+00    0.1536834775E-02    0.9599487574E-01    0.1481001735E-03    0.5875180790E+00
    0.3900000000E+06    0.6770377621E+00    0.1493929845E-02    0.9596360899E-01    0.1426936286E-03    0.5876055255E+00
    0.4100000000E+06    0.6771765098E+00    0.1454539620E-02    0.9593368093E-01    0.1377992354E-03    0.5876873628E+00
    0.4300000000E+06    0.6773020323E+00    0.1418205924E-02    0.9590498038E-01    0.1333436055E-03    0.5877642146E+00
    0.4500000000E+06    0.6774161503E+00    0.1384550110E-02    0.9587740951E-01    0.1292669428E-03    0.5878366091E+00
    0.4700000000E+06    0.6775203643E+00    0.1353256176E-02    0.9585088174E-01    0.1255200229E-03    0.5879049978E+00
    0.4900000000E+06    0.6776159224E+00    0.1324058056E-02    0.9582532008E-01    0.1220619432E-03    0.5879697687E+00
    0.1000000000E+06    0.6679159696E+00    0.3483833447E-02    0.9666675311E-01    0.4570688694E-03    0.5847691671E+00
    0.3000000000E+06    0.6761752938E+00    0.1724098563E-02    0.9611686592E-01    0.1726055534E-03    0.5871556497E+00
    0.5000000000E+06    0.6776607892E+00    0.1310173001E-02    0.9581287979E-01    0.1204302856E-03    0.5880009043E+00
    0.7000000000E+06    0.6782869501E+00    0.1102083706E-02    0.9560140966E-01    0.9695608200E-04    0.5884958317E+00
    0.9000000000E+06    0.6786350330E+00    0.9709193719E-03    0.9543877915E-01    0.8307623665E-04    0.5888394869E+00
    0.1100000000E+07    0.6788579939E+00    0.8784093336E-03    0.9530646205E-01    0.7369141810E-04    0.5891000864E+00
    0.1300000000E+07    0.6790137462E+00    0.8085853629E-03    0.9519483761E-01    0.6681947886E-04    0.5893086779E+00
    0.1500000000E+07    0.6791291200E+00    0.7534301420E-03    0.9509825694E-01    0.6151487022E-04    0.5894818566E+00
    0.1700000000E+07    0.6792182781E+00    0.7084125783E-03    0.9501311576E-01    0.5726362404E-04    0.5896294756E+00
    0.1900000000E+07    0.6792894169E+00    0.6707508068E-03    0.9493697155E-01    0.5375976164E-04    0.5897578368E+00
    0.2100000000E+07    0.6793476165E+00    0.6386287492E-03    0.9486809151E-01    0.5080847531E-04    0.5898712022E+00
    0.2300000000E+07    0.6793961974E+00    0.6108032125E-03    0.9480520126E-01    0.4827916180E-04    0.5899725812E+00
    0.2500000000E+07    0.6794374243E+00    0.5863903740E-03    0.9474733589E-01    0.4608059796E-04    0.5900641739E+00
    0.2700000000E+07    0.6794728962E+00    0.5647421985E-03    0.9469374706E-01    0.4414690673E-04    0.5901476351E+00
    0.2900000000E+07    0.6795037755E+00    0.5453711665E-03    0.9464384254E-01    0.4242918116E-04    0.5902242390E+00
    0.3100000000E+07    0.6795309280E+00    0.5279024586E-03    0.9459714555E-01    0.4089025676E-04    0.5902949867E+00
    0.3300000000E+07    0.6795550124E+00    0.5120424859E-03    0.9455326650E-01    0.3950132422E-04    0.5903606786E+00
    0.3500000000E+07    0.6795765388E+00    0.4975575437E-03    0.9451188293E-01    0.3823966332E-04    0.5904219637E+00
    0.3700000000E+07    0.6795959089E+00    0.4842589501E-03    0.9447272490E-01    0.3708708466E-04    0.5904793757E+00
    0.3900000000E+07    0.6796134435E+00    0.4719924611E-03    0.9443556413E-01    0.3602883218E-04    0.5905333585E+00
    0.4100000000E+07    0.6796294017E+00    0.4606305789E-03    0.9440020585E-01    0.3505279368E-04    0.5905842846E+00
    0.4300000000E+07    0.6796439955E+00    0.4500668627E-03    0.9436648253E-01    0.3414892225E-04    0.5906324702E+00
    0.4500000000E+07    0.6796574000E+00    0.4402116534E-03    0.9433424902E-01    0.3330880518E-04    0.5906781853E+00
    0.4700000000E+07    0.6796697609E+00    0.4309888138E-03    0.9430337872E-01    0.3252533780E-04    0.5907216628E+00
    0.4900000000E+07    0.6796812010E+00    0.4223332119E-03    0.9427376056E-01    0.3179247354E-04    0.5907631042E+00
    0.1000000000E+07    0.6787574365E+00    0.9211039694E-03    0.9536956062E-01    0.7798218988E-04    0.5889777433E+00
    0.3000000000E+07    0.6795177724E+00    0.5364189864E-03    0.9462011923E-01    0.4163933443E-04    0.5902602908E+00
    0.5000000000E+07    0.6796866087E+00    0.4182002876E-03    0.9425938994E-01    0.3144336867E-04    0.5907831174E+00
    0.7000000000E+07    0.6797648893E+00    0.3550525403E-03    0.9401900458E-01    0.2617654358E-04    0.5911094740E+00
    0.9000000000E+07    0.6798112523E+00    0.3142163235E-03    0.9383833502E-01    0.2283944775E-04    0.5913454905E+00
    0.1100000000E+08    0.6798424088E+00    0.2850176436E-03    0.9369350056E-01    0.2048805093E-04    0.5915297799E+00
    0.1300000000E+08    0.6798650342E+00    0.2627948165E-03    0.9357259601E-01    0.1871872241E-04    0.5916806498E+00
    0.1500000000E+08    0.6798823495E+00    0.2451433983E-03    0.9346881655E-01    0.1732641854E-04    0.5918081945E+00
    0.1700000000E+08    0.6798961127E+00    0.2306803419E-03    0.9337790382E-01    0.1619458395E-04    0.5919185585E+00
    0.1900000000E+08    0.6799073701E+00    0.2185460094E-03    0.9329701460E-01    0.1525146925E-04    0.5920157544E+00
    0.2100000000E+08    0.6799167862E+00    0.2081741193E-03    0.9322415555E-01    0.1445019350E-04    0.5921025440E+00
    0.2300000000E+08    0.6799248051E+00    0.1991743583E-03    0.9315787488E-01    0.1375867049E-04    0.5921809079E+00
    0.2500000000E+08    0.6799317354E+00    0.1912677509E-03    0.9309708226E-01    0.1315410844E-04    0.5922523137E+00
    0.2700000000E+08    0.6799377990E+00    0.1842488691E-03    0.9304093792E-01    0.1261981692E-04    0.5923178786E+00
