  Pressure (Pa) 22mC5-400 (mol/kg) 2mC6-400 (mol/kg) 3mC6-400 (mol/kg) 33mC5-400 (mol/kg) C7-400 (mol/kg)
    0.1000000000E+01    0.5302363723E-03    0.3918330984E-02    0.2072353543E-02    0.1276395588E-03    0.1345237580E-01
    0.3000000000E+01    0.1575743119E-02    0.1120123681E-01    0.5892751243E-02    0.3650466474E-03    0.3826164820E-01
    0.5000000000E+01    0.2601903490E-02    0.1783824484E-01    0.9335560182E-02    0.5816184005E-03    0.6063067075E-01
    0.7000000000E+01    0.3609415339E-02    0.2392120700E-01    0.1245539335E-01    0.7803279171E-03    0.8091185834E-01
    0.9000000000E+01    0.4598941921E-02    0.2952478222E-01    0.1529675634E-01    0.9635901204E-03    0.9939245260E-01
    0.1100000000E+02    0.5571114043E-02    0.3471029881E-01    0.1789628619E-01    0.1133387382E-02    0.1163089515E+00
    0.1300000000E+02    0.6526532060E-02    0.3952862174E-01    0.2028442008E-01    0.1291362743E-02    0.1318578653E+00
    0.1500000000E+02    0.7465767713E-02    0.4402231102E-01    0.2248665634E-01    0.1438890065E-02    0.1462038458E+00
    0.1700000000E+02    0.8389365851E-02    0.4822726714E-01    0.2452451955E-01    0.1577127480E-02    0.1594859080E+00
    0.1900000000E+02    0.9297846010E-02    0.5217400018E-01    0.2641630758E-01    0.1707058603E-02    0.1718222477E+00
    0.2100000000E+02    0.1019170390E-01    0.5588861904E-01    0.2817767609E-01    0.1829524642E-02    0.1833140099E+00
    0.2300000000E+02    0.1107141277E-01    0.5939361016E-01    0.2982210030E-01    0.1945249658E-02    0.1940482673E+00
    0.2500000000E+02    0.1193742469E-01    0.6270845618E-01    0.3136124301E-01    0.2054860631E-02    0.2041003941E+00
    0.2700000000E+02    0.1279017176E-01    0.6585013154E-01    0.3280525050E-01    0.2158903524E-02    0.2135359740E+00
    0.2900000000E+02    0.1363006719E-01    0.6883350270E-01    0.3416299216E-01    0.2257856249E-02    0.2224123471E+00
    0.3100000000E+02    0.1445750635E-01    0.7167165370E-01    0.3544225599E-01    0.2352139208E-02    0.2307798705E+00
    0.3300000000E+02    0.1527286777E-01    0.7437615274E-01    0.3664990926E-01    0.2442123922E-02    0.2386829552E+00
    0.3500000000E+02    0.1607651399E-01    0.7695727205E-01    0.3779203122E-01    0.2528140146E-02    0.2461609228E+00
    0.3700000000E+02    0.1686879245E-01    0.7942417016E-01    0.3887402354E-01    0.2610481763E-02    0.2532487175E+00
    0.3900000000E+02    0.1765003629E-01    0.8178504398E-01    0.3990070255E-01    0.2689411696E-02    0.2599775025E+00
    0.4100000000E+02    0.1842056505E-01    0.8404725637E-01    0.4087637687E-01    0.2765166032E-02    0.2663751603E+00
    0.4300000000E+02    0.1918068541E-01    0.8621744363E-01    0.4180491293E-01    0.2837957491E-02    0.2724667159E+00
    0.4500000000E+02    0.1993069182E-01    0.8830160660E-01    0.4268979060E-01    0.2907978367E-02    0.2782746961E+00
    0.4700000000E+02    0.2067086712E-01    0.9030518815E-01    0.4353415054E-01    0.2975403029E-02    0.2838194353E+00
    0.4900000000E+02    0.2140148313E-01    0.9223313947E-01    0.4434083485E-01    0.3040390054E-02    0.2891193377E+00
    0.1000000000E+02    0.5087159076E-02    0.3216640175E-01    0.1662471923E-01    0.1050062142E-02    0.1080331009E+00
    0.3000000000E+02    0.1404531976E-01    0.7026997496E-01    0.3481198469E-01    0.2305557174E-02    0.2266568108E+00
    0.5000000000E+02    0.2176328846E-01    0.9317018074E-01    0.4473086384E-01    0.3072015148E-02    0.2916827547E+00
    0.7000000000E+02    0.2855604609E-01    0.1088529274E+00    0.5106804617E-01    0.3605752449E-02    0.3334309953E+00
    0.9000000000E+02    0.3463629840E-01    0.1203527774E+00    0.5551232965E-01    0.4003916065E-02    0.3628461827E+00
    0.1100000000E+03    0.4015341297E-01    0.1291409915E+00    0.5882645809E-01    0.4313617308E-02    0.3848798374E+00
    0.1300000000E+03    0.4521571546E-01    0.1360436495E+00    0.6140756246E-01    0.4561364670E-02    0.4021143052E+00
    0.1500000000E+03    0.4990391924E-01    0.1415712255E+00    0.6348382549E-01    0.4763593041E-02    0.4160357691E+00
    0.1700000000E+03    0.5427956276E-01    0.1460608414E+00    0.6519622185E-01    0.4931199276E-02    0.4275638926E+00
    0.1900000000E+03    0.5839050316E-01    0.1497461835E+00    0.6663684001E-01    0.5071769739E-02    0.4373003769E+00
    0.2100000000E+03    0.6227460462E-01    0.1527953098E+00    0.6786855238E-01    0.5190785153E-02    0.4456566689E+00
    0.2300000000E+03    0.6596228147E-01    0.1553326293E+00    0.6893585363E-01    0.5292321795E-02    0.4529243967E+00
    0.2500000000E+03    0.6947829301E-01    0.1574524206E+00    0.6987118348E-01    0.5379483455E-02    0.4593165002E+00
    0.2700000000E+03    0.7284303666E-01    0.1592275293E+00    0.7069879284E-01    0.5454679883E-02    0.4649924042E+00
    0.2900000000E+03    0.7607349691E-01    0.1607151709E+00    0.7143720289E-01    0.5519812987E-02    0.4700740461E+00
    0.3100000000E+03    0.7918395320E-01    0.1619609209E+00    0.7210082255E-01    0.5576405196E-02    0.4746564270E+00
    0.3300000000E+03    0.8218651593E-01    0.1630015307E+00    0.7270104361E-01    0.5625690243E-02    0.4788147630E+00
    0.3500000000E+03    0.8509153776E-01    0.1638669567E+00    0.7324700103E-01    0.5668678786E-02    0.4826094544E+00
    0.3700000000E+03    0.8790793313E-01    0.1645818516E+00    0.7374611273E-01    0.5706206744E-02    0.4860896166E+00
    0.3900000000E+03    0.9064342924E-01    0.1651666778E+00    0.7420447024E-01    0.5738971501E-02    0.4892956383E+00
    0.4100000000E+03    0.9330476529E-01    0.1656385517E+00    0.7462712651E-01    0.5767559410E-02    0.4922610673E+00
    0.4300000000E+03    0.9589785205E-01    0.1660118914E+00    0.7501831129E-01    0.5792466970E-02    0.4950140240E+00
    0.4500000000E+03    0.9842790087E-01    0.1662989196E+00    0.7538159457E-01    0.5814117322E-02    0.4975782736E+00
    0.4700000000E+03    0.1008995288E+00    0.1665100593E+00    0.7572001225E-01    0.5832873231E-02    0.4999740524E+00
    0.4900000000E+03    0.1033168448E+00    0.1666542464E+00    0.7603616382E-01    0.5849047405E-02    0.5022187102E+00
    0.1000000000E+03    0.3745770419E-01    0.1250243319E+00    0.5728043057E-01    0.4167852483E-02    0.3745892077E+00
    0.3000000000E+03    0.7764292315E-01    0.1613658055E+00    0.7177758903E-01    0.5549093698E-02    0.4724225462E+00
    0.5000000000E+03    0.1045062988E+00    0.1667036811E+00    0.7618660210E-01    0.5856252446E-02    0.5032891280E+00
    0.7000000000E+03    0.1261599066E+00    0.1655791814E+00    0.7843636076E-01    0.5914678529E-02    0.5195097909E+00
    0.9000000000E+03    0.1449391764E+00    0.1623944659E+00    0.7983108626E-01    0.5881983011E-02    0.5298301125E+00
    0.1100000000E+04    0.1618376352E+00    0.1584652837E+00    0.8079143791E-01    0.5808655220E-02    0.5371069356E+00
    0.1300000000E+04    0.1773727823E+00    0.1542863312E+00    0.8149792545E-01    0.5715325117E-02    0.5425799792E+00
    0.1500000000E+04    0.1918503053E+00    0.1500689485E+00    0.8204193779E-01    0.5611768086E-02    0.5468833677E+00
    0.1700000000E+04    0.2054670605E+00    0.1459099831E+00    0.8247509595E-01    0.5503104530E-02    0.5503787388E+00
    0.1900000000E+04    0.2183581095E+00    0.1418549124E+00    0.8282893302E-01    0.5392216114E-02    0.5532890172E+00
    0.2100000000E+04    0.2306207540E+00    0.1379244452E+00    0.8312388163E-01    0.5280812526E-02    0.5557599097E+00
    0.2300000000E+04    0.2423278889E+00    0.1341267520E+00    0.8337380653E-01    0.5169948365E-02    0.5578911150E+00
    0.2500000000E+04    0.2535359180E+00    0.1304634662E+00    0.8358847132E-01    0.5060292377E-02    0.5597534086E+00
    0.2700000000E+04    0.2642896958E+00    0.1269327772E+00    0.8377496453E-01    0.4952276076E-02    0.5613985785E+00
    0.2900000000E+04    0.2746257429E+00    0.1235310837E+00    0.8393856575E-01    0.4846179799E-02    0.5628654910E+00
    0.3100000000E+04    0.2845744147E+00    0.1202539010E+00    0.8408329353E-01    0.4742184573E-02    0.5641839505E+00
    0.3300000000E+04    0.2941614046E+00    0.1170963663E+00    0.8421226430E-01    0.4640404460E-02    0.5653772397E+00
    0.3500000000E+04    0.3034088140E+00    0.1140535226E+00    0.8432793449E-01    0.4540907351E-02    0.5664638421E+00
    0.3700000000E+04    0.3123359285E+00    0.1111204754E+00    0.8443226815E-01    0.4443728679E-02    0.5674586406E+00
    0.3900000000E+04    0.3209597925E+00    0.1082924779E+00    0.8452685558E-01    0.4348880678E-02    0.5683737703E+00
    0.4100000000E+04    0.3292956412E+00    0.1055649737E+00    0.8461299907E-01    0.4256358785E-02    0.5692192365E+00
    0.4300000000E+04    0.3373572288E+00    0.1029336151E+00    0.8469177589E-01    0.4166146130E-02    0.5700033718E+00
    0.4500000000E+04    0.3451570833E+00    0.1003942676E+00    0.8476408532E-01    0.4078216765E-02    0.5707331790E+00
    0.4700000000E+04    0.3527067038E+00    0.9794300563E-01    0.8483068427E-01    0.3992538011E-02    0.5714145915E+00
    0.4900000000E+04    0.3600167170E+00    0.9557610523E-01    0.8489221469E-01    0.3909072199E-02    0.5720526743E+00
    0.1000000000E+04    0.1535843370E+00    0.1604820527E+00    0.8035123850E-01    0.5848734341E-02    0.5337508941E+00
    0.3000000000E+04    0.2796467998E+00    0.1218772277E+00    0.8401307618E-01    0.4793911143E-02    0.5635416927E+00
    0.5000000000E+04    0.3635849843E+00    0.9442317939E-01    0.8492125368E-01    0.3868156339E-02    0.5723568518E+00
    0.7000000000E+04    0.4244698849E+00    0.7502534262E-01    0.8533477109E-01    0.3154886605E-02    0.5769599906E+00
    0.9000000000E+04    0.4697356869E+00    0.6097894414E-01    0.8556719630E-01    0.2609438621E-02    0.5798837444E+00
    0.1100000000E+05    0.5039997674E+00    0.5058530381E-01    0.8571281886E-01    0.2189786999E-02    0.5819419375E+00
    0.1300000000E+05    0.5303854143E+00    0.4273608974E-01    0.8581017542E-01    0.1863306965E-02    0.5834871097E+00
    0.1500000000E+05    0.5510470604E+00    0.3669285966E-01    0.8587801864E-01    0.1605955245E-02    0.5846998823E+00
    0.1700000000E+05    0.5674865620E+00    0.3195549824E-01    0.8592657966E-01    0.1400318781E-02    0.5856834255E+00
    0.1900000000E+05    0.5807629207E+00    0.2817969676E-01    0.8596191303E-01    0.1233812974E-02    0.5865013731E+00
    0.2100000000E+05    0.5916327945E+00    0.2512436501E-01    0.8598782664E-01    0.1097291497E-02    0.5871952961E+00
    0.2300000000E+05    0.6006445669E+00    0.2261778984E-01    0.8600683166E-01    0.9840430738E-03    0.5877936009E+00
    0.2500000000E+05    0.6082014885E+00    0.2053561847E-01    0.8602064817E-01    0.8890866565E-03    0.5883164140E+00
    0.2700000000E+05    0.6146043539E+00    0.1878634841E-01    0.8603049155E-01    0.8086803126E-03    0.5887784288E+00
    0.2900000000E+05    0.6200806392E+00    0.1730162654E-01    0.8603724313E-01    0.7399785969E-03    0.5891906452E+00
    0.3100000000E+05    0.6248046320E+00    0.1602966580E-01    0.8604155612E-01    0.6807920014E-03    0.5895614775E+00
    0.3300000000E+05    0.6289115168E+00    0.1493070966E-01    0.8604392385E-01    0.6294165421E-03    0.5898974822E+00
    0.3500000000E+05    0.6325073591E+00    0.1397386103E-01    0.8604472500E-01    0.5845117748E-03    0.5902038521E+00
    0.3700000000E+05    0.6356762740E+00    0.1313483311E-01    0.8604425435E-01    0.5450125167E-03    0.5904847586E+00
    0.3900000000E+05    0.6384856383E+00    0.1239433242E-01    0.8604274428E-01    0.5100642517E-03    0.5907435960E+00
    0.4100000000E+05    0.6409899249E+00    0.1173688108E-01    0.8604037998E-01    0.4789753468E-03    0.5909831569E+00
    0.4300000000E+05    0.6432335578E+00    0.1114994844E-01    0.8603731049E-01    0.4511813309E-03    0.5912057629E+00
    0.4500000000E+05    0.6452530584E+00    0.1062330348E-01    0.8603365682E-01    0.4262179183E-03    0.5914133617E+00
    0.4700000000E+05    0.6470786792E+00    0.1014852645E-01    0.8602951797E-01    0.4037004365E-03    0.5916076009E+00
    0.4900000000E+05    0.6487356558E+00    0.9718636964E-02    0.8602497551E-01    0.3833079950E-03    0.5917898848E+00
    0.1000000000E+05    0.4880203403E+00    0.5540547047E-01    0.8564776582E-01    0.2386149298E-02    0.5809931581E+00
    0.3000000000E+05    0.6225274400E+00    0.1664177524E-01    0.8603967048E-01    0.7093121636E-03    0.5893807878E+00
    0.5000000000E+05    0.6495076606E+00    0.9518665443E-02    0.8602257454E-01    0.3738227436E-03    0.5918769270E+00
    0.7000000000E+05    0.6597973825E+00    0.6866875785E-02    0.8596489818E-01    0.2486403214E-03    0.5932096018E+00
    0.9000000000E+05    0.6650240824E+00    0.5516887839E-02    0.8590242952E-01    0.1862879327E-03    0.5940784661E+00
    0.1100000000E+06    0.6681353663E+00    0.4700605069E-02    0.8584232394E-01    0.1497356696E-03    0.5947065196E+00
    0.1300000000E+06    0.6701823916E+00    0.4151161145E-02    0.8578613468E-01    0.1259567746E-03    0.5951901669E+00
    0.1500000000E+06    0.6716249227E+00    0.3753567977E-02    0.8573396794E-01    0.1093320443E-03    0.5955789093E+00
    0.1700000000E+06    0.6726934690E+00    0.3450609722E-02    0.8568552950E-01    0.9708081300E-04    0.5959011804E+00
    0.1900000000E+06    0.6735154909E+00    0.3210721519E-02    0.8564043579E-01    0.8768374978E-04    0.5961746610E+00
    0.2100000000E+06    0.6741668635E+00    0.3015083718E-02    0.8559831220E-01    0.8024606372E-04    0.5964110166E+00
    0.2300000000E+06    0.6746954313E+00    0.2851776003E-02    0.8555882210E-01    0.7420887731E-04    0.5966183066E+00
    0.2500000000E+06    0.6751327905E+00    0.2712873683E-02    0.8552167221E-01    0.6920620409E-04    0.5968023077E+00
    0.2700000000E+06    0.6755006129E+00    0.2592895806E-02    0.8548660983E-01    0.6498886027E-04    0.5969672872E+00
    0.2900000000E+06    0.6758142411E+00    0.2487924817E-02    0.8545341781E-01    0.6138156903E-04    0.5971164776E+00
    0.3100000000E+06    0.6760848319E+00    0.2395081802E-02    0.8542190928E-01    0.5825758151E-04    0.5972523804E+00
    0.3300000000E+06    0.6763206874E+00    0.2312200367E-02    0.8539192287E-01    0.5552303555E-04    0.5973769668E+00
    0.3500000000E+06    0.6765281094E+00    0.2237616586E-02    0.8536331862E-01    0.5310697238E-04    0.5974918151E+00
    0.3700000000E+06    0.6767119661E+00    0.2170029464E-02    0.8533597457E-01    0.5095476818E-04    0.5975982065E+00
    0.3900000000E+06    0.6768760765E+00    0.2108405722E-02    0.8530978394E-01    0.4902369605E-04    0.5976971941E+00
    0.4100000000E+06    0.6770234779E+00    0.2051913251E-02    0.8528465278E-01    0.4727985616E-04    0.5977896528E+00
    0.4300000000E+06    0.6771566154E+00    0.1999873631E-02    0.8526049804E-01    0.4569600760E-04    0.5978763166E+00
    0.4500000000E+06    0.6772774798E+00    0.1951727591E-02    0.8523724600E-01    0.4425000810E-04    0.5979578068E+00
    0.4700000000E+06    0.6773877075E+00    0.1907009474E-02    0.8521483095E-01    0.4292367221E-04    0.5980346534E+00
    0.4900000000E+06    0.6774886567E+00    0.1865328062E-02    0.8519319405E-01    0.4170192287E-04    0.5981073119E+00
    0.1000000000E+06    0.6667572185E+00    0.5064205821E-02    0.8587192804E-01    0.1658679348E-03    0.5944149721E+00
    0.3000000000E+06    0.6759543422E+00    0.2440136522E-02    0.8543746375E-01    0.5976566167E-04    0.5971859562E+00
    0.5000000000E+06    0.6775360143E+00    0.1845520551E-02    0.8518265068E-01    0.4112624592E-04    0.5981421959E+00
    0.7000000000E+06    0.6781942871E+00    0.1549677058E-02    0.8500224236E-01    0.3290266063E-04    0.5986927131E+00
    0.9000000000E+06    0.6785582310E+00    0.1364054334E-02    0.8486220032E-01    0.2809363829E-04    0.5990701996E+00
    0.1100000000E+07    0.6787907414E+00    0.1233463094E-02    0.8474757669E-01    0.2486481845E-04    0.5993536239E+00
    0.1300000000E+07    0.6789529615E+00    0.1135048766E-02    0.8465046600E-01    0.2251195021E-04    0.5995786350E+00
    0.1500000000E+07    0.6790730657E+00    0.1057389601E-02    0.8456617169E-01    0.2070207822E-04    0.5997641545E+00
    0.1700000000E+07    0.6791658731E+00    0.9940504680E-03    0.8449167199E-01    0.1925544216E-04    0.5999213471E+00
    0.1900000000E+07    0.6792399385E+00    0.9410892221E-03    0.8442490610E-01    0.1806559210E-04    0.6000573148E+00
    0.2100000000E+07    0.6793005549E+00    0.8959365277E-03    0.8436440467E-01    0.1706504227E-04    0.6001768367E+00
    0.2300000000E+07    0.6793511776E+00    0.8568357519E-03    0.8430908265E-01    0.1620870613E-04    0.6002832722E+00
    0.2500000000E+07    0.6793941610E+00    0.8225392813E-03    0.8425811568E-01    0.1546518301E-04    0.6003790672E+00
    0.2700000000E+07    0.6794311665E+00    0.7921330650E-03    0.8421086252E-01    0.1481185232E-04    0.6004660541E+00
    0.2900000000E+07    0.6794634009E+00    0.7649299033E-03    0.8416681444E-01    0.1423195564E-04    0.6005456390E+00
    0.3100000000E+07    0.6794917633E+00    0.7404017398E-03    0.8412556097E-01    0.1371278124E-04    0.6006189233E+00
    0.3300000000E+07    0.6795169372E+00    0.7181351443E-03    0.8408676605E-01    0.1324449066E-04    0.6006867841E+00
    0.3500000000E+07    0.6795394521E+00    0.6978011411E-03    0.8405015104E-01    0.1281933558E-04    0.6007499314E+00
    0.3700000000E+07    0.6795597250E+00    0.6791342186E-03    0.8401548230E-01    0.1243112044E-04    0.6008089470E+00
    0.3900000000E+07    0.6795780886E+00    0.6619173874E-03    0.8398256200E-01    0.1207482457E-04    0.6008643133E+00
    0.4100000000E+07    0.6795948121E+00    0.6459713292E-03    0.8395122110E-01    0.1174633087E-04    0.6009164348E+00
    0.4300000000E+07    0.6796101154E+00    0.6311463739E-03    0.8392131404E-01    0.1144222727E-04    0.6009656534E+00
    0.4500000000E+07    0.6796241802E+00    0.6173164727E-03    0.8389271457E-01    0.1115965895E-04    0.6010122610E+00
    0.4700000000E+07    0.6796371580E+00    0.6043746055E-03    0.8386531245E-01    0.1089621670E-04    0.6010565082E+00
    0.4900000000E+07    0.6796491762E+00    0.5922292353E-03    0.8383901088E-01    0.1064985146E-04    0.6010986120E+00
    0.1000000000E+07    0.6786859270E+00    0.1293702151E-02    0.8480230799E-01    0.2633878553E-04    0.5992208790E+00
    0.3000000000E+07    0.6794780192E+00    0.7523595645E-03    0.8414586090E-01    0.1396544976E-04    0.6005830094E+00
    0.5000000000E+07    0.6796548597E+00    0.5864301708E-03    0.8382624570E-01    0.1053251424E-04    0.6011189202E+00
    0.7000000000E+07    0.6797373485E+00    0.4978374755E-03    0.8361237609E-01    0.8763784323E-05    0.6014478361E+00
    0.9000000000E+07    0.6797864446E+00    0.4405568226E-03    0.8345125928E-01    0.7644402859E-05    0.6016831309E+00
    0.1100000000E+08    0.6798195721E+00    0.3996038968E-03    0.8332189837E-01    0.6856175862E-05    0.6018654191E+00
    0.1300000000E+08    0.6798437113E+00    0.3684368295E-03    0.8321378867E-01    0.6263316098E-05    0.6020137492E+00
    0.1500000000E+08    0.6798622398E+00    0.3436820480E-03    0.8312091109E-01    0.5796923851E-05    0.6021385367E+00
    0.1700000000E+08    0.6798770054E+00    0.3233992917E-03    0.8303949207E-01    0.5417864142E-05    0.6022460790E+00
    0.1900000000E+08    0.6798891102E+00    0.3063826834E-03    0.8296700841E-01    0.5102059651E-05    0.6023404653E+00
    0.2100000000E+08    0.6798992560E+00    0.2918379054E-03    0.8290168907E-01    0.4833784907E-05    0.6024244967E+00
    0.2300000000E+08    0.6799079122E+00    0.2792174931E-03    0.8284224289E-01    0.4602280622E-05    0.6025001734E+00
    0.2500000000E+08    0.6799154059E+00    0.2681301609E-03    0.8278769936E-01    0.4399906158E-05    0.6025689721E+00
    0.2700000000E+08    0.6799219727E+00    0.2582877874E-03    0.8273731047E-01    0.4221067470E-05    0.6026320133E+00
