  Pressure (Pa) 22mC5-400 (mol/kg) 2mC6-400 (mol/kg) 3mC6-400 (mol/kg) 33mC5-400 (mol/kg) C7-400 (mol/kg)
    0.1000000000E+01    0.5312622916E-03    0.1579128302E-02    0.1566867278E-02    0.5143712927E-03    0.1017071078E-01
    0.3000000000E+01    0.1584793153E-02    0.4577346334E-02    0.4522687118E-02    0.1491487510E-02    0.2936267074E-01
    0.5000000000E+01    0.2626549315E-02    0.7381888773E-02    0.7263280277E-02    0.2406153425E-02    0.4716389571E-01
    0.7000000000E+01    0.3656784301E-02    0.1001337890E-01    0.9811721580E-02    0.3265046979E-02    0.6372326141E-01
    0.9000000000E+01    0.4675744132E-02    0.1248952895E-01    0.1218788723E-01    0.4073900451E-02    0.7916902217E-01
    0.1100000000E+02    0.5683667604E-02    0.1482563646E-01    0.1440899113E-01    0.4837661991E-02    0.9361226699E-01
    0.1300000000E+02    0.6680786555E-02    0.1703498271E-01    0.1649001678E-01    0.5560625270E-02    0.1071497028E+00
    0.1500000000E+02    0.7667326123E-02    0.1912915508E-01    0.1844406767E-01    0.6246534338E-02    0.1198659130E+00
    0.1700000000E+02    0.8643504985E-02    0.2111830973E-01    0.2028265367E-01    0.6898669028E-02    0.1318352028E+00
    0.1900000000E+02    0.9609535592E-02    0.2301138689E-01    0.2201592652E-01    0.7519914969E-02    0.1431231179E+00
    0.2100000000E+02    0.1056562439E-01    0.2481628867E-01    0.2365287478E-01    0.8112821358E-02    0.1537877005E+00
    0.2300000000E+02    0.1151197204E-01    0.2654002651E-01    0.2520148612E-01    0.8679648881E-02    0.1638805363E+00
    0.2500000000E+02    0.1244877361E-01    0.2818884436E-01    0.2666888312E-01    0.9222409705E-02    0.1734476293E+00
    0.2700000000E+02    0.1337621879E-01    0.2976832190E-01    0.2806143760E-01    0.9742901008E-02    0.1825301394E+00
    0.2900000000E+02    0.1429449204E-01    0.3128346163E-01    0.2938486716E-01    0.1024273325E-01    0.1911650053E+00
    0.3100000000E+02    0.1520377284E-01    0.3273876260E-01    0.3064431731E-01    0.1072335407E-01    0.1993854732E+00
    0.3300000000E+02    0.1610423578E-01    0.3413828311E-01    0.3184443144E-01    0.1118606867E-01    0.2072215486E+00
    0.3500000000E+02    0.1699605078E-01    0.3548569432E-01    0.3298941074E-01    0.1163205717E-01    0.2147003832E+00
    0.3700000000E+02    0.1787938323E-01    0.3678432612E-01    0.3408306582E-01    0.1206238947E-01    0.2218466071E+00
    0.3900000000E+02    0.1875439415E-01    0.3803720675E-01    0.3512886117E-01    0.1247803811E-01    0.2286826157E+00
    0.4100000000E+02    0.1962124032E-01    0.3924709689E-01    0.3612995371E-01    0.1287988931E-01    0.2352288190E+00
    0.4300000000E+02    0.2048007443E-01    0.4041651932E-01    0.3708922628E-01    0.1326875254E-01    0.2415038570E+00
    0.4500000000E+02    0.2133104523E-01    0.4154778462E-01    0.3800931687E-01    0.1364536890E-01    0.2475247888E+00
    0.4700000000E+02    0.2217429763E-01    0.4264301368E-01    0.3889264415E-01    0.1401041835E-01    0.2533072569E+00
    0.4900000000E+02    0.2300997284E-01    0.4370415733E-01    0.3974142991E-01    0.1436452610E-01    0.2588656321E+00
    0.1000000000E+02    0.5181070763E-02    0.1367421479E-01    0.1331683761E-01    0.4461135354E-02    0.8650960653E-01
    0.3000000000E+02    0.1475024548E-01    0.3201832865E-01    0.3002228843E-01    0.1048536039E-01    0.1953250925E+00
    0.5000000000E+02    0.2342501214E-01    0.4422251454E-01    0.4015351507E-01    0.1453765861E-01    0.2615649597E+00
    0.7000000000E+02    0.3135974589E-01    0.5317019987E-01    0.4700073751E-01    0.1754432236E-01    0.3064974827E+00
    0.9000000000E+02    0.3867397031E-01    0.6010604358E-01    0.5196386602E-01    0.1990358545E-01    0.3391830902E+00
    0.1100000000E+03    0.4546177708E-01    0.6567291153E-01    0.5574169056E-01    0.2182064888E-01    0.3641499933E+00
    0.1300000000E+03    0.5179833198E-01    0.7024618069E-01    0.5872300316E-01    0.2341524236E-01    0.3839206476E+00
    0.1500000000E+03    0.5774446984E-01    0.7406513363E-01    0.6114187561E-01    0.2476373385E-01    0.4000155230E+00
    0.1700000000E+03    0.6335000452E-01    0.7729246638E-01    0.6314795617E-01    0.2591813404E-01    0.4134078599E+00
    0.1900000000E+03    0.6865615600E-01    0.8004430340E-01    0.6484155608E-01    0.2691565414E-01    0.4247508116E+00
    0.2100000000E+03    0.7369735833E-01    0.8240667704E-01    0.6629253882E-01    0.2778394196E-01    0.4344998168E+00
    0.2300000000E+03    0.7850262619E-01    0.8444521485E-01    0.6755112415E-01    0.2854415540E-01    0.4429826428E+00
    0.2500000000E+03    0.8309660110E-01    0.8621116130E-01    0.6865438214E-01    0.2921287145E-01    0.4504415167E+00
    0.2700000000E+03    0.8750036220E-01    0.8774529726E-01    0.6963030177E-01    0.2980332860E-01    0.4570595398E+00
    0.2900000000E+03    0.9173206137E-01    0.8908059108E-01    0.7050043121E-01    0.3032626748E-01    0.4629778411E+00
    0.3100000000E+03    0.9580742578E-01    0.9024405028E-01    0.7128164373E-01    0.3079051848E-01    0.4683070584E+00
    0.3300000000E+03    0.9974015925E-01    0.9125805059E-01    0.7198735033E-01    0.3120342409E-01    0.4731352278E+00
    0.3500000000E+03    0.1035422655E+00    0.9214131228E-01    0.7262835175E-01    0.3157114951E-01    0.4775333306E+00
    0.3700000000E+03    0.1072243110E+00    0.9290963166E-01    0.7321344949E-01    0.3189891581E-01    0.4815592743E+00
    0.3900000000E+03    0.1107956390E+00    0.9357643882E-01    0.7374989198E-01    0.3219117801E-01    0.4852608015E+00
    0.4100000000E+03    0.1142645471E+00    0.9415322914E-01    0.7424370574E-01    0.3245176312E-01    0.4886776508E+00
    0.4300000000E+03    0.1176384338E+00    0.9464990173E-01    0.7469994485E-01    0.3268397862E-01    0.4918431848E+00
    0.4500000000E+03    0.1209239202E+00    0.9507502788E-01    0.7512288130E-01    0.3289069870E-01    0.4947856345E+00
    0.4700000000E+03    0.1241269533E+00    0.9543606623E-01    0.7551615209E-01    0.3307443348E-01    0.4975290606E+00
    0.4900000000E+03    0.1272528921E+00    0.9573953695E-01    0.7588287415E-01    0.3323738523E-01    0.5000941054E+00
    0.1000000000E+03    0.4212859581E-01    0.6303292709E-01    0.5397180579E-01    0.2090856597E-01    0.3524424190E+00
    0.3000000000E+03    0.9378838564E-01    0.8968230582E-01    0.7090124415E-01    0.3056523927E-01    0.4657101274E+00
    0.5000000000E+03    0.1287884833E+00    0.9587150087E-01    0.7605713393E-01    0.3331168295E-01    0.5013153994E+00
    0.7000000000E+03    0.1564152136E+00    0.9656508833E-01    0.7864057834E-01    0.3407412003E-01    0.5196449678E+00
    0.9000000000E+03    0.1798309356E+00    0.9518277357E-01    0.8021481084E-01    0.3402594134E-01    0.5310930107E+00
    0.1100000000E+04    0.2004656979E+00    0.9291365930E-01    0.8128243336E-01    0.3359259652E-01    0.5390381865E+00
    0.1300000000E+04    0.2190838736E+00    0.9025919270E-01    0.8205738147E-01    0.3296214067E-01    0.5449330470E+00
    0.1500000000E+04    0.2361424195E+00    0.8745648232E-01    0.8264700843E-01    0.3222856297E-01    0.5495133287E+00
    0.1700000000E+04    0.2519375653E+00    0.8462596560E-01    0.8311142721E-01    0.3144293797E-01    0.5531946923E+00
    0.1900000000E+04    0.2666736053E+00    0.8183141403E-01    0.8348705659E-01    0.3063471167E-01    0.5562311252E+00
    0.2100000000E+04    0.2804985277E+00    0.7910709456E-01    0.8379731301E-01    0.2982158521E-01    0.5587872937E+00
    0.2300000000E+04    0.2935239250E+00    0.7647109840E-01    0.8405797113E-01    0.2901450126E-01    0.5609750245E+00
    0.2500000000E+04    0.3058368092E+00    0.7393230504E-01    0.8428006428E-01    0.2822032960E-01    0.5628731514E+00
    0.2700000000E+04    0.3175069721E+00    0.7149420627E-01    0.8447155184E-01    0.2744339238E-01    0.5645389856E+00
    0.2900000000E+04    0.3285917578E+00    0.6915709196E-01    0.8463832643E-01    0.2668636918E-01    0.5660152798E+00
    0.3100000000E+04    0.3391392642E+00    0.6691934048E-01    0.8478484775E-01    0.2595085448E-01    0.5673346335E+00
    0.3300000000E+04    0.3491905530E+00    0.6477820071E-01    0.8491455576E-01    0.2523771187E-01    0.5685223778E+00
    0.3500000000E+04    0.3587812138E+00    0.6273027562E-01    0.8503014802E-01    0.2454730557E-01    0.5695985224E+00
    0.3700000000E+04    0.3679424961E+00    0.6077182611E-01    0.8513377085E-01    0.2387965516E-01    0.5705791031E+00
    0.3900000000E+04    0.3767021451E+00    0.5889896362E-01    0.8522715406E-01    0.2323454133E-01    0.5714771364E+00
    0.4100000000E+04    0.3850850290E+00    0.5710777281E-01    0.8531170786E-01    0.2261157925E-01    0.5723033089E+00
    0.4300000000E+04    0.3931136182E+00    0.5539438948E-01    0.8538859376E-01    0.2201027053E-01    0.5730664843E+00
    0.4500000000E+04    0.4008083575E+00    0.5375504932E-01    0.8545877739E-01    0.2143004020E-01    0.5737740830E+00
    0.4700000000E+04    0.4081879581E+00    0.5218611759E-01    0.8552306830E-01    0.2087026357E-01    0.5744323688E+00
    0.4900000000E+04    0.4152696309E+00    0.5068410611E-01    0.8558215041E-01    0.2033028576E-01    0.5750466697E+00
    0.1000000000E+04    0.1904383455E+00    0.9411873049E-01    0.8079493548E-01    0.3384249578E-01    0.5353882440E+00
    0.3000000000E+04    0.3339299605E+00    0.6802594811E-01    0.8471388361E-01    0.2631585534E-01    0.5666928470E+00
    0.5000000000E+04    0.4187037595E+00    0.4995714773E-01    0.8560992345E-01    0.2006751211E-01    0.5753387779E+00
    0.7000000000E+04    0.4750547687E+00    0.3820639856E-01    0.8599616343E-01    0.1568976170E-01    0.5796994659E+00
    0.9000000000E+04    0.5143266943E+00    0.3028198987E-01    0.8620281706E-01    0.1259401924E-01    0.5824089705E+00
    0.1100000000E+05    0.5426962508E+00    0.2473396588E-01    0.8632597870E-01    0.1035181138E-01    0.5842881575E+00
    0.1300000000E+05    0.5638287248E+00    0.2071578392E-01    0.8640394110E-01    0.8685697735E-02    0.5856842194E+00
    0.1500000000E+05    0.5799953089E+00    0.1771756587E-01    0.8645494234E-01    0.7417409833E-02    0.5867715904E+00
    0.1700000000E+05    0.5926524089E+00    0.1542157670E-01    0.8648874376E-01    0.6430651454E-02    0.5876483316E+00
    0.1900000000E+05    0.6027630930E+00    0.1362320885E-01    0.8651102049E-01    0.5647878289E-02    0.5883741541E+00
    0.2100000000E+05    0.6109823095E+00    0.1218663574E-01    0.8652528261E-01    0.5016165706E-02    0.5889876671E+00
    0.2300000000E+05    0.6177669628E+00    0.1101916107E-01    0.8653380789E-01    0.4498561990E-02    0.5895150363E+00
    0.2500000000E+05    0.6234432343E+00    0.1005592417E-01    0.8653813224E-01    0.4068711227E-02    0.5899746777E+00
    0.2700000000E+05    0.6282488812E+00    0.9250510300E-02    0.8653932420E-01    0.3707441195E-02    0.5903799627E+00
    0.2900000000E+05    0.6323604929E+00    0.8569026794E-02    0.8653814672E-01    0.3400551756E-02    0.5907408573E+00
    0.3100000000E+05    0.6359114718E+00    0.7986269976E-02    0.8653515660E-01    0.3137351113E-02    0.5910649558E+00
    0.3300000000E+05    0.6390041530E+00    0.7483186825E-02    0.8653076777E-01    0.2909667522E-02    0.5913581572E+00
    0.3500000000E+05    0.6417181406E+00    0.7045157809E-02    0.8652529289E-01    0.2711169391E-02    0.5916251207E+00
    0.3700000000E+05    0.6441161451E+00    0.6660812382E-02    0.8651897144E-01    0.2536889287E-02    0.5918695802E+00
    0.3900000000E+05    0.6462481428E+00    0.6321197158E-02    0.8651198899E-01    0.2382885228E-02    0.5920945674E+00
    0.4100000000E+05    0.6481543845E+00    0.6019182088E-02    0.8650449087E-01    0.2245996024E-02    0.5923025721E+00
    0.4300000000E+05    0.6498676034E+00    0.5749030093E-02    0.8649659195E-01    0.2123662049E-02    0.5924956605E+00
    0.4500000000E+05    0.6514146583E+00    0.5506080777E-02    0.8648838369E-01    0.2013792250E-02    0.5926755632E+00
    0.4700000000E+05    0.6528177689E+00    0.5286514984E-02    0.8647993948E-01    0.1914664263E-02    0.5928437422E+00
    0.4900000000E+05    0.6540954583E+00    0.5087177426E-02    0.8647131850E-01    0.1824848558E-02    0.5930014419E+00
    0.1000000000E+05    0.5296031143E+00    0.2727407502E-01    0.8627174338E-01    0.1138644060E-01    0.5834247403E+00
    0.3000000000E+05    0.6341990498E+00    0.8266619237E-02    0.8653684959E-01    0.3264050965E-02    0.5909071038E+00
    0.5000000000E+05    0.6546922293E+00    0.4994255811E-02    0.8646695710E-01    0.1783051543E-02    0.5930767015E+00
    0.7000000000E+05    0.6627635973E+00    0.3744430808E-02    0.8637827194E-01    0.1228540253E-02    0.5942255828E+00
    0.9000000000E+05    0.6669823100E+00    0.3087442183E-02    0.8629467904E-01    0.9478885140E-03    0.5949714751E+00
    0.1100000000E+06    0.6695511869E+00    0.2678486511E-02    0.8621894040E-01    0.7803577861E-03    0.5955093955E+00
    0.1300000000E+06    0.6712720442E+00    0.2396320141E-02    0.8615055085E-01    0.6694170737E-03    0.5959231222E+00
    0.1500000000E+06    0.6725024317E+00    0.2187850645E-02    0.8608850356E-01    0.5905463446E-03    0.5962554736E+00
    0.1700000000E+06    0.6734247045E+00    0.2026209555E-02    0.8603184147E-01    0.5315176260E-03    0.5965309560E+00
    0.1900000000E+06    0.6741412147E+00    0.1896327679E-02    0.8597975776E-01    0.4855917332E-03    0.5967647647E+00
    0.2100000000E+06    0.6747136923E+00    0.1789079261E-02    0.8593159282E-01    0.4487640428E-03    0.5969669026E+00
    0.2300000000E+06    0.6751815124E+00    0.1698599454E-02    0.8588681001E-01    0.4185107719E-03    0.5971442674E+00
    0.2500000000E+06    0.6755709431E+00    0.1620936506E-02    0.8584497085E-01    0.3931645228E-03    0.5973017961E+00
    0.2700000000E+06    0.6759001652E+00    0.1553323201E-02    0.8580571430E-01    0.3715802037E-03    0.5974431309E+00
    0.2900000000E+06    0.6761821537E+00    0.1493758984E-02    0.8576874045E-01    0.3529455842E-03    0.5975710282E+00
    0.3100000000E+06    0.6764264126E+00    0.1440758218E-02    0.8573379794E-01    0.3366685427E-03    0.5976876189E+00
    0.3300000000E+06    0.6766400602E+00    0.1393192142E-02    0.8570067432E-01    0.3223071595E-03    0.5977945814E+00
    0.3500000000E+06    0.6768285321E+00    0.1350186078E-02    0.8566918851E-01    0.3095248321E-03    0.5978932585E+00
    0.3700000000E+06    0.6769960499E+00    0.1311050529E-02    0.8563918507E-01    0.2980605688E-03    0.5979847401E+00
    0.3900000000E+06    0.6771459417E+00    0.1275233742E-02    0.8561052960E-01    0.2877088011E-03    0.5980699214E+00
    0.4100000000E+06    0.6772808663E+00    0.1242288287E-02    0.8558310513E-01    0.2783053395E-03    0.5981495460E+00
    0.4300000000E+06    0.6774029732E+00    0.1211847017E-02    0.8555680928E-01    0.2697173999E-03    0.5982242377E+00
    0.4500000000E+06    0.6775140189E+00    0.1183605459E-02    0.8553155193E-01    0.2618363862E-03    0.5982945244E+00
    0.4700000000E+06    0.6776154527E+00    0.1157308699E-02    0.8550725335E-01    0.2545725804E-03    0.5983608563E+00
    0.4900000000E+06    0.6777084811E+00    0.1132741467E-02    0.8548384266E-01    0.2478511772E-03    0.5984236203E+00
    0.1000000000E+06    0.6684070032E+00    0.2861994844E-02    0.8625583470E-01    0.8546698131E-03    0.5952597986E+00
    0.3000000000E+06    0.6763085082E+00    0.1466515672E-02    0.8575102937E-01    0.3445428882E-03    0.5976306229E+00
    0.5000000000E+06    0.6777521661E+00    0.1121048087E-02    0.8547245023E-01    0.2446738233E-03    0.5984537708E+00
    0.7000000000E+06    0.6783620741E+00    0.9450450980E-03    0.8527889451E-01    0.1985241940E-03    0.5989312378E+00
    0.9000000000E+06    0.6787010649E+00    0.8334561406E-03    0.8513016633E-01    0.1708371850E-03    0.5992607600E+00
    0.1100000000E+07    0.6789179971E+00    0.7545022484E-03    0.8500923541E-01    0.1519462968E-03    0.5995095418E+00
    0.1300000000E+07    0.6790693514E+00    0.6947935232E-03    0.8490726596E-01    0.1380283801E-03    0.5997079940E+00
    0.1500000000E+07    0.6791813179E+00    0.6475670394E-03    0.8481907375E-01    0.1272372669E-03    0.5998722999E+00
    0.1700000000E+07    0.6792677256E+00    0.6089854468E-03    0.8474135297E-01    0.1185602983E-03    0.6000120336E+00
    0.1900000000E+07    0.6793365775E+00    0.5766861736E-03    0.8467186449E-01    0.1113903781E-03    0.6001333005E+00
    0.2100000000E+07    0.6793928325E+00    0.5491236571E-03    0.8460902046E-01    0.1053388331E-03    0.6002402186E+00
    0.2300000000E+07    0.6794397307E+00    0.5252381991E-03    0.8455165358E-01    0.1001439110E-03    0.6003356897E+00
    0.2500000000E+07    0.6794794808E+00    0.5042754856E-03    0.8449888029E-01    0.9562210219E-04    0.6004218308E+00
    0.2700000000E+07    0.6795136418E+00    0.4856818832E-03    0.8445001554E-01    0.9164046949E-04    0.6005002312E+00
    0.2900000000E+07    0.6795433461E+00    0.4690405490E-03    0.8440451732E-01    0.8810005810E-04    0.6005721131E+00
    0.3100000000E+07    0.6795694368E+00    0.4540307830E-03    0.8436194940E-01    0.8492550014E-04    0.6006384350E+00
    0.3300000000E+07    0.6795925549E+00    0.4404012428E-03    0.8432195541E-01    0.8205825564E-04    0.6006999623E+00
    0.3500000000E+07    0.6796131966E+00    0.4279517556E-03    0.8428424043E-01    0.7945207738E-04    0.6007573151E+00
    0.3700000000E+07    0.6796317524E+00    0.4165206434E-03    0.8424855763E-01    0.7706988395E-04    0.6008110025E+00
    0.3900000000E+07    0.6796485339E+00    0.4059756898E-03    0.8421469829E-01    0.7488155235E-04    0.6008614474E+00
    0.4100000000E+07    0.6796637927E+00    0.3962075702E-03    0.8418248439E-01    0.7286232671E-04    0.6009090048E+00
    0.4300000000E+07    0.6796777345E+00    0.3871249901E-03    0.8415176280E-01    0.7099165001E-04    0.6009539752E+00
    0.4500000000E+07    0.6796905290E+00    0.3786510298E-03    0.8412240088E-01    0.6925229197E-04    0.6009966154E+00
    0.4700000000E+07    0.6797023177E+00    0.3707203559E-03    0.8409428296E-01    0.6762968844E-04    0.6010371464E+00
    0.4900000000E+07    0.6797132194E+00    0.3632770678E-03    0.8406730754E-01    0.6611143416E-04    0.6010757597E+00
    0.1000000000E+07    0.6788201893E+00    0.7909639075E-03    0.8506689606E-01    0.1606001796E-03    0.5993928647E+00
    0.3000000000E+07    0.6795567992E+00    0.4613488085E-03    0.8438289097E-01    0.8647103903E-04    0.6006059173E+00
    0.5000000000E+07    0.6797183695E+00    0.3597228816E-03    0.8405421989E-01    0.6538805285E-04    0.6010944002E+00
    0.7000000000E+07    0.6797926695E+00    0.3054092590E-03    0.8383536044E-01    0.5446373818E-04    0.6013977627E+00
    0.9000000000E+07    0.6798364046E+00    0.2702793298E-03    0.8367094507E-01    0.4753266714E-04    0.6016164712E+00
    0.1100000000E+08    0.6798656510E+00    0.2451587253E-03    0.8353918377E-01    0.4264523743E-04    0.6017868781E+00
    0.1300000000E+08    0.6798868025E+00    0.2260389585E-03    0.8342921970E-01    0.3896594425E-04    0.6019261574E+00
    0.1500000000E+08    0.6799029335E+00    0.2108520159E-03    0.8333484982E-01    0.3606976333E-04    0.6020437535E+00
    0.1700000000E+08    0.6799157166E+00    0.1984082008E-03    0.8325219362E-01    0.3371486994E-04    0.6021454034E+00
    0.1900000000E+08    0.6799261444E+00    0.1879679862E-03    0.8317866081E-01    0.3175230345E-04    0.6022348470E+00
    0.2100000000E+08    0.6799348458E+00    0.1790441841E-03    0.8311243583E-01    0.3008468566E-04    0.6023146551E+00
    0.2300000000E+08    0.6799422401E+00    0.1713009827E-03    0.8305219657E-01    0.2864534398E-04    0.6023866689E+00
    0.2500000000E+08    0.6799486183E+00    0.1644983543E-03    0.8299695027E-01    0.2738690481E-04    0.6024522515E+00
    0.2700000000E+08    0.6799541889E+00    0.1584595470E-03    0.8294593243E-01    0.2627466808E-04    0.6025124393E+00
