  Pressure (Pa) 22mC5-400 (mol/kg) 2mC6-400 (mol/kg) 3mC6-400 (mol/kg) 33mC5-400 (mol/kg) C7-400 (mol/kg)
    0.1000000000E+01    0.5313994133E-03    0.1582392084E-02    0.5235294011E-02    0.2577118568E-03    0.5097373976E-02
    0.3000000000E+01    0.1586009916E-02    0.4604589785E-02    0.1517930739E-01    0.7501344517E-03    0.1478181595E-01
    0.5000000000E+01    0.2629882112E-02    0.7452274588E-02    0.2447916679E-01    0.1214416252E-02    0.2384192214E-01
    0.7000000000E+01    0.3663226245E-02    0.1014202873E-01    0.3319659576E-01    0.1653242273E-02    0.3233742617E-01
    0.9000000000E+01    0.4686246902E-02    0.1268833633E-01    0.4138564156E-01    0.2068956711E-02    0.4032063853E-01
    0.1100000000E+02    0.5699143209E-02    0.1510390532E-01    0.4909383402E-01    0.2463615342E-02    0.4783756663E-01
    0.1300000000E+02    0.6702109007E-02    0.1739993209E-01    0.5636314050E-01    0.2839028571E-02    0.5492883793E-01
    0.1500000000E+02    0.7695333034E-02    0.1958632034E-01    0.6323075765E-01    0.3196797031E-02    0.6163046540E-01
    0.1700000000E+02    0.8678999090E-02    0.2167186308E-01    0.6972977169E-01    0.3538341187E-02    0.6797448574E-01
    0.1900000000E+02    0.9653286204E-02    0.2366439482E-01    0.7588971186E-01    0.3864926068E-02    0.7398949459E-01
    0.2100000000E+02    0.1061836878E-01    0.2557091945E-01    0.8173701674E-01    0.4177682068E-02    0.7970109737E-01
    0.2300000000E+02    0.1157441676E-01    0.2739771826E-01    0.8729542912E-01    0.4477622483E-02    0.8513229109E-01
    0.2500000000E+02    0.1252159577E-01    0.2915044155E-01    0.9258633170E-01    0.4765658404E-02    0.9030378900E-01
    0.2700000000E+02    0.1346006722E-01    0.3083418665E-01    0.9762903388E-01    0.5042611385E-02    0.9523429795E-01
    0.2900000000E+02    0.1438998850E-01    0.3245356472E-01    0.1024410177E+00    0.5309224286E-02    0.9994075619E-01
    0.3100000000E+02    0.1531151305E-01    0.3401275801E-01    0.1070381493E+00    0.5566170578E-02    0.1044385382E+00
    0.3300000000E+02    0.1622479053E-01    0.3551556932E-01    0.1114348623E+00    0.5814062357E-02    0.1087416314E+00
    0.3500000000E+02    0.1712996690E-01    0.3696546471E-01    0.1156443160E+00    0.6053457278E-02    0.1128627899E+00
    0.3700000000E+02    0.1802718455E-01    0.3836561060E-01    0.1196785333E+00    0.6284864570E-02    0.1168136676E+00
    0.3900000000E+02    0.1891658243E-01    0.3971890602E-01    0.1235485213E+00    0.6508750269E-02    0.1206049349E+00
    0.4100000000E+02    0.1979829611E-01    0.4102801082E-01    0.1272643768E+00    0.6725541790E-02    0.1242463807E+00
    0.4300000000E+02    0.2067245792E-01    0.4229537040E-01    0.1308353784E+00    0.6935631925E-02    0.1277470016E+00
    0.4500000000E+02    0.2153919704E-01    0.4352323732E-01    0.1342700682E+00    0.7139382355E-02    0.1311150812E+00
    0.4700000000E+02    0.2239863960E-01    0.4471369047E-01    0.1375763239E+00    0.7337126749E-02    0.1343582591E+00
    0.4900000000E+02    0.2325090873E-01    0.4586865192E-01    0.1407614219E+00    0.7529173490E-02    0.1374835931E+00
    0.1000000000E+02    0.5193948363E-02    0.1391173072E-01    0.4529710112E-01    0.2268799551E-02    0.4413473246E-01
    0.3000000000E+02    0.1485179093E-01    0.3324043842E-01    0.1047655063E+00    0.5438866150E-02    0.1022148269E+00
    0.5000000000E+02    0.2367439096E-01    0.4643338473E-01    0.1423106605E+00    0.7623150296E-02    0.1390041286E+00
    0.7000000000E+02    0.3179530451E-01    0.5623440535E-01    0.1683282069E+00    0.9262809274E-02    0.1645801012E+00
    0.9000000000E+02    0.3932005895E-01    0.6389509475E-01    0.1875116207E+00    0.1055832575E-01    0.1834975313E+00
    0.1100000000E+03    0.4633321696E-01    0.7008230320E-01    0.2022966064E+00    0.1161625027E-01    0.1981226872E+00
    0.1300000000E+03    0.5290339688E-01    0.7519239793E-01    0.2140761033E+00    0.1249983762E-01    0.2098102380E+00
    0.1500000000E+03    0.5908690910E-01    0.7948065718E-01    0.2237060581E+00    0.1324982349E-01    0.2193934928E+00
    0.1700000000E+03    0.6493043501E-01    0.8312172654E-01    0.2317424138E+00    0.1389410078E-01    0.2274142607E+00
    0.1900000000E+03    0.7047303120E-01    0.8624075638E-01    0.2385625363E+00    0.1445268913E-01    0.2342406984E+00
    0.2100000000E+03    0.7574764975E-01    0.8893073491E-01    0.2444319468E+00    0.1494049489E-01    0.2401321172E+00
    0.2300000000E+03    0.8078230612E-01    0.9126276774E-01    0.2495431323E+00    0.1536894500E-01    0.2452766970E+00
    0.2500000000E+03    0.8560098672E-01    0.9329250274E-01    0.2540391954E+00    0.1574700694E-01    0.2498144826E+00
    0.2700000000E+03    0.9022436181E-01    0.9506432548E-01    0.2580288427E+00    0.1608185429E-01    0.2538519669E+00
    0.2900000000E+03    0.9467035082E-01    0.9661420207E-01    0.2615962068E+00    0.1637931761E-01    0.2574716534E+00
    0.3100000000E+03    0.9895457481E-01    0.9797166692E-01    0.2648074714E+00    0.1664419977E-01    0.2607385098E+00
    0.3300000000E+03    0.1030907216E+00    0.9916125026E-01    0.2677154531E+00    0.1688050252E-01    0.2637044347E+00
    0.3500000000E+03    0.1070908427E+00    0.1002035273E+00    0.2703628424E+00    0.1709159316E-01    0.2664114183E+00
    0.3700000000E+03    0.1109655967E+00    0.1011159045E+00    0.2727845397E+00    0.1728032961E-01    0.2688938229E+00
    0.3900000000E+03    0.1147244498E+00    0.1019132198E+00    0.2750093712E+00    0.1744915596E-01    0.2711800582E+00
    0.4100000000E+03    0.1183758424E+00    0.1026082071E+00    0.2770613669E+00    0.1760017651E-01    0.2732938302E+00
    0.4300000000E+03    0.1219273281E+00    0.1032118606E+00    0.2789607283E+00    0.1773521401E-01    0.2752550873E+00
    0.4500000000E+03    0.1253856904E+00    0.1037337247E+00    0.2807245684E+00    0.1785585603E-01    0.2770807449E+00
    0.4700000000E+03    0.1287570415E+00    0.1041821262E+00    0.2823674865E+00    0.1796349213E-01    0.2787852471E+00
    0.4900000000E+03    0.1320469055E+00    0.1045643628E+00    0.2839020181E+00    0.1805934414E-01    0.2803810081E+00
    0.1000000000E+03    0.4288597331E-01    0.6714377829E-01    0.1953502487E+00    0.1111234133E-01    0.1912458556E+00
    0.3000000000E+03    0.9683178642E-01    0.9731534934E-01    0.2632427804E+00    0.1651556464E-01    0.2591456776E+00
    0.5000000000E+03    0.1336628631E+00    0.1047327067E+00    0.2846320810E+00    0.1810319325E-01    0.2811415224E+00
    0.7000000000E+03    0.1627034102E+00    0.1058395795E+00    0.2955311712E+00    0.1856672192E-01    0.2926171592E+00
    0.9000000000E+03    0.1872456816E+00    0.1045005679E+00    0.3022595174E+00    0.1856263590E-01    0.2998533801E+00
    0.1100000000E+04    0.2088028783E+00    0.1020899686E+00    0.3068748648E+00    0.1833340349E-01    0.3049152844E+00
    0.1300000000E+04    0.2281906334E+00    0.9919810548E-01    0.3102603141E+00    0.1798768579E-01    0.3086969951E+00
    0.1500000000E+04    0.2458988913E+00    0.9610874582E-01    0.3128618363E+00    0.1758037345E-01    0.3116537956E+00
    0.1700000000E+04    0.2622462586E+00    0.9296837322E-01    0.3149305073E+00    0.1714155242E-01    0.3140440231E+00
    0.1900000000E+04    0.2774529888E+00    0.8985591788E-01    0.3166191733E+00    0.1668869299E-01    0.3160261297E+00
    0.2100000000E+04    0.2916789757E+00    0.8681469768E-01    0.3180265466E+00    0.1623236154E-01    0.3177031922E+00
    0.2300000000E+04    0.3050450487E+00    0.8386826331E-01    0.3192194013E+00    0.1577912455E-01    0.3191454283E+00
    0.2500000000E+04    0.3176456304E+00    0.8102876226E-01    0.3202446253E+00    0.1533312336E-01    0.3204024820E+00
    0.2700000000E+04    0.3295566257E+00    0.7830157820E-01    0.3211361709E+00    0.1489697400E-01    0.3215105416E+00
    0.2900000000E+04    0.3408405395E+00    0.7568801000E-01    0.3219192650E+00    0.1447230424E-01    0.3224966718E+00
    0.3100000000E+04    0.3515499070E+00    0.7318687033E-01    0.3226130677E+00    0.1406008606E-01    0.3233815600E+00
    0.3300000000E+04    0.3617296617E+00    0.7079546527E-01    0.3232324081E+00    0.1366084812E-01    0.3241813187E+00
    0.3500000000E+04    0.3714188104E+00    0.6851020787E-01    0.3237889541E+00    0.1327481519E-01    0.3249087038E+00
    0.3700000000E+04    0.3806516454E+00    0.6632700861E-01    0.3242920193E+00    0.1290200185E-01    0.3255739598E+00
    0.3900000000E+04    0.3894586390E+00    0.6424152706E-01    0.3247491342E+00    0.1254227675E-01    0.3261854196E+00
    0.4100000000E+04    0.3978671163E+00    0.6224933493E-01    0.3251664572E+00    0.1219540744E-01    0.3267499380E+00
    0.4300000000E+04    0.4059017696E+00    0.6034602203E-01    0.3255490762E+00    0.1186109214E-01    0.3272732118E+00
    0.4500000000E+04    0.4135850581E+00    0.5852726435E-01    0.3259012343E+00    0.1153898253E-01    0.3277600185E+00
    0.4700000000E+04    0.4209375227E+00    0.5678886726E-01    0.3262264991E+00    0.1122870023E-01    0.3282143987E+00
    0.4900000000E+04    0.4279780387E+00    0.5512679176E-01    0.3265278939E+00    0.1092984888E-01    0.3286397951E+00
    0.1000000000E+04    0.1983360670E+00    0.1033819461E+00    0.3047612196E+00    0.1846757012E-01    0.3025853136E+00
    0.3000000000E+04    0.3462640773E+00    0.7442352820E-01    0.3222763153E+00    0.1426459718E-01    0.3229506734E+00
    0.5000000000E+04    0.4313868101E+00    0.5432315880E-01    0.3266704611E+00    0.1078458326E-01    0.3288425642E+00
    0.7000000000E+04    0.4867956973E+00    0.4141444057E-01    0.3287332191E+00    0.8382021472E-02    0.3319136713E+00
    0.9000000000E+04    0.5247933027E+00    0.3280812691E-01    0.3299390663E+00    0.6705035993E-02    0.3338756977E+00
    0.1100000000E+05    0.5519131024E+00    0.2683517083E-01    0.3307302212E+00    0.5502714694E-02    0.3352703634E+00
    0.1300000000E+05    0.5719346156E+00    0.2253626826E-01    0.3312878234E+00    0.4616115149E-02    0.3363296920E+00
    0.1500000000E+05    0.5871498970E+00    0.1934231345E-01    0.3317004524E+00    0.3945019629E-02    0.3371715863E+00
    0.1700000000E+05    0.5990034383E+00    0.1690319149E-01    0.3320167597E+00    0.3425046445E-02    0.3378630439E+00
    0.1900000000E+05    0.6084373187E+00    0.1499578929E-01    0.3322657665E+00    0.3013792391E-02    0.3384452858E+00
    0.2100000000E+05    0.6160851912E+00    0.1347323321E-01    0.3324658906E+00    0.2682600825E-02    0.3389452343E+00
    0.2300000000E+05    0.6223852154E+00    0.1223595714E-01    0.3326293980E+00    0.2411621758E-02    0.3393813129E+00
    0.2500000000E+05    0.6276479654E+00    0.1121466470E-01    0.3327647802E+00    0.2186787579E-02    0.3397666105E+00
    0.2700000000E+05    0.6320985111E+00    0.1035997750E-01    0.3328781052E+00    0.1997918236E-02    0.3401107173E+00
    0.2900000000E+05    0.6359032251E+00    0.9635960397E-02    0.3329738258E+00    0.1837505848E-02    0.3404208435E+00
    0.3100000000E+05    0.6391872990E+00    0.9015962193E-02    0.3330552837E+00    0.1699917244E-02    0.3407025299E+00
    0.3300000000E+05    0.6420464581E+00    0.8479877769E-02    0.3331250359E+00    0.1580859420E-02    0.3409601154E+00
    0.3500000000E+05    0.6445549637E+00    0.8012305301E-02    0.3331850721E+00    0.1477014028E-02    0.3411970537E+00
    0.3700000000E+05    0.6467711856E+00    0.7601280517E-02    0.3332369633E+00    0.1385782804E-02    0.3414161336E+00
    0.3900000000E+05    0.6487415530E+00    0.7237391011E-02    0.3332819663E+00    0.1305107218E-02    0.3416196358E+00
    0.4100000000E+05    0.6505034006E+00    0.6913145888E-02    0.3333210982E+00    0.1233338692E-02    0.3418094465E+00
    0.4300000000E+05    0.6520870505E+00    0.6622520096E-02    0.3333551906E+00    0.1169143834E-02    0.3419871417E+00
    0.4500000000E+05    0.6535173548E+00    0.6360620276E-02    0.3333849301E+00    0.1111434323E-02    0.3421540499E+00
    0.4700000000E+05    0.6548148548E+00    0.6123436474E-02    0.3334108879E+00    0.1059314371E-02    0.3423113006E+00
    0.4900000000E+05    0.6559966606E+00    0.5907655389E-02    0.3334335434E+00    0.1012040912E-02    0.3424598612E+00
    0.1000000000E+05    0.5394313189E+00    0.2956438161E-01    0.3303719617E+00    0.6056198801E-02    0.3346255553E+00
    0.3000000000E+05    0.6376037767E+00    0.9314343900E-02    0.3330161623E+00    0.1766153357E-02    0.3405649466E+00
    0.5000000000E+05    0.6565487566E+00    0.5806910273E-02    0.3334437618E+00    0.9900235145E-03    0.3425311479E+00
    0.7000000000E+05    0.6640263410E+00    0.4439065047E-02    0.3335463362E+00    0.6963627699E-03    0.3436538132E+00
    0.9000000000E+05    0.6679468407E+00    0.3706401240E-02    0.3335495232E+00    0.5459231710E-03    0.3444227072E+00
    0.1100000000E+06    0.6703403647E+00    0.3243245065E-02    0.3335137859E+00    0.4550764632E-03    0.3450006740E+00
    0.1300000000E+06    0.6719469849E+00    0.2919662401E-02    0.3334611809E+00    0.3942774803E-03    0.3454604635E+00
    0.1500000000E+06    0.6730974233E+00    0.2678152536E-02    0.3334012190E+00    0.3506397245E-03    0.3458404616E+00
    0.1700000000E+06    0.6739607146E+00    0.2489325345E-02    0.3333384372E+00    0.3176991646E-03    0.3461632398E+00
    0.1900000000E+06    0.6746319227E+00    0.2336545818E-02    0.3332751367E+00    0.2918724675E-03    0.3464431270E+00
    0.2100000000E+06    0.6751684846E+00    0.2209655651E-02    0.3332125222E+00    0.2710181601E-03    0.3466897544E+00
    0.2300000000E+06    0.6756070943E+00    0.2102076919E-02    0.3331512262E+00    0.2537792159E-03    0.3469098890E+00
    0.2500000000E+06    0.6759722655E+00    0.2009347002E-02    0.3330915687E+00    0.2392543469E-03    0.3471084573E+00
    0.2700000000E+06    0.6762809852E+00    0.1928321563E-02    0.3330336941E+00    0.2268214658E-03    0.3472891508E+00
    0.2900000000E+06    0.6765453896E+00    0.1856714635E-02    0.3329776462E+00    0.2160371936E-03    0.3474548037E+00
    0.3100000000E+06    0.6767743764E+00    0.1792819978E-02    0.3329234109E+00    0.2065768223E-03    0.3476076364E+00
    0.3300000000E+06    0.6769746152E+00    0.1735335204E-02    0.3328709417E+00    0.1981969555E-03    0.3477494196E+00
    0.3500000000E+06    0.6771512028E+00    0.1683246828E-02    0.3328201736E+00    0.1907114327E-03    0.3478815866E+00
    0.3700000000E+06    0.6773081000E+00    0.1635752847E-02    0.3327710331E+00    0.1839753409E-03    0.3480053133E+00
    0.3900000000E+06    0.6774484310E+00    0.1592209205E-02    0.3327234432E+00    0.1778741113E-03    0.3481215759E+00
    0.4100000000E+06    0.6775746929E+00    0.1552091925E-02    0.3326773267E+00    0.1723159098E-03    0.3482311930E+00
    0.4300000000E+06    0.6776889053E+00    0.1514969758E-02    0.3326326081E+00    0.1672262143E-03    0.3483348577E+00
    0.4500000000E+06    0.6777927190E+00    0.1480484088E-02    0.3325892150E+00    0.1625438800E-03    0.3484331617E+00
    0.4700000000E+06    0.6778874968E+00    0.1448333898E-02    0.3325470785E+00    0.1582182351E-03    0.3485266140E+00
    0.4900000000E+06    0.6779743730E+00    0.1418264386E-02    0.3325061334E+00    0.1542069050E-03    0.3486156555E+00
    0.1000000000E+06    0.6692736124E+00    0.3451859678E-02    0.3335346959E+00    0.4954969055E-03    0.3447298503E+00
    0.3000000000E+06    0.6766638501E+00    0.1823892563E-02    0.3329503043E+00    0.2111583071E-03    0.3475327029E+00
    0.5000000000E+06    0.6780151517E+00    0.1403940698E-02    0.3324860884E+00    0.1523077202E-03    0.3486586442E+00
    0.7000000000E+06    0.6785828846E+00    0.1187495936E-02    0.3321348252E+00    0.1245029192E-03    0.3493587245E+00
    0.9000000000E+06    0.6788964264E+00    0.1049487786E-02    0.3318532648E+00    0.1076176227E-03    0.3498641284E+00
    0.1100000000E+07    0.6790957995E+00    0.9515047303E-03    0.3316182396E+00    0.9600728250E-04    0.3502584003E+00
    0.1300000000E+07    0.6792340515E+00    0.8772299055E-03    0.3314164073E+00    0.8740713896E-04    0.3505810048E+00
    0.1500000000E+07    0.6793357279E+00    0.8183792371E-03    0.3312394418E+00    0.8071248209E-04    0.3508536500E+00
    0.1700000000E+07    0.6794137577E+00    0.7702352045E-03    0.3310818076E+00    0.7531279524E-04    0.3510895281E+00
    0.1900000000E+07    0.6794756042E+00    0.7298854952E-03    0.3309396395E+00    0.7083993386E-04    0.3512972437E+00
    0.2100000000E+07    0.6795258797E+00    0.6954209122E-03    0.3308101311E+00    0.6705710630E-04    0.3514827139E+00
    0.2300000000E+07    0.6795675903E+00    0.6655302224E-03    0.3306911807E+00    0.6380423600E-04    0.3516501789E+00
    0.2500000000E+07    0.6796027797E+00    0.6392787603E-03    0.3305811722E+00    0.6096873795E-04    0.3518027789E+00
    0.2700000000E+07    0.6796328867E+00    0.6159797126E-03    0.3304788365E+00    0.5846883307E-04    0.3519429033E+00
    0.2900000000E+07    0.6796589540E+00    0.5951154385E-03    0.3303831583E+00    0.5624350531E-04    0.3520724115E+00
    0.3100000000E+07    0.6796817559E+00    0.5762873363E-03    0.3302933125E+00    0.5424618813E-04    0.3521927784E+00
    0.3300000000E+07    0.6797018795E+00    0.5591827662E-03    0.3302086192E+00    0.5244064771E-04    0.3523051934E+00
    0.3500000000E+07    0.6797197786E+00    0.5435525639E-03    0.3301285117E+00    0.5079821356E-04    0.3524106289E+00
    0.3700000000E+07    0.6797358093E+00    0.5291953558E-03    0.3300525123E+00    0.4929586495E-04    0.3525098906E+00
    0.3900000000E+07    0.6797502549E+00    0.5159463694E-03    0.3299802148E+00    0.4791487718E-04    0.3526036528E+00
    0.4100000000E+07    0.6797633439E+00    0.5036692904E-03    0.3299112708E+00    0.4663984406E-04    0.3526924857E+00
    0.4300000000E+07    0.6797752628E+00    0.4922502315E-03    0.3298453789E+00    0.4545795899E-04    0.3527768758E+00
    0.4500000000E+07    0.6797861648E+00    0.4815931954E-03    0.3297822771E+00    0.4435847754E-04    0.3528572411E+00
    0.4700000000E+07    0.6797961777E+00    0.4716166115E-03    0.3297217358E+00    0.4333230978E-04    0.3529339439E+00
    0.4900000000E+07    0.6798054082E+00    0.4622506595E-03    0.3296635528E+00    0.4237170690E-04    0.3530072997E+00
    0.1000000000E+07    0.6790060623E+00    0.9967877128E-03    0.3317309249E+00    0.1013349607E-03    0.3500721001E+00
    0.3000000000E+07    0.6796707228E+00    0.5854681167E-03    0.3303375518E+00    0.5521881462E-04    0.3521336575E+00
    0.5000000000E+07    0.6798097589E+00    0.4577775399E-03    0.3296352889E+00    0.4191387636E-04    0.3530428103E+00
    0.7000000000E+07    0.6798716975E+00    0.3893496453E-03    0.3291594390E+00    0.3498834684E-04    0.3536295706E+00
    0.9000000000E+07    0.6799072631E+00    0.3450145167E-03    0.3287983395E+00    0.3058297773E-04    0.3540626488E+00
    0.1100000000E+08    0.6799305616E+00    0.3132712267E-03    0.3285069619E+00    0.2747102298E-04    0.3544056750E+00
    0.1300000000E+08    0.6799471161E+00    0.2890864348E-03    0.3282625418E+00    0.2512517726E-04    0.3546895413E+00
    0.1500000000E+08    0.6799595464E+00    0.2698602209E-03    0.3280519407E+00    0.2327664566E-04    0.3549315808E+00
    0.1700000000E+08    0.6799692609E+00    0.2540954350E-03    0.3278668764E+00    0.2177225624E-04    0.3551424899E+00
    0.1900000000E+08    0.6799770865E+00    0.2408606814E-03    0.3277017873E+00    0.2051754131E-04    0.3553293321E+00
    0.2100000000E+08    0.6799835419E+00    0.2295419460E-03    0.3275527558E+00    0.1945068309E-04    0.3554970151E+00
    0.2300000000E+08    0.6799889699E+00    0.2197157411E-03    0.3274169174E+00    0.1852931998E-04    0.3556490867E+00
    0.2500000000E+08    0.6799936062E+00    0.2110792069E-03    0.3272921133E+00    0.1772332989E-04    0.3557881942E+00
    0.2700000000E+08    0.6799976185E+00    0.2034092150E-03    0.3271766761E+00    0.1701063460E-04    0.3559163653E+00
