  Pressure (Pa) 22mC5-400 (mol/kg) 2mC6-400 (mol/kg) 3mC6-400 (mol/kg) 33mC5-400 (mol/kg) C7-400 (mol/kg)
    0.1000000000E+01    0.5296276472E-03    0.4754407196E-02    0.1576524209E-02    0.5161651385E-03    0.3411014864E-02
    0.3000000000E+01    0.1570415596E-02    0.1387252316E-01    0.4604236437E-02    0.1506261072E-02    0.9963032722E-02
    0.5000000000E+01    0.2587506361E-02    0.2250426440E-01    0.7476307791E-02    0.2443782358E-02    0.1617972072E-01
    0.7000000000E+01    0.3581950902E-02    0.3068727499E-01    0.1020520102E-01    0.3332800360E-02    0.2208789389E-01
    0.9000000000E+01    0.4554736204E-02    0.3845534127E-01    0.1280206424E-01    0.4176968812E-02    0.2771154070E-01
    0.1100000000E+02    0.5506790154E-02    0.4583888091E-01    0.1527690061E-01    0.4979576801E-02    0.3307218766E-01
    0.1300000000E+02    0.6438985970E-02    0.5286535860E-01    0.1763871239E-01    0.5743593808E-02    0.3818920895E-01
    0.1500000000E+02    0.7352146240E-02    0.5955964113E-01    0.1989562367E-01    0.6471708172E-02    0.4308009025E-01
    0.1700000000E+02    0.8247046600E-02    0.6594430195E-01    0.2205498550E-01    0.7166360075E-02    0.4776065463E-01
    0.1900000000E+02    0.9124419100E-02    0.7203988336E-01    0.2412346619E-01    0.7829769941E-02    0.5224525677E-01
    0.2100000000E+02    0.9984955272E-02    0.7786512324E-01    0.2610712923E-01    0.8463962987E-02    0.5654695039E-01
    0.2300000000E+02    0.1082930895E-01    0.8343715171E-01    0.2801150078E-01    0.9070790518E-02    0.6067763335E-01
    0.2500000000E+02    0.1165809885E-01    0.8877166240E-01    0.2984162822E-01    0.9651948465E-02    0.6464817359E-01
    0.2700000000E+02    0.1247191095E-01    0.9388306200E-01    0.3160213127E-01    0.1020899358E-01    0.6846851899E-01
    0.2900000000E+02    0.1327130064E-01    0.9878460136E-01    0.3329724665E-01    0.1074335762E-01    0.7214779335E-01
    0.3100000000E+02    0.1405679477E-01    0.1034884907E+00    0.3493086720E-01    0.1125635983E-01    0.7569438067E-01
    0.3300000000E+02    0.1482889346E-01    0.1080060011E+00    0.3650657638E-01    0.1174921789E-01    0.7911599912E-01
    0.3500000000E+02    0.1558807184E-01    0.1123475542E+00    0.3802767856E-01    0.1222305769E-01    0.8241976641E-01
    0.3700000000E+02    0.1633478158E-01    0.1165228022E+00    0.3949722594E-01    0.1267892190E-01    0.8561225752E-01
    0.3900000000E+02    0.1706945240E-01    0.1205406978E+00    0.4091804230E-01    0.1311777760E-01    0.8869955584E-01
    0.4100000000E+02    0.1779249339E-01    0.1244095578E+00    0.4229274418E-01    0.1354052314E-01    0.9168729870E-01
    0.4300000000E+02    0.1850429424E-01    0.1281371188E+00    0.4362375966E-01    0.1394799416E-01    0.9458071786E-01
    0.4500000000E+02    0.1920522643E-01    0.1317305880E+00    0.4491334523E-01    0.1434096909E-01    0.9738467561E-01
    0.4700000000E+02    0.1989564431E-01    0.1351966877E+00    0.4616360075E-01    0.1472017396E-01    0.1001036972E+00
    0.4900000000E+02    0.2057588606E-01    0.1385416963E+00    0.4737648299E-01    0.1508628685E-01    0.1027419997E+00
    0.1000000000E+02    0.5033298790E-02    0.4219339560E-01    0.1405415121E-01    0.4583275261E-02    0.3042348112E-01
    0.3000000000E+02    0.1366575279E-01    0.1011605269E+00    0.3412151293E-01    0.1100245059E-01    0.7393717571E-01
    0.5000000000E+02    0.2091229238E-01    0.1401706411E+00    0.4796948448E-01    0.1526463355E-01    0.1040321214E+00
    0.7000000000E+02    0.2717746887E-01    0.1676333505E+00    0.5825172354E-01    0.1827826592E-01    0.1264252355E+00
    0.9000000000E+02    0.3271650979E-01    0.1878053625E+00    0.6628142029E-01    0.2050302584E-01    0.1439477667E+00
    0.1100000000E+03    0.3769931151E-01    0.2030833413E+00    0.7278660579E-01    0.2219771041E-01    0.1581705069E+00
    0.1300000000E+03    0.4224391022E-01    0.2149229642E+00    0.7820543301E-01    0.2351952734E-01    0.1700394793E+00
    0.1500000000E+03    0.4643522508E-01    0.2242601757E+00    0.8281853690E-01    0.2456958391E-01    0.1801610234E+00
    0.1700000000E+03    0.5033614948E-01    0.2317241058E+00    0.8681467226E-01    0.2541587111E-01    0.1889432356E+00
    0.1900000000E+03    0.5399442063E-01    0.2377530357E+00    0.9032590508E-01    0.2610577934E-01    0.1966718352E+00
    0.2100000000E+03    0.5744704063E-01    0.2426614051E+00    0.9344769194E-01    0.2667332932E-01    0.2035534711E+00
    0.2300000000E+03    0.6072321646E-01    0.2466804346E+00    0.9625093500E-01    0.2714355571E-01    0.2097417317E+00
    0.2500000000E+03    0.6384637105E-01    0.2499837545E+00    0.9878953315E-01    0.2753527273E-01    0.2153534451E+00
    0.2700000000E+03    0.6683555332E-01    0.2527041275E+00    0.1011052852E+00    0.2786287889E-01    0.2204792666E+00
    0.2900000000E+03    0.6970644845E-01    0.2549446790E+00    0.1032311736E+00    0.2813756914E-01    0.2251907727E+00
    0.3100000000E+03    0.7247211592E-01    0.2567866297E+00    0.1051936227E+00    0.2836816968E-01    0.2295453418E+00
    0.3300000000E+03    0.7514353783E-01    0.2582947379E+00    0.1070140902E+00    0.2856172555E-01    0.2335895936E+00
    0.3500000000E+03    0.7773003285E-01    0.2595212044E+00    0.1087102097E+00    0.2872392244E-01    0.2373618620E+00
    0.3700000000E+03    0.8023957299E-01    0.2605085230E+00    0.1102966293E+00    0.2885939463E-01    0.2408940078E+00
    0.3900000000E+03    0.8267902905E-01    0.2612915937E+00    0.1117856348E+00    0.2897195335E-01    0.2442127683E+00
    0.4100000000E+03    0.8505436321E-01    0.2618993112E+00    0.1131876212E+00    0.2906475850E-01    0.2473407784E+00
    0.4300000000E+03    0.8737078158E-01    0.2623557737E+00    0.1145114541E+00    0.2914044946E-01    0.2502973526E+00
    0.4500000000E+03    0.8963285628E-01    0.2626812146E+00    0.1157647496E+00    0.2920124577E-01    0.2530990920E+00
    0.4700000000E+03    0.9184462407E-01    0.2628927268E+00    0.1169540941E+00    0.2924902563E-01    0.2557603607E+00
    0.4900000000E+03    0.9400966656E-01    0.2630048317E+00    0.1180852183E+00    0.2928538749E-01    0.2582936631E+00
    0.1000000000E+03    0.3526911661E-01    0.1959494410E+00    0.6969241154E-01    0.2140510891E-01    0.1514021767E+00
    0.3000000000E+03    0.7110170597E-01    0.2559110981E+00    0.1042313857E+00    0.2825790417E-01    0.2274095413E+00
    0.5000000000E+03    0.9507567709E-01    0.2630275544E+00    0.1186305397E+00    0.2929972195E-01    0.2595158019E+00
    0.7000000000E+03    0.1145626797E+00    0.2604861403E+00    0.1274232265E+00    0.2923305482E-01    0.2793004989E+00
    0.9000000000E+03    0.1315838722E+00    0.2552331547E+00    0.1336392756E+00    0.2882882235E-01    0.2933875203E+00
    0.1100000000E+04    0.1469903706E+00    0.2491756199E+00    0.1383902351E+00    0.2830505134E-01    0.3042184667E+00
    0.1300000000E+04    0.1612253306E+00    0.2429719806E+00    0.1422021374E+00    0.2774053244E-01    0.3129534139E+00
    0.1500000000E+04    0.1745511896E+00    0.2368752524E+00    0.1453639160E+00    0.2716781509E-01    0.3202317686E+00
    0.1700000000E+04    0.1871374634E+00    0.2309845200E+00    0.1480507044E+00    0.2660133816E-01    0.3264422984E+00
    0.1900000000E+04    0.1991007454E+00    0.2253346047E+00    0.1503763749E+00    0.2604764354E-01    0.3318384883E+00
    0.2100000000E+04    0.2105251562E+00    0.2199320637E+00    0.1524189660E+00    0.2550957416E-01    0.3365945012E+00
    0.2300000000E+04    0.2214737306E+00    0.2147708719E+00    0.1542341928E+00    0.2498815967E-01    0.3408349738E+00
    0.2500000000E+04    0.2319951889E+00    0.2098396393E+00    0.1558631576E+00    0.2448352037E-01    0.3446520563E+00
    0.2700000000E+04    0.2421281811E+00    0.2051250420E+00    0.1573370070E+00    0.2399532166E-01    0.3481157236E+00
    0.2900000000E+04    0.2519040608E+00    0.2006134701E+00    0.1586798784E+00    0.2352301006E-01    0.3512803086E+00
    0.3100000000E+04    0.2613487638E+00    0.1962918022E+00    0.1599108349E+00    0.2306593849E-01    0.3541888025E+00
    0.3300000000E+04    0.2704841177E+00    0.1921477419E+00    0.1610451799E+00    0.2262343293E-01    0.3568757779E+00
    0.3500000000E+04    0.2793287785E+00    0.1881699349E+00    0.1620953732E+00    0.2219482767E-01    0.3593694313E+00
    0.3700000000E+04    0.2878989136E+00    0.1843479741E+00    0.1630716862E+00    0.2177948309E-01    0.3616930436E+00
    0.3900000000E+04    0.2962087105E+00    0.1806723528E+00    0.1639826790E+00    0.2137679386E-01    0.3638660481E+00
    0.4100000000E+04    0.3042707606E+00    0.1771343944E+00    0.1648355558E+00    0.2098619175E-01    0.3659048240E+00
    0.4300000000E+04    0.3120963536E+00    0.1737261756E+00    0.1656364329E+00    0.2060714553E-01    0.3678232971E+00
    0.4500000000E+04    0.3196957059E+00    0.1704404497E+00    0.1663905437E+00    0.2023915941E-01    0.3696334003E+00
    0.4700000000E+04    0.3270781393E+00    0.1672705760E+00    0.1671023987E+00    0.1988177070E-01    0.3713454316E+00
    0.4900000000E+04    0.3342522228E+00    0.1642104539E+00    0.1677759103E+00    0.1953454718E-01    0.3729683356E+00
    0.1000000000E+04    0.1394554345E+00    0.2522492626E+00    0.1361571524E+00    0.2857531085E-01    0.2991202524E+00
    0.3000000000E+04    0.2566663613E+00    0.1984296881E+00    0.1593083137E+00    0.2329261129E-01    0.3527642362E+00
    0.5000000000E+04    0.3377636337E+00    0.1627197767E+00    0.1680993713E+00    0.1936461999E-01    0.3737488462E+00
    0.7000000000E+04    0.3987289499E+00    0.1375095889E+00    0.1731945755E+00    0.1641373724E-01    0.3861461497E+00
    0.9000000000E+04    0.4455167380E+00    0.1188641924E+00    0.1766449138E+00    0.1413937290E-01    0.3946677844E+00
    0.1100000000E+05    0.4818909903E+00    0.1046580745E+00    0.1791867889E+00    0.1235612285E-01    0.4010252791E+00
    0.1300000000E+05    0.5105173083E+00    0.9358135618E-01    0.1811621732E+00    0.1093726022E-01    0.4060209297E+00
    0.1500000000E+05    0.5333271391E+00    0.8477194418E-01    0.1827553269E+00    0.9792621149E-02    0.4100904652E+00
    0.1700000000E+05    0.5517280800E+00    0.7764124048E-01    0.1840758073E+00    0.8856956146E-02    0.4134947392E+00
    0.1900000000E+05    0.5667510673E+00    0.7177715760E-01    0.1851935170E+00    0.8082518784E-02    0.4164011892E+00
    0.2100000000E+05    0.5791564832E+00    0.6688528109E-01    0.1861554958E+00    0.7434006947E-02    0.4189230934E+00
    0.2300000000E+05    0.5895101624E+00    0.6275146896E-01    0.1869947456E+00    0.6885037330E-02    0.4211403110E+00
    0.2500000000E+05    0.5982374241E+00    0.5921738436E-01    0.1877352112E+00    0.6415671350E-02    0.4231110412E+00
    0.2700000000E+05    0.6056613814E+00    0.5616414828E-01    0.1883947522E+00    0.6010670242E-02    0.4248788737E+00
    0.2900000000E+05    0.6120301544E+00    0.5350122257E-01    0.1889870029E+00    0.5658256869E-02    0.4264772140E+00
    0.3100000000E+05    0.6175363037E+00    0.5115872784E-01    0.1895225789E+00    0.5349230374E-02    0.4279321675E+00
    0.3300000000E+05    0.6223308114E+00    0.4908205471E-01    0.1900098872E+00    0.5076327550E-02    0.4292644815E+00
    0.3500000000E+05    0.6265332260E+00    0.4722802975E-01    0.1904556853E+00    0.4833757776E-02    0.4304908883E+00
    0.3700000000E+05    0.6302390945E+00    0.4556215043E-01    0.1908654758E+00    0.4616860998E-02    0.4316250574E+00
    0.3900000000E+05    0.6335254570E+00    0.4405656536E-01    0.1912437916E+00    0.4421853703E-02    0.4326782846E+00
    0.4100000000E+05    0.6364549513E+00    0.4268858091E-01    0.1915944050E+00    0.4245638370E-02    0.4336600000E+00
    0.4300000000E+05    0.6390789054E+00    0.4143954413E-01    0.1919204850E+00    0.4085659174E-02    0.4345781481E+00
    0.4500000000E+05    0.6414396908E+00    0.4029399827E-01    0.1922247157E+00    0.3939791693E-02    0.4354394779E+00
    0.4700000000E+05    0.6435725288E+00    0.3923903751E-01    0.1925093879E+00    0.3806257848E-02    0.4362497659E+00
    0.4900000000E+05    0.6455068883E+00    0.3826380932E-01    0.1927764704E+00    0.3683559750E-02    0.4370139899E+00
    0.1000000000E+05    0.4648186660E+00    0.1113014671E+00    0.1780027821E+00    0.1319531696E-01    0.3980547279E+00
    0.3000000000E+05    0.6148807806E+00    0.5229364119E-01    0.1892613055E+00    0.5498813471E-02    0.4272212099E+00
    0.5000000000E+05    0.6464075485E+00    0.3780316783E-01    0.1929039566E+00    0.3625869627E-02    0.4373801996E+00
    0.7000000000E+05    0.6583503097E+00    0.3114656897E-01    0.1948439447E+00    0.2815597922E-02    0.4430854090E+00
    0.9000000000E+05    0.6643355060E+00    0.2718225337E-01    0.1960824210E+00    0.2359647703E-02    0.4468934675E+00
    0.1100000000E+06    0.6678492301E+00    0.2448146023E-01    0.1969537154E+00    0.2063412329E-02    0.4496803514E+00
    0.1300000000E+06    0.6701311294E+00    0.2248724635E-01    0.1976053220E+00    0.1853037663E-02    0.4518409456E+00
    0.1500000000E+06    0.6717200577E+00    0.2093456102E-01    0.1981136159E+00    0.1694427310E-02    0.4535836802E+00
    0.1700000000E+06    0.6728842360E+00    0.1967959935E-01    0.1985225573E+00    0.1569629415E-02    0.4550306337E+00
    0.1900000000E+06    0.6737708840E+00    0.1863678698E-01    0.1988594352E+00    0.1468259433E-02    0.4562588202E+00
    0.2100000000E+06    0.6744670050E+00    0.1775159255E-01    0.1991421805E+00    0.1383870541E-02    0.4573196152E+00
    0.2300000000E+06    0.6750270780E+00    0.1698738720E-01    0.1993831110E+00    0.1312234617E-02    0.4582488183E+00
    0.2500000000E+06    0.6754868404E+00    0.1631851895E-01    0.1995909964E+00    0.1250454390E-02    0.4590722657E+00
    0.2700000000E+06    0.6758706489E+00    0.1572640481E-01    0.1997722662E+00    0.1196472219E-02    0.4598091472E+00
    0.2900000000E+06    0.6761956427E+00    0.1519720073E-01    0.1999317520E+00    0.1148782681E-02    0.4604740636E+00
    0.3100000000E+06    0.6764742133E+00    0.1472034777E-01    0.2000731610E+00    0.1106256401E-02    0.4610783539E+00
    0.3300000000E+06    0.6767155313E+00    0.1428762954E-01    0.2001993894E+00    0.1068027780E-02    0.4616309800E+00
    0.3500000000E+06    0.6769265214E+00    0.1389254122E-01    0.2003127358E+00    0.1033421001E-02    0.4621391344E+00
    0.3700000000E+06    0.6771125065E+00    0.1352985497E-01    0.2004150491E+00    0.1001899839E-02    0.4626086676E+00
    0.3900000000E+06    0.6772776422E+00    0.1319531338E-01    0.2005078355E+00    0.9730327518E-03    0.4630443952E+00
    0.4100000000E+06    0.6774252185E+00    0.1288540855E-01    0.2005923347E+00    0.9464680491E-03    0.4634503232E+00
    0.4300000000E+06    0.6775578728E+00    0.1259721985E-01    0.2006695775E+00    0.9219158894E-03    0.4638298158E+00
    0.4500000000E+06    0.6776777429E+00    0.1232829273E-01    0.2007404283E+00    0.8991349873E-03    0.4641857228E+00
    0.4700000000E+06    0.6777865795E+00    0.1207654686E-01    0.2008056179E+00    0.8779226493E-03    0.4645204767E+00
    0.4900000000E+06    0.6778858297E+00    0.1184020552E-01    0.2008657684E+00    0.8581071950E-03    0.4648361686E+00
    0.1000000000E+06    0.6662986378E+00    0.2571896594E-01    0.1965523423E+00    0.2197586303E-02    0.4483836073E+00
    0.3000000000E+06    0.6763400957E+00    0.1495279022E-01    0.2000045190E+00    0.1126933405E-02    0.4607831794E+00
    0.5000000000E+06    0.6779322448E+00    0.1172732557E-01    0.2008941238E+00    0.8486766647E-03    0.4649874414E+00
    0.7000000000E+06    0.6785664160E+00    0.9999225873E-02    0.2012934461E+00    0.7069679268E-03    0.4673460242E+00
    0.9000000000E+06    0.6789062231E+00    0.8877032196E-02    0.2015096694E+00    0.6175671647E-03    0.4689262840E+00
    0.1100000000E+07    0.6791179869E+00    0.8071667936E-02    0.2016376336E+00    0.5546567780E-03    0.4700889375E+00
    0.1300000000E+07    0.6792626852E+00    0.7456787650E-02    0.2017166349E+00    0.5073275025E-03    0.4709955671E+00
    0.1500000000E+07    0.6793678953E+00    0.6967090944E-02    0.2017659282E+00    0.4700714214E-03    0.4717311993E+00
    0.1700000000E+07    0.6794478963E+00    0.6564930155E-02    0.2017960460E+00    0.4397684252E-03    0.4723455694E+00
    0.1900000000E+07    0.6795108201E+00    0.6226852173E-02    0.2018132176E+00    0.4145016928E-03    0.4728700458E+00
    0.2100000000E+07    0.6795616373E+00    0.5937374434E-02    0.2018213489E+00    0.3930202353E-03    0.4733255631E+00
    0.2300000000E+07    0.6796035578E+00    0.5685804378E-02    0.2018230030E+00    0.3744684029E-03    0.4737267222E+00
    0.2500000000E+07    0.6796387468E+00    0.5464485608E-02    0.2018199234E+00    0.3582385892E-03    0.4740840728E+00
    0.2700000000E+07    0.6796687185E+00    0.5267770767E-02    0.2018133315E+00    0.3438858827E-03    0.4744054618E+00
    0.2900000000E+07    0.6796945634E+00    0.5091389896E-02    0.2018041046E+00    0.3310760596E-03    0.4746968691E+00
    0.3100000000E+07    0.6797170872E+00    0.4932045936E-02    0.2017928853E+00    0.3195525460E-03    0.4749629463E+00
    0.3300000000E+07    0.6797368980E+00    0.4787146681E-02    0.2017801526E+00    0.3091146803E-03    0.4752073766E+00
    0.3500000000E+07    0.6797544635E+00    0.4654621881E-02    0.2017662690E+00    0.2996029759E-03    0.4754331211E+00
    0.3700000000E+07    0.6797701495E+00    0.4532795254E-02    0.2017515123E+00    0.2908888678E-03    0.4756425930E+00
    0.3900000000E+07    0.6797842459E+00    0.4420292914E-02    0.2017360976E+00    0.2828674147E-03    0.4758377822E+00
    0.4100000000E+07    0.6797969860E+00    0.4315976561E-02    0.2017201930E+00    0.2754520015E-03    0.4760203472E+00
    0.4300000000E+07    0.6798085590E+00    0.4218893888E-02    0.2017039309E+00    0.2685704232E-03    0.4761916837E+00
    0.4500000000E+07    0.6798191206E+00    0.4128241192E-02    0.2016874165E+00    0.2621619453E-03    0.4763529757E+00
    0.4700000000E+07    0.6798287997E+00    0.4043334784E-02    0.2016707335E+00    0.2561750652E-03    0.4765052362E+00
    0.4900000000E+07    0.6798377042E+00    0.3963588859E-02    0.2016539490E+00    0.2505657847E-03    0.4766493374E+00
    0.1000000000E+07    0.6790231098E+00    0.8444713978E-02    0.2015815385E+00    0.5836675438E-03    0.4695471335E+00
    0.3000000000E+07    0.6797061986E+00    0.5009764366E-02    0.2017987109E+00    0.3251671665E-03    0.4748328244E+00
    0.5000000000E+07    0.6798418949E+00    0.3925490432E-02    0.2016455360E+00    0.2478907088E-03    0.4767185686E+00
    0.7000000000E+07    0.6799010780E+00    0.3341727666E-02    0.2014805535E+00    0.2073017363E-03    0.4778148496E+00
    0.9000000000E+07    0.6799345911E+00    0.2962609826E-02    0.2013295572E+00    0.1813715159E-03    0.4785700643E+00
    0.1100000000E+08    0.6799563147E+00    0.2690773394E-02    0.2011939967E+00    0.1630077956E-03    0.4791385743E+00
    0.1300000000E+08    0.6799716188E+00    0.2483460059E-02    0.2010719694E+00    0.1491416269E-03    0.4795906309E+00
    0.1500000000E+08    0.6799830278E+00    0.2318533530E-02    0.2009613423E+00    0.1382020196E-03    0.4799637206E+00
    0.1700000000E+08    0.6799918887E+00    0.2183226123E-02    0.2008602888E+00    0.1292911330E-03    0.4802800472E+00
    0.1900000000E+08    0.6799989876E+00    0.2069585165E-02    0.2007673299E+00    0.1218540350E-03    0.4805537744E+00
    0.2100000000E+08    0.6800048151E+00    0.1972362870E-02    0.2006812802E+00    0.1155269846E-03    0.4807944542E+00
    0.2300000000E+08    0.6800096933E+00    0.1887936984E-02    0.2006011860E+00    0.1100603924E-03    0.4810088127E+00
    0.2500000000E+08    0.6800138434E+00    0.1813715352E-02    0.2005262731E+00    0.1052765908E-03    0.4812017537E+00
    0.2700000000E+08    0.6800174217E+00    0.1747787183E-02    0.2004559064E+00    0.1010452404E-03    0.4813769555E+00
