  Pressure (Pa) 22mC5-400 (mol/kg) 2mC6-400 (mol/kg) 3mC6-400 (mol/kg) 33mC5-400 (mol/kg) C7-400 (mol/kg)
    0.1000000000E+01    0.5313633728E-03    0.1570043388E-02    0.1555650310E-02    0.3196572592E-03    0.1514738762E-01
    0.3000000000E+01    0.1585689938E-02    0.4503313591E-02    0.4430499651E-02    0.9173222606E-03    0.4315070237E-01
    0.5000000000E+01    0.2629005210E-02    0.7194901142E-02    0.7028470441E-02    0.1466352031E-02    0.6847021686E-01
    0.7000000000E+01    0.3661530411E-02    0.9678850982E-02    0.9388122622E-02    0.1973633722E-02    0.9147911178E-01
    0.9000000000E+01    0.4683480656E-02    0.1198298435E-01    0.1154115481E-01    0.2444790939E-02    0.1124842159E+00
    0.1100000000E+02    0.5695065161E-02    0.1413025135E-01    0.1351386651E-01    0.2884458880E-02    0.1317401396E+00
    0.1300000000E+02    0.6696487455E-02    0.1613974726E-01    0.1532826168E-01    0.3296491009E-02    0.1494599427E+00
    0.1500000000E+02    0.7687945565E-02    0.1802748609E-01    0.1700289212E-01    0.3684116275E-02    0.1658232888E+00
    0.1700000000E+02    0.8669632208E-02    0.1980699593E-01    0.1855350963E-01    0.4050060100E-02    0.1809827504E+00
    0.1900000000E+02    0.9641734970E-02    0.2148978229E-01    0.1999357572E-01    0.4396638473E-02    0.1950687376E+00
    0.2100000000E+02    0.1060443647E-01    0.2308569205E-01    0.2133466376E-01    0.4725831836E-02    0.2081933879E+00
    0.2300000000E+02    0.1155791455E-01    0.2460320202E-01    0.2258677927E-01    0.5039343644E-02    0.2204536634E+00
    0.2500000000E+02    0.1250234239E-01    0.2604964958E-01    0.2375861715E-01    0.5338647147E-02    0.2319338389E+00
    0.2700000000E+02    0.1343788871E-01    0.2743141858E-01    0.2485776979E-01    0.5625023067E-02    0.2427075157E+00
    0.2900000000E+02    0.1436471786E-01    0.2875409005E-01    0.2589089674E-01    0.5899590154E-02    0.2528392628E+00
    0.3100000000E+02    0.1528299002E-01    0.3002256551E-01    0.2686386402E-01    0.6163330143E-02    0.2623859644E+00
    0.3300000000E+02    0.1619286130E-01    0.3124116819E-01    0.2778185907E-01    0.6417108256E-02    0.2713979331E+00
    0.3500000000E+02    0.1709448386E-01    0.3241372686E-01    0.2864948634E-01    0.6661690157E-02    0.2799198341E+00
    0.3700000000E+02    0.1798800606E-01    0.3354364548E-01    0.2947084714E-01    0.6897756037E-02    0.2879914588E+00
    0.3900000000E+02    0.1887357259E-01    0.3463396149E-01    0.3024960666E-01    0.7125912395E-02    0.2956483729E+00
    0.4100000000E+02    0.1975132454E-01    0.3568739477E-01    0.3098905060E-01    0.7346701928E-02    0.3029224653E+00
    0.4300000000E+02    0.2062139954E-01    0.3670638896E-01    0.3169213316E-01    0.7560611869E-02    0.3098424121E+00
    0.4500000000E+02    0.2148393189E-01    0.3769314649E-01    0.3236151792E-01    0.7768081067E-02    0.3164340725E+00
    0.4700000000E+02    0.2233905260E-01    0.3864965850E-01    0.3299961283E-01    0.7969506000E-02    0.3227208280E+00
    0.4900000000E+02    0.2318688955E-01    0.3957773030E-01    0.3360860021E-01    0.8165245927E-02    0.3287238727E+00
    0.1000000000E+02    0.5190555774E-02    0.1307495241E-01    0.1254858576E-01    0.2668303953E-02    0.1223166411E+00
    0.3000000000E+02    0.1482491371E-01    0.2939481958E-01    0.2638456142E-01    0.6032756943E-02    0.2576824574E+00
    0.5000000000E+02    0.2360811574E-01    0.4003161994E-01    0.3390280532E-01    0.8261087201E-02    0.3316250911E+00
    0.7000000000E+02    0.3167913462E-01    0.4794586021E-01    0.3865537716E-01    0.9944921381E-02    0.3786083932E+00
    0.9000000000E+02    0.3914718931E-01    0.5422876678E-01    0.4194531520E-01    0.1130091804E-01    0.4112973005E+00
    0.1100000000E+03    0.4609938866E-01    0.5939915128E-01    0.4436525587E-01    0.1243176906E-01    0.4354618775E+00
    0.1300000000E+03    0.5260612293E-01    0.6374865249E-01    0.4622428804E-01    0.1339521288E-01    0.4541166229E+00
    0.1500000000E+03    0.5872494275E-01    0.6746123090E-01    0.4769978835E-01    0.1422776767E-01    0.4689943975E+00
    0.1700000000E+03    0.6450339991E-01    0.7066268014E-01    0.4890101420E-01    0.1495450994E-01    0.4811643816E+00
    0.1900000000E+03    0.6998116105E-01    0.7344410016E-01    0.4989904237E-01    0.1559369053E-01    0.4913232949E+00
    0.2100000000E+03    0.7519160337E-01    0.7587426705E-01    0.5074216589E-01    0.1615916021E-01    0.4999453164E+00
    0.2300000000E+03    0.8016303503E-01    0.7800672925E-01    0.5146438122E-01    0.1666175957E-01    0.5073648078E+00
    0.2500000000E+03    0.8491963977E-01    0.7988416838E-01    0.5209033603E-01    0.1711017318E-01    0.5138245867E+00
    0.2700000000E+03    0.8948221616E-01    0.8154123310E-01    0.5263835020E-01    0.1751148556E-01    0.5195054310E+00
    0.2900000000E+03    0.9386876191E-01    0.8300646635E-01    0.5312233339E-01    0.1787155997E-01    0.5245448251E+00
    0.3100000000E+03    0.9809494009E-01    0.8430366562E-01    0.5355304312E-01    0.1819530667E-01    0.5290492721E+00
    0.3300000000E+03    0.1021744542E+00    0.8545287251E-01    0.5393893428E-01    0.1848687858E-01    0.5331026141E+00
    0.3500000000E+03    0.1061193527E+00    0.8647111098E-01    0.5428674700E-01    0.1874981780E-01    0.5367717978E+00
    0.3700000000E+03    0.1099402774E+00    0.8737294968E-01    0.5460192267E-01    0.1898716759E-01    0.5401109567E+00
    0.3900000000E+03    0.1136466683E+00    0.8817093785E-01    0.5488890401E-01    0.1920155946E-01    0.5431643604E+00
    0.4100000000E+03    0.1172469333E+00    0.8887594824E-01    0.5515135537E-01    0.1939528193E-01    0.5459685803E+00
    0.4300000000E+03    0.1207485889E+00    0.8949745041E-01    0.5539232695E-01    0.1957033548E-01    0.5485541066E+00
    0.4500000000E+03    0.1241583791E+00    0.9004373094E-01    0.5561437898E-01    0.1972847701E-01    0.5509465722E+00
    0.4700000000E+03    0.1274823750E+00    0.9052207261E-01    0.5581967687E-01    0.1987125610E-01    0.5531676910E+00
    0.4900000000E+03    0.1307260591E+00    0.9093890141E-01    0.5601006490E-01    0.2000004481E-01    0.5552359854E+00
    0.1000000000E+03    0.4268303114E-01    0.5693139473E-01    0.4324050306E-01    0.1189020688E-01    0.4242157383E+00
    0.3000000000E+03    0.9600099842E-01    0.8367473927E-01    0.5334377294E-01    0.1803769889E-01    0.5268582232E+00
    0.5000000000E+03    0.1323193544E+00    0.9112605270E-01    0.5610017071E-01    0.2005957920E-01    0.5562178821E+00
    0.7000000000E+03    0.1609587528E+00    0.9272637518E-01    0.5740612544E-01    0.2075021054E-01    0.5707237286E+00
    0.9000000000E+03    0.1851775497E+00    0.9194833009E-01    0.5817018660E-01    0.2086236644E-01    0.5795522136E+00
    0.1100000000E+04    0.2064665565E+00    0.9008041789E-01    0.5867134499E-01    0.2068602069E-01    0.5855670399E+00
    0.1300000000E+04    0.2256274522E+00    0.8769239093E-01    0.5902465582E-01    0.2035466387E-01    0.5899669274E+00
    0.1500000000E+04    0.2431411718E+00    0.8506521451E-01    0.5928644516E-01    0.1993720532E-01    0.5933470948E+00
    0.1700000000E+04    0.2593202187E+00    0.8234779913E-01    0.5948761164E-01    0.1947217448E-01    0.5960385568E+00
    0.1900000000E+04    0.2743805119E+00    0.7962286148E-01    0.5964654532E-01    0.1898239596E-01    0.5982409686E+00
    0.2100000000E+04    0.2884787320E+00    0.7693759043E-01    0.5977488568E-01    0.1848197294E-01    0.6000823590E+00
    0.2300000000E+04    0.3017332335E+00    0.7431908471E-01    0.5988036279E-01    0.1797988507E-01    0.6016488571E+00
    0.2500000000E+04    0.3142364687E+00    0.7178261705E-01    0.5996831306E-01    0.1748196298E-01    0.6030006833E+00
    0.2700000000E+04    0.3260627292E+00    0.6933628296E-01    0.6004253969E-01    0.1699202934E-01    0.6041813014E+00
    0.2900000000E+04    0.3372731670E+00    0.6698372414E-01    0.6010582647E-01    0.1651258716E-01    0.6052229266E+00
    0.3100000000E+04    0.3479191610E+00    0.6472577853E-01    0.6016025778E-01    0.1604525053E-01    0.6061499826E+00
    0.3300000000E+04    0.3580446403E+00    0.6256150846E-01    0.6020742504E-01    0.1559102263E-01    0.6069813505E+00
    0.3500000000E+04    0.3676877285E+00    0.6048885626E-01    0.6024856411E-01    0.1515048017E-01    0.6077318757E+00
    0.3700000000E+04    0.3768819334E+00    0.5850507036E-01    0.6028464914E-01    0.1472389857E-01    0.6084134056E+00
    0.3900000000E+04    0.3856570254E+00    0.5660698635E-01    0.6031645820E-01    0.1431133880E-01    0.6090355203E+00
    0.4100000000E+04    0.3940396976E+00    0.5479121453E-01    0.6034462006E-01    0.1391270859E-01    0.6096060577E+00
    0.4300000000E+04    0.4020540705E+00    0.5305426590E-01    0.6036964826E-01    0.1352780632E-01    0.6101314985E+00
    0.4500000000E+04    0.4097220847E+00    0.5139263697E-01    0.6039196621E-01    0.1315635290E-01    0.6106172522E+00
    0.4700000000E+04    0.4170638091E+00    0.4980286674E-01    0.6041192604E-01    0.1279801518E-01    0.6110678729E+00
    0.4900000000E+04    0.4240976888E+00    0.4828157451E-01    0.6042982290E-01    0.1245242325E-01    0.6114872251E+00
    0.1000000000E+04    0.1961279503E+00    0.9110530257E-01    0.5844441293E-01    0.2079976622E-01    0.5828156887E+00
    0.3000000000E+04    0.3426638213E+00    0.6584295075E-01    0.6013403991E-01    0.1627733115E-01    0.6056994862E+00
    0.5000000000E+04    0.4275045569E+00    0.4754557938E-01    0.6043807714E-01    0.1228428457E-01    0.6116862266E+00
    0.7000000000E+04    0.4830121768E+00    0.3569458811E-01    0.6053889123E-01    0.9491345954E-02    0.6146214916E+00
    0.9000000000E+04    0.5212357898E+00    0.2778116955E-01    0.6057547744E-01    0.7532097804E-02    0.6164040475E+00
    0.1100000000E+05    0.5486075161E+00    0.2229840810E-01    0.6058528434E-01    0.6125022927E-02    0.6176160948E+00
    0.1300000000E+05    0.5688687706E+00    0.1836669885E-01    0.6058222320E-01    0.5087579461E-02    0.6185011063E+00
    0.1500000000E+05    0.5842994771E+00    0.1546000649E-01    0.6057247391E-01    0.4303323969E-02    0.6191801142E+00
    0.1700000000E+05    0.5963422728E+00    0.1325326874E-01    0.6055911369E-01    0.3696939809E-02    0.6197204358E+00
    0.1900000000E+05    0.6059411483E+00    0.1153885212E-01    0.6054379899E-01    0.3218610269E-02    0.6201626253E+00
    0.2100000000E+05    0.6137327809E+00    0.1017994307E-01    0.6052747178E-01    0.2834577876E-02    0.6205326308E+00
    0.2300000000E+05    0.6201584238E+00    0.9083797834E-02    0.6051068881E-01    0.2521420873E-02    0.6208478591E+00
    0.2500000000E+05    0.6255314425E+00    0.8185916637E-02    0.6049378769E-01    0.2262525282E-02    0.6211204423E+00
    0.2700000000E+05    0.6300792984E+00    0.7440398718E-02    0.6047697613E-01    0.2045863992E-02    0.6213591083E+00
    0.2900000000E+05    0.6339703660E+00    0.6813897592E-02    0.6046038222E-01    0.1862567335E-02    0.6215703050E+00
    0.3100000000E+05    0.6373314961E+00    0.6281733260E-02    0.6044408399E-01    0.1705982858E-02    0.6217589057E+00
    0.3300000000E+05    0.6402597852E+00    0.5825331488E-02    0.6042812743E-01    0.1571043941E-02    0.6219286666E+00
    0.3500000000E+05    0.6428306279E+00    0.5430500023E-02    0.6041253765E-01    0.1453837512E-02    0.6220825327E+00
    0.3700000000E+05    0.6451033342E+00    0.5086244848E-02    0.6039732607E-01    0.1351302705E-02    0.6222228481E+00
    0.3900000000E+05    0.6471251157E+00    0.4783942316E-02    0.6038249511E-01    0.1261017250E-02    0.6223515038E+00
    0.4100000000E+05    0.6489339620E+00    0.4516750411E-02    0.6036804130E-01    0.1181043701E-02    0.6224700435E+00
    0.4300000000E+05    0.6505607456E+00    0.4279183586E-02    0.6035395731E-01    0.1109817155E-02    0.6225797407E+00
    0.4500000000E+05    0.6520307839E+00    0.4066801344E-02    0.6034023340E-01    0.1046062168E-02    0.6226816567E+00
    0.4700000000E+05    0.6533650132E+00    0.3875977160E-02    0.6032685838E-01    0.9887305212E-03    0.6227766834E+00
    0.4900000000E+05    0.6545808812E+00    0.3703724909E-02    0.6031382022E-01    0.9369540726E-03    0.6228655761E+00
    0.1000000000E+05    0.5359998061E+00    0.2480168502E-01    0.6058258508E-01    0.6772864985E-02    0.6170619649E+00
    0.3000000000E+05    0.6357105161E+00    0.6537303911E-02    0.6045219267E-01    0.1781284068E-02    0.6216671731E+00
    0.5000000000E+05    0.6551491002E+00    0.3623772100E-02    0.6030742360E-01    0.9129179323E-03    0.6229079276E+00
    0.7000000000E+05    0.6628615005E+00    0.2574493201E-02    0.6019425475E-01    0.5985443625E-03    0.6235492185E+00
    0.9000000000E+05    0.6669226411E+00    0.2049026730E-02    0.6010263093E-01    0.4440630477E-03    0.6239611953E+00
    0.1100000000E+06    0.6694118993E+00    0.1734757056E-02    0.6002584682E-01    0.3542732327E-03    0.6242568644E+00
    0.1300000000E+06    0.6710890602E+00    0.1524957883E-02    0.5995979809E-01    0.2962340451E-03    0.6244838146E+00
    0.1500000000E+06    0.6722943165E+00    0.1374137299E-02    0.5990185223E-01    0.2558694734E-03    0.6246660486E+00
    0.1700000000E+06    0.6732018534E+00    0.1259836227E-02    0.5985023286E-01    0.2262581085E-03    0.6248171769E+00
    0.1900000000E+06    0.6739097971E+00    0.1169741533E-02    0.5980368824E-01    0.2036361839E-03    0.6249455816E+00
    0.2100000000E+06    0.6744775311E+00    0.1096550291E-02    0.5976130434E-01    0.1857956412E-03    0.6250567528E+00
    0.2300000000E+06    0.6749430536E+00    0.1035657904E-02    0.5972239377E-01    0.1713618916E-03    0.6251544617E+00
    0.2500000000E+06    0.6753317887E+00    0.9840155776E-03    0.5968642665E-01    0.1594373888E-03    0.6252413996E+00
    0.2700000000E+06    0.6756613811E+00    0.9395223430E-03    0.5965298600E-01    0.1494126403E-03    0.6253195474E+00
    0.2900000000E+06    0.6759444555E+00    0.9006814732E-03    0.5962173776E-01    0.1408599629E-03    0.6253904018E+00
    0.3100000000E+06    0.6761902815E+00    0.8663963816E-03    0.5959241018E-01    0.1334707800E-03    0.6254551184E+00
    0.3300000000E+06    0.6764058174E+00    0.8358441703E-03    0.5956477922E-01    0.1270170622E-03    0.6255146063E+00
    0.3500000000E+06    0.6765963882E+00    0.8083944180E-03    0.5953865798E-01    0.1213267661E-03    0.6255695927E+00
    0.3700000000E+06    0.6767661375E+00    0.7835553763E-03    0.5951388894E-01    0.1162677046E-03    0.6256206670E+00
    0.3900000000E+06    0.6769183385E+00    0.7609373442E-03    0.5949033806E-01    0.1117366675E-03    0.6256683137E+00
    0.4100000000E+06    0.6770556107E+00    0.7402271333E-03    0.5946789035E-01    0.1076519086E-03    0.6257129350E+00
    0.4300000000E+06    0.6771800757E+00    0.7211698849E-03    0.5944644644E-01    0.1039478480E-03    0.6257548682E+00
    0.4500000000E+06    0.6772934698E+00    0.7035558748E-03    0.5942591983E-01    0.1005712650E-03    0.6257943988E+00
    0.4700000000E+06    0.6773972282E+00    0.6872107734E-03    0.5940623477E-01    0.9747851613E-04    0.6258317706E+00
    0.4900000000E+06    0.6774925471E+00    0.6719883459E-03    0.5938732455E-01    0.9463347110E-04    0.6258671928E+00
    0.1000000000E+06    0.6683013043E+00    0.1874386955E-02    0.6006268504E-01    0.3938231774E-03    0.6241197849E+00
    0.3000000000E+06    0.6760715448E+00    0.8830261825E-03    0.5960684887E-01    0.1370357351E-03    0.6254234656E+00
    0.5000000000E+06    0.6775373624E+00    0.6647587258E-03    0.5937814130E-01    0.9329421090E-04    0.6258842304E+00
    0.7000000000E+06    0.6781672975E+00    0.5570919873E-03    0.5922381817E-01    0.7425928229E-04    0.6261560988E+00
    0.9000000000E+06    0.6785217520E+00    0.4898184353E-03    0.5910707440E-01    0.6321756269E-04    0.6263462976E+00
    0.1100000000E+07    0.6787508190E+00    0.4426053546E-03    0.5901310120E-01    0.5584338246E-04    0.6264914931E+00
    0.1300000000E+07    0.6789119674E+00    0.4070828785E-03    0.5893442895E-01    0.5048991536E-04    0.6266083923E+00
    0.1500000000E+07    0.6790320399E+00    0.3790842332E-03    0.5886675522E-01    0.4638341090E-04    0.6267059458E+00
    0.1700000000E+07    0.6791252974E+00    0.3562681641E-03    0.5880737273E-01    0.4310813701E-04    0.6267894815E+00
    0.1900000000E+07    0.6792000372E+00    0.3372032974E-03    0.5875446632E-01    0.4041885286E-04    0.6268624171E+00
    0.2100000000E+07    0.6792614254E+00    0.3209581593E-03    0.5870675918E-01    0.3816057192E-04    0.6269270699E+00
    0.2300000000E+07    0.6793128520E+00    0.3068966897E-03    0.5866331884E-01    0.3623001970E-04    0.6269850810E+00
    0.2500000000E+07    0.6793566371E+00    0.2945675907E-03    0.5862344345E-01    0.3455542912E-04    0.6270376531E+00
    0.2700000000E+07    0.6793944244E+00    0.2836404976E-03    0.5858659139E-01    0.3308519766E-04    0.6270856932E+00
    0.2900000000E+07    0.6794274119E+00    0.2738672102E-03    0.5855233593E-01    0.3178115824E-04    0.6271299013E+00
    0.3100000000E+07    0.6794564943E+00    0.2650571212E-03    0.5852033483E-01    0.3061440122E-04    0.6271708286E+00
    0.3300000000E+07    0.6794823541E+00    0.2570610764E-03    0.5849030942E-01    0.2956257965E-04    0.6272089169E+00
    0.3500000000E+07    0.6795055212E+00    0.2497604444E-03    0.5846202972E-01    0.2860811369E-04    0.6272445252E+00
    0.3700000000E+07    0.6795264136E+00    0.2430595178E-03    0.5843530378E-01    0.2773696046E-04    0.6272779492E+00
    0.3900000000E+07    0.6795453655E+00    0.2368801077E-03    0.5840996964E-01    0.2693775028E-04    0.6273094353E+00
    0.4100000000E+07    0.6795626480E+00    0.2311576204E-03    0.5838588946E-01    0.2620116720E-04    0.6273391908E+00
    0.4300000000E+07    0.6795784827E+00    0.2258381572E-03    0.5836294492E-01    0.2551949620E-04    0.6273673919E+00
    0.4500000000E+07    0.6795930533E+00    0.2208763380E-03    0.5834103370E-01    0.2488628658E-04    0.6273941892E+00
    0.4700000000E+07    0.6796065129E+00    0.2162336426E-03    0.5832006673E-01    0.2429609790E-04    0.6274197131E+00
    0.4900000000E+07    0.6796189905E+00    0.2118771311E-03    0.5829996598E-01    0.2374430556E-04    0.6274440764E+00
    0.1000000000E+07    0.6786472890E+00    0.4643725321E-03    0.5905781130E-01    0.5920575267E-04    0.6264232164E+00
    0.3000000000E+07    0.6794423944E+00    0.2693519116E-03    0.5853607229E-01    0.3118214550E-04    0.6271507452E+00
    0.5000000000E+07    0.6796248958E+00    0.2097971757E-03    0.5829021864E-01    0.2348154816E-04    0.6274558542E+00
    0.7000000000E+07    0.6797109575E+00    0.1780336227E-03    0.5812766105E-01    0.1952427190E-04    0.6276490291E+00
    0.9000000000E+07    0.6797625341E+00    0.1575082636E-03    0.5800603320E-01    0.1702301908E-04    0.6277900284E+00
    0.1100000000E+08    0.6797975109E+00    0.1428391444E-03    0.5790882477E-01    0.1526310891E-04    0.6279008680E+00
    0.1300000000E+08    0.6798230986E+00    0.1316783430E-03    0.5782785804E-01    0.1394011687E-04    0.6279920815E+00
    0.1500000000E+08    0.6798428029E+00    0.1228156566E-03    0.5775847982E-01    0.1289975683E-04    0.6280695177E+00
    0.1700000000E+08    0.6798585487E+00    0.1155553058E-03    0.5769778817E-01    0.1205446701E-04    0.6281367575E+00
    0.1900000000E+08    0.6798714879E+00    0.1094649832E-03    0.5764385070E-01    0.1135040958E-04    0.6281961507E+00
    0.2100000000E+08    0.6798823556E+00    0.1042599900E-03    0.5759531567E-01    0.1075243884E-04    0.6282493214E+00
    0.2300000000E+08    0.6798916450E+00    0.9974414178E-04    0.5755120036E-01    0.1023651773E-04    0.6282974384E+00
    0.2500000000E+08    0.6798997004E+00    0.9577724357E-04    0.5751076793E-01    0.9785582037E-05    0.6283413707E+00
    0.2700000000E+08    0.6799067700E+00    0.9225607794E-04    0.5747345162E-01    0.9387141743E-05    0.6283817816E+00
