  Pressure (Pa) 22mC5-400 (mol/kg) 2mC6-400 (mol/kg) 3mC6-400 (mol/kg) 33mC5-400 (mol/kg) C7-400 (mol/kg)
    0.1000000000E+01    0.5298298782E-03    0.4732450706E-02    0.4179433677E-02    0.1284537702E-03    0.5086693957E-02
    0.3000000000E+01    0.1572182281E-02    0.1368870587E-01    0.1207051187E-01    0.3716496538E-03    0.1469330085E-01
    0.5000000000E+01    0.2592272238E-02    0.2202812782E-01    0.1939627202E-01    0.5982205122E-03    0.2361486063E-01
    0.7000000000E+01    0.3591026929E-02    0.2981504655E-01    0.2621785616E-01    0.8099031873E-03    0.3192535851E-01
    0.9000000000E+01    0.4569320504E-02    0.3710484917E-01    0.3258781155E-01    0.1008192583E-02    0.3968838718E-01
    0.1100000000E+02    0.5527977882E-02    0.4394550398E-01    0.3855155415E-01    0.1194382960E-02    0.4695891551E-01
    0.1300000000E+02    0.6467778225E-02    0.5037878159E-01    0.4414854259E-01    0.1369601009E-02    0.5378470761E-01
    0.1500000000E+02    0.7389458121E-02    0.5644124111E-01    0.4941322737E-01    0.1534832557E-02    0.6020747017E-01
    0.1700000000E+02    0.8293714507E-02    0.6216503261E-01    0.5437582385E-01    0.1690944295E-02    0.6626378703E-01
    0.1900000000E+02    0.9181207339E-02    0.6757855471E-01    0.5906294632E-01    0.1838701575E-02    0.7198588562E-01
    0.2100000000E+02    0.1005256206E-01    0.7270699693E-01    0.6349813111E-01    0.1978783083E-02    0.7740226962E-01
    0.2300000000E+02    0.1090837188E-01    0.7757278979E-01    0.6770227106E-01    0.2111793021E-02    0.8253824416E-01
    0.2500000000E+02    0.1174919983E-01    0.8219598054E-01    0.7169397824E-01    0.2238271263E-02    0.8741635455E-01
    0.2700000000E+02    0.1257558073E-01    0.8659454846E-01    0.7548988845E-01    0.2358701884E-02    0.9205675445E-01
    0.2900000000E+02    0.1338802295E-01    0.9078467091E-01    0.7910491807E-01    0.2473520352E-02    0.9647751659E-01
    0.3100000000E+02    0.1418701005E-01    0.9478094884E-01    0.8255248182E-01    0.2583119620E-02    0.1006948961E+00
    0.3300000000E+02    0.1497300231E-01    0.9859659887E-01    0.8584467816E-01    0.2687855318E-02    0.1047235548E+00
    0.3500000000E+02    0.1574643815E-01    0.1022436176E+00    0.8899244780E-01    0.2788050189E-02    0.1085767530E+00
    0.3700000000E+02    0.1650773543E-01    0.1057329228E+00    0.9200570981E-01    0.2883997902E-02    0.1122665141E+00
    0.3900000000E+02    0.1725729266E-01    0.1090744749E+00    0.9489347890E-01    0.2975966340E-02    0.1158037664E+00
    0.4100000000E+02    0.1799549013E-01    0.1122773829E+00    0.9766396690E-01    0.3064200440E-02    0.1191984661E+00
    0.4300000000E+02    0.1872269098E-01    0.1153499951E+00    0.1003246708E+00    0.3148924666E-02    0.1224597036E+00
    0.4500000000E+02    0.1943924216E-01    0.1182999796E+00    0.1028824493E+00    0.3230345162E-02    0.1255957966E+00
    0.4700000000E+02    0.2014547532E-01    0.1211343939E+00    0.1053435901E+00    0.3308651634E-02    0.1286143708E+00
    0.4900000000E+02    0.2084170773E-01    0.1238597460E+00    0.1077138682E+00    0.3384019001E-02    0.1315224311E+00
    0.1000000000E+02    0.5051053986E-02    0.4057857669E-01    0.3561786574E-01    0.1102726144E-02    0.4338207438E-01
    0.3000000000E+02    0.1378916909E-01    0.9280618400E-01    0.8084884816E-01    0.2528949340E-02    0.9861067785E-01
    0.5000000000E+02    0.2118616903E-01    0.1251834206E+00    0.1088666112E+00    0.3420651501E-02    0.1329370533E+00
    0.7000000000E+02    0.2761767499E-01    0.1471735847E+00    0.1282402005E+00    0.4032384294E-02    0.1567488956E+00
    0.9000000000E+02    0.3332581673E-01    0.1629637119E+00    0.1426103870E+00    0.4476654190E-02    0.1744647674E+00
    0.1100000000E+03    0.3847448244E-01    0.1747308423E+00    0.1537991231E+00    0.4811952024E-02    0.1882983058E+00
    0.1300000000E+03    0.4317905096E-01    0.1837327188E+00    0.1628248924E+00    0.5072089142E-02    0.1994882837E+00
    0.1500000000E+03    0.4752342238E-01    0.1907518205E+00    0.1703045948E+00    0.5278123248E-02    0.2087858227E+00
    0.1700000000E+03    0.5157028300E-01    0.1963024052E+00    0.1766353719E+00    0.5443913982E-02    0.2166749717E+00
    0.1900000000E+03    0.5536756065E-01    0.2007370669E+00    0.1820854410E+00    0.5578980710E-02    0.2234829742E+00
    0.2100000000E+03    0.5895263281E-01    0.2043058463E+00    0.1868430909E+00    0.5690087583E-02    0.2294397838E+00
    0.2300000000E+03    0.6235515541E-01    0.2071910091E+00    0.1910447805E+00    0.5782176214E-02    0.2347122191E+00
    0.2500000000E+03    0.6559901618E-01    0.2095285016E+00    0.1947920842E+00    0.5858941247E-02    0.2394245717E+00
    0.2700000000E+03    0.6870371520E-01    0.2114217136E+00    0.1981623456E+00    0.5923199770E-02    0.2436715733E+00
    0.2900000000E+03    0.7168536121E-01    0.2129506004E+00    0.2012156205E+00    0.5977136314E-02    0.2475268490E+00
    0.3100000000E+03    0.7455740380E-01    0.2141779000E+00    0.2039993391E+00    0.6022469955E-02    0.2510485996E+00
    0.3300000000E+03    0.7733118058E-01    0.2151534728E+00    0.2065515228E+00    0.6060571077E-02    0.2542835218E+00
    0.3500000000E+03    0.8001633209E-01    0.2159173951E+00    0.2089030541E+00    0.6092544675E-02    0.2572695786E+00
    0.3700000000E+03    0.8262112077E-01    0.2165022055E+00    0.2110793129E+00    0.6119290917E-02    0.2600379956E+00
    0.3900000000E+03    0.8515267914E-01    0.2169345631E+00    0.2131013766E+00    0.6141549889E-02    0.2626147276E+00
    0.4100000000E+03    0.8761720507E-01    0.2172364884E+00    0.2149869158E+00    0.6159935145E-02    0.2650215525E+00
    0.4300000000E+03    0.9002011705E-01    0.2174263064E+00    0.2167508723E+00    0.6174959205E-02    0.2672769000E+00
    0.4500000000E+03    0.9236617877E-01    0.2175193698E+00    0.2184059786E+00    0.6187053160E-02    0.2693964885E+00
    0.4700000000E+03    0.9465959999E-01    0.2175286207E+00    0.2199631624E+00    0.6196581917E-02    0.2713938184E+00
    0.4900000000E+03    0.9690411885E-01    0.2174650314E+00    0.2214318633E+00    0.6203856160E-02    0.2732805614E+00
    0.1000000000E+03    0.3596197864E-01    0.1692568894E+00    0.1485262402E+00    0.4655418160E-02    0.1817741812E+00
    0.3000000000E+03    0.7313433024E-01    0.2135985717E+00    0.2026386078E+00    0.6000785784E-02    0.2493262638E+00
    0.5000000000E+03    0.9800909602E-01    0.2174088992E+00    0.2221356386E+00    0.6206732480E-02    0.2741856871E+00
    0.7000000000E+03    0.1181893222E+00    0.2141316697E+00    0.2330895566E+00    0.6193811104E-02    0.2883706617E+00
    0.9000000000E+03    0.1357881010E+00    0.2089747826E+00    0.2403735642E+00    0.6112303659E-02    0.2979245471E+00
    0.1100000000E+04    0.1516971923E+00    0.2033312515E+00    0.2456764327E+00    0.6005183220E-02    0.3049574767E+00
    0.1300000000E+04    0.1663806315E+00    0.1976662606E+00    0.2497632090E+00    0.5888269109E-02    0.3104315536E+00
    0.1500000000E+04    0.1801128342E+00    0.1921499845E+00    0.2530388332E+00    0.5768288141E-02    0.3148589361E+00
    0.1700000000E+04    0.1930707817E+00    0.1868434218E+00    0.2557408760E+00    0.5648362461E-02    0.3185416587E+00
    0.1900000000E+04    0.2053760366E+00    0.1817634756E+00    0.2580193482E+00    0.5530014663E-02    0.3216713499E+00
    0.2100000000E+04    0.2171162121E+00    0.1769085349E+00    0.2599743569E+00    0.5413999130E-02    0.3243764598E+00
    0.2300000000E+04    0.2283569173E+00    0.1722693361E+00    0.2616756547E+00    0.5300679905E-02    0.3267468648E+00
    0.2500000000E+04    0.2391488516E+00    0.1678337988E+00    0.2631735593E+00    0.5190214729E-02    0.3288476564E+00
    0.2700000000E+04    0.2495322456E+00    0.1635892253E+00    0.2645054183E+00    0.5082649538E-02    0.3307273303E+00
    0.2900000000E+04    0.2595397590E+00    0.1595232877E+00    0.2656996216E+00    0.4977969015E-02    0.3324228836E+00
    0.3100000000E+04    0.2691984406E+00    0.1556244408E+00    0.2667781918E+00    0.4876124456E-02    0.3339631151E+00
    0.3300000000E+04    0.2785310915E+00    0.1518820601E+00    0.2677585125E+00    0.4777049488E-02    0.3353708333E+00
    0.3500000000E+04    0.2875572390E+00    0.1482864481E+00    0.2686545155E+00    0.4680669055E-02    0.3366643766E+00
    0.3700000000E+04    0.2962938447E+00    0.1448287824E+00    0.2694775156E+00    0.4586904580E-02    0.3378586852E+00
    0.3900000000E+04    0.3047558311E+00    0.1415010389E+00    0.2702368111E+00    0.4495676924E-02    0.3389660744E+00
    0.4100000000E+04    0.3129564784E+00    0.1382959107E+00    0.2709401240E+00    0.4406908042E-02    0.3399968017E+00
    0.4300000000E+04    0.3209077273E+00    0.1352067280E+00    0.2715939281E+00    0.4320521879E-02    0.3409594912E+00
    0.4500000000E+04    0.3286204138E+00    0.1322273859E+00    0.2722036965E+00    0.4236444812E-02    0.3418614552E+00
    0.4700000000E+04    0.3361044529E+00    0.1293522786E+00    0.2727740930E+00    0.4154605821E-02    0.3427089413E+00
    0.4900000000E+04    0.3433689832E+00    0.1265762424E+00    0.2733091189E+00    0.4074936517E-02    0.3435073246E+00
    0.1000000000E+04    0.1439187414E+00    0.2061741126E+00    0.2432127368E+00    0.6060634205E-02    0.3016809224E+00
    0.3000000000E+04    0.2644111921E+00    0.1575536640E+00    0.2662521816E+00    0.4926696103E-02    0.3332108691E+00
    0.5000000000E+04    0.3469216050E+00    0.1252238707E+00    0.2735644665E+00    0.4035894829E-02    0.3438895819E+00
    0.7000000000E+04    0.4082487638E+00    0.1023843204E+00    0.2774497270E+00    0.3354184311E-02    0.3498165975E+00
    0.9000000000E+04    0.4547955157E+00    0.8562088014E-01    0.2799343906E+00    0.2827429830E-02    0.3537404030E+00
    0.1100000000E+05    0.4906226487E+00    0.7300531960E-01    0.2816886255E+00    0.2416361725E-02    0.3565932309E+00
    0.1300000000E+05    0.5185760873E+00    0.6331319008E-01    0.2830065258E+00    0.2091944946E-02    0.3587928814E+00
    0.1500000000E+05    0.5406879910E+00    0.5572738045E-01    0.2840398924E+00    0.1832780057E-02    0.3605589306E+00
    0.1700000000E+05    0.5584176765E+00    0.4968797167E-01    0.2848759278E+00    0.1623158230E-02    0.3620194956E+00
    0.1900000000E+05    0.5728196602E+00    0.4480379081E-01    0.2855687008E+00    0.1451538110E-02    0.3632551032E+00
    0.2100000000E+05    0.5846625597E+00    0.4079684047E-01    0.2861537180E+00    0.1309395672E-02    0.3643192774E+00
    0.2300000000E+05    0.5945125067E+00    0.3746632955E-01    0.2866553665E+00    0.1190383862E-02    0.3652491818E+00
    0.2500000000E+05    0.6027913084E+00    0.3466496206E-01    0.2870910108E+00    0.1089730008E-02    0.3660715433E+00
    0.2700000000E+05    0.6098169902E+00    0.3228307085E-01    0.2874733872E+00    0.1003807032E-02    0.3668061469E+00
    0.2900000000E+05    0.6158321767E+00    0.3023784880E-01    0.2878120721E+00    0.9298284521E-03    0.3674679981E+00
    0.3100000000E+05    0.6210241059E+00    0.2846593633E-01    0.2881144189E+00    0.8656305152E-03    0.3680687150E+00
    0.3300000000E+05    0.6255388714E+00    0.2691824804E-01    0.2883861779E+00    0.8095154933E-03    0.3686174543E+00
    0.3500000000E+05    0.6294916613E+00    0.2555631251E-01    0.2886319166E+00    0.7601380017E-03    0.3691215449E+00
    0.3700000000E+05    0.6329741968E+00    0.2434964845E-01    0.2888553141E+00    0.7164217579E-03    0.3695869338E+00
    0.3900000000E+05    0.6360601940E+00    0.2327385980E-01    0.2890593704E+00    0.6774980357E-03    0.3700185047E+00
    0.4100000000E+05    0.6388094172E+00    0.2230923586E-01    0.2892465580E+00    0.6426597155E-03    0.3704203114E+00
    0.4300000000E+05    0.6412707172E+00    0.2143971082E-01    0.2894189356E+00    0.6113266482E-03    0.3707957517E+00
    0.4500000000E+05    0.6434843308E+00    0.2065208175E-01    0.2895782319E+00    0.5830193037E-03    0.3711476982E+00
    0.4700000000E+05    0.6454836393E+00    0.1993541496E-01    0.2897259102E+00    0.5573385395E-03    0.3714785988E+00
    0.4900000000E+05    0.6472965233E+00    0.1928059076E-01    0.2898632188E+00    0.5339499358E-03    0.3717905545E+00
    0.1000000000E+05    0.4738485859E+00    0.7888309391E-01    0.2808796104E+00    0.2609454615E-02    0.3552679019E+00
    0.3000000000E+05    0.6185210894E+00    0.2932108235E-01    0.2879673965E+00    0.8966224270E-03    0.3677753769E+00
    0.5000000000E+05    0.6481405292E+00    0.1897392739E-01    0.2899283252E+00    0.5230253191E-03    0.3719400050E+00
    0.7000000000E+05    0.6593332831E+00    0.1474812559E-01    0.2908809930E+00    0.3753047879E-03    0.3742685529E+00
    0.9000000000E+05    0.6649535896E+00    0.1243241619E-01    0.2914453400E+00    0.2980199548E-03    0.3758287917E+00
    0.1100000000E+06    0.6682631714E+00    0.1094691904E-01    0.2918163645E+00    0.2507063475E-03    0.3769780969E+00
    0.1300000000E+06    0.6704195287E+00    0.9898080745E-02    0.2920764563E+00    0.2187150290E-03    0.3778757861E+00
    0.1500000000E+06    0.6719258576E+00    0.9108942549E-02    0.2922668093E+00    0.1955630621E-03    0.3786054752E+00
    0.1700000000E+06    0.6730328825E+00    0.8488001664E-02    0.2924104286E+00    0.1779651718E-03    0.3792160046E+00
    0.1900000000E+06    0.6738784166E+00    0.7982991597E-02    0.2925212139E+00    0.1640857091E-03    0.3797381549E+00
    0.2100000000E+06    0.6745440361E+00    0.7561753795E-02    0.2926080750E+00    0.1528204700E-03    0.3801924621E+00
    0.2300000000E+06    0.6750809084E+00    0.7203330422E-02    0.2926769926E+00    0.1434657980E-03    0.3805932485E+00
    0.2500000000E+06    0.6755226567E+00    0.6893424101E-02    0.2927321322E+00    0.1355520300E-03    0.3809508643E+00
    0.2700000000E+06    0.6758922356E+00    0.6621911830E-02    0.2927764844E+00    0.1287535491E-03    0.3812730103E+00
    0.2900000000E+06    0.6762058244E+00    0.6381402252E-02    0.2928122519E+00    0.1228373361E-03    0.3815655574E+00
    0.3100000000E+06    0.6764751401E+00    0.6166357173E-02    0.2928410917E+00    0.1176321034E-03    0.3818330746E+00
    0.3300000000E+06    0.6767088672E+00    0.5972534562E-02    0.2928642740E+00    0.1130090128E-03    0.3820791815E+00
    0.3500000000E+06    0.6769135736E+00    0.5796623018E-02    0.2928827878E+00    0.1088692067E-03    0.3823067897E+00
    0.3700000000E+06    0.6770943153E+00    0.5635994643E-02    0.2928974146E+00    0.1051355008E-03    0.3825182734E+00
    0.3900000000E+06    0.6772550452E+00    0.5488533596E-02    0.2929087791E+00    0.1017467011E-03    0.3827155916E+00
    0.4100000000E+06    0.6773988970E+00    0.5352514404E-02    0.2929173866E+00    0.9865362753E-04    0.3829003780E+00
    0.4300000000E+06    0.6775283859E+00    0.5226513853E-02    0.2929236494E+00    0.9581627172E-04    0.3830740082E+00
    0.4500000000E+06    0.6776455535E+00    0.5109346027E-02    0.2929279075E+00    0.9320173007E-04    0.3832376500E+00
    0.4700000000E+06    0.6777520739E+00    0.5000013637E-02    0.2929304430E+00    0.9078267418E-04    0.3833923030E+00
    0.4900000000E+06    0.6778493320E+00    0.4897671037E-02    0.2929314921E+00    0.8853620260E-04    0.3835388287E+00
    0.1000000000E+06    0.6668013503E+00    0.1161822602E-01    0.2916484579E+00    0.2718244606E-03    0.3764422995E+00
    0.3000000000E+06    0.6763454152E+00    0.6270987158E-02    0.2928274508E+00    0.1201547232E-03    0.3817021995E+00
    0.5000000000E+06    0.6778948566E+00    0.4848890963E-02    0.2929315226E+00    0.8747152031E-04    0.3836092811E+00
    0.7000000000E+06    0.6785199071E+00    0.4109588564E-02    0.2928889865E+00    0.7180345612E-04    0.3847301572E+00
    0.9000000000E+06    0.6788577557E+00    0.3636183403E-02    0.2928091922E+00    0.6221410369E-04    0.3855086767E+00
    0.1100000000E+07    0.6790697053E+00    0.3299202718E-02    0.2927195713E+00    0.5558817296E-04    0.3860985803E+00
    0.1300000000E+07    0.6792153175E+00    0.3043308606E-02    0.2926291109E+00    0.5066364043E-04    0.3865702034E+00
    0.1500000000E+07    0.6793216793E+00    0.2840293912E-02    0.2925410869E+00    0.4682080234E-04    0.3869612481E+00
    0.1700000000E+07    0.6794028802E+00    0.2674050173E-02    0.2924566758E+00    0.4371549361E-04    0.3872941349E+00
    0.1900000000E+07    0.6794669752E+00    0.2534611930E-02    0.2923762034E+00    0.4113939383E-04    0.3875832173E+00
    0.2100000000E+07    0.6795189048E+00    0.2415435396E-02    0.2922996354E+00    0.3895810654E-04    0.3878382062E+00
    0.2300000000E+07    0.6795618687E+00    0.2312020313E-02    0.2922267869E+00    0.3708055327E-04    0.3880659600E+00
    0.2500000000E+07    0.6795980315E+00    0.2221155296E-02    0.2921574165E+00    0.3544254583E-04    0.3882714926E+00
    0.2700000000E+07    0.6796289102E+00    0.2140478356E-02    0.2920912698E+00    0.3399737889E-04    0.3884585740E+00
    0.2900000000E+07    0.6796556000E+00    0.2068207888E-02    0.2920280996E+00    0.3271015369E-04    0.3886301068E+00
    0.3100000000E+07    0.6796789117E+00    0.2002971049E-02    0.2919676744E+00    0.3155420186E-04    0.3887883705E+00
    0.3300000000E+07    0.6796994586E+00    0.1943690415E-02    0.2919097814E+00    0.3050874925E-04    0.3889351864E+00
    0.3500000000E+07    0.6797177131E+00    0.1889506853E-02    0.2918542272E+00    0.2955734178E-04    0.3890720318E+00
    0.3700000000E+07    0.6797340452E+00    0.1839725688E-02    0.2918008367E+00    0.2868675614E-04    0.3892001200E+00
    0.3900000000E+07    0.6797487489E+00    0.1793778264E-02    0.2917494517E+00    0.2788622820E-04    0.3893204597E+00
    0.4100000000E+07    0.6797620609E+00    0.1751193957E-02    0.2916999295E+00    0.2714689525E-04    0.3894338978E+00
    0.4300000000E+07    0.6797741736E+00    0.1711579435E-02    0.2916521411E+00    0.2646138530E-04    0.3895411518E+00
    0.4500000000E+07    0.6797852454E+00    0.1674603048E-02    0.2916059698E+00    0.2582350980E-04    0.3896428349E+00
    0.4700000000E+07    0.6797954079E+00    0.1639982901E-02    0.2915613097E+00    0.2522803036E-04    0.3897394751E+00
    0.4900000000E+07    0.6798047710E+00    0.1607477644E-02    0.2915180650E+00    0.2467047925E-04    0.3898315297E+00
    0.1000000000E+07    0.6789745909E+00    0.3455025068E-02    0.2927648412E+00    0.5863185782E-04    0.3858217166E+00
    0.3000000000E+07    0.6796676360E+00    0.2034783486E-02    0.2919975576E+00    0.3211718379E-04    0.3887107742E+00
    0.5000000000E+07    0.6798091824E+00    0.1591951956E-02    0.2914969457E+00    0.2440470636E-04    0.3898759641E+00
    0.7000000000E+07    0.6798718660E+00    0.1354338971E-02    0.2911313081E+00    0.2038140243E-04    0.3905985928E+00
    0.9000000000E+07    0.6799077632E+00    0.1200285205E-02    0.2908427132E+00    0.1781942826E-04    0.3911188505E+00
    0.1100000000E+08    0.6799312447E+00    0.1089939570E-02    0.2906039235E+00    0.1600849348E-04    0.3915237232E+00
    0.1300000000E+08    0.6799479147E+00    0.1005844893E-02    0.2904000306E+00    0.1464279730E-04    0.3918542998E+00
    0.1500000000E+08    0.6799604252E+00    0.9389782064E-03    0.2902219832E+00    0.1356629757E-04    0.3921331655E+00
    0.1700000000E+08    0.6799701992E+00    0.8841413330E-03    0.2900638678E+00    0.1269001018E-04    0.3923740320E+00
    0.1900000000E+08    0.6799780712E+00    0.8380993065E-03    0.2899216046E+00    0.1195902538E-04    0.3925858329E+00
    0.2100000000E+08    0.6799845643E+00    0.7987189221E-03    0.2897922580E+00    0.1133739636E-04    0.3927747051E+00
    0.2300000000E+08    0.6799900238E+00    0.7645285720E-03    0.2896736439E+00    0.1080048177E-04    0.3929450415E+00
    0.2500000000E+08    0.6799946872E+00    0.7344756332E-03    0.2895640925E+00    0.1033075507E-04    0.3931000922E+00
    0.2700000000E+08    0.6799987232E+00    0.7077844746E-03    0.2894622979E+00    0.9915367120E-05    0.3932423278E+00
