  Pressure (Pa) 22mC5-400 (mol/kg) 2mC6-400 (mol/kg) 3mC6-400 (mol/kg) 33mC5-400 (mol/kg) C7-400 (mol/kg)
    0.1000000000E+01    0.1061352749E-02    0.2362214722E-02    0.4688689653E-02    0.6412140715E-04    0.8454212626E-02
    0.3000000000E+01    0.3159215640E-02    0.6811767345E-02    0.1346945996E-01    0.1849702321E-03    0.2429190128E-01
    0.5000000000E+01    0.5224766892E-02    0.1093209236E-01    0.2153708123E-01    0.2969667238E-03    0.3884947965E-01
    0.7000000000E+01    0.7258946497E-02    0.1476160068E-01    0.2897654422E-01    0.4011473645E-03    0.5227927342E-01
    0.9000000000E+01    0.9262657116E-02    0.1833274777E-01    0.3585979164E-01    0.4983874360E-03    0.6471024065E-01
    0.1100000000E+02    0.1123676593E-01    0.2167315089E-01    0.4224813272E-01    0.5894313164E-03    0.7625229395E-01
    0.1300000000E+02    0.1318210637E-01    0.2480646425E-01    0.4819414057E-01    0.6749162055E-03    0.8699969713E-01
    0.1500000000E+02    0.1509947978E-01    0.2775307106E-01    0.5374315706E-01    0.7553908801E-03    0.9703375961E-01
    0.1700000000E+02    0.1698965693E-01    0.3053063551E-01    0.5893449690E-01    0.8313306493E-03    0.1064249922E+00
    0.1900000000E+02    0.1885337949E-01    0.3315454673E-01    0.6380241872E-01    0.9031493771E-03    0.1152348461E+00
    0.2100000000E+02    0.2069136141E-01    0.3563827838E-01    0.6837691414E-01    0.9712092194E-03    0.1235171259E+00
    0.2300000000E+02    0.2250429017E-01    0.3799368209E-01    0.7268435345E-01    0.1035828566E-02    0.1313191461E+00
    0.2500000000E+02    0.2429282809E-01    0.4023122852E-01    0.7674801740E-01    0.1097288562E-02    0.1386826834E+00
    0.2700000000E+02    0.2605761340E-01    0.4236020651E-01    0.8058853786E-01    0.1155838495E-02    0.1456447663E+00
    0.2900000000E+02    0.2779926136E-01    0.4438888865E-01    0.8422426509E-01    0.1211700268E-02    0.1522383328E+00
    0.3100000000E+02    0.2951836533E-01    0.4632466967E-01    0.8767157553E-01    0.1265072145E-02    0.1584927820E+00
    0.3300000000E+02    0.3121549769E-01    0.4817418267E-01    0.9094513092E-01    0.1316131889E-02    0.1644344386E+00
    0.3500000000E+02    0.3289121082E-01    0.4994339733E-01    0.9405809774E-01    0.1365039409E-02    0.1700869453E+00
    0.3700000000E+02    0.3454603792E-01    0.5163770315E-01    0.9702233361E-01    0.1411939015E-02    0.1754715977E+00
    0.3900000000E+02    0.3618049391E-01    0.5326198037E-01    0.9984854656E-01    0.1456961327E-02    0.1806076295E+00
    0.4100000000E+02    0.3779507614E-01    0.5482066065E-01    0.1025464315E+00    0.1500224914E-02    0.1855124566E+00
    0.4300000000E+02    0.3939026522E-01    0.5631777924E-01    0.1051247876E+00    0.1541837696E-02    0.1902018886E+00
    0.4500000000E+02    0.4096652565E-01    0.5775701990E-01    0.1075916201E+00    0.1581898161E-02    0.1946903096E+00
    0.4700000000E+02    0.4252430656E-01    0.5914175378E-01    0.1099542277E+00    0.1620496410E-02    0.1989908369E+00
    0.4900000000E+02    0.4406404230E-01    0.6047507326E-01    0.1122192795E+00    0.1657715064E-02    0.2031154576E+00
    0.1000000000E+02    0.1025335889E-01    0.2003022994E-01    0.3911235420E-01    0.5446418039E-03    0.7058615784E-01
    0.3000000000E+02    0.2866159509E-01    0.4536796061E-01    0.8597051861E-01    0.1238685886E-02    0.1554062346E+00
    0.5000000000E+02    0.4482727508E-01    0.6112335003E-01    0.1133171506E+00    0.1675831016E-02    0.2051152696E+00
    0.7000000000E+02    0.5923991761E-01    0.7197218923E-01    0.1313922231E+00    0.1981274119E-02    0.2381048892E+00
    0.9000000000E+02    0.7225144741E-01    0.7986928229E-01    0.1443081977E+00    0.2207190091E-02    0.2617718144E+00
    0.1100000000E+03    0.8412176290E-01    0.8581039321E-01    0.1540444467E+00    0.2380127685E-02    0.2796811110E+00
    0.1300000000E+03    0.9504726275E-01    0.9037150561E-01    0.1616749658E+00    0.2515453258E-02    0.2937698135E+00
    0.1500000000E+03    0.1051793400E+00    0.9391595223E-01    0.1678346374E+00    0.2622878268E-02    0.3051845353E+00
    0.1700000000E+03    0.1146367392E+00    0.9668752104E-01    0.1729237677E+00    0.2708936924E-02    0.3146492113E+00
    0.1900000000E+03    0.1235140329E+00    0.9885742919E-01    0.1772077939E+00    0.2778233818E-02    0.3226445125E+00
    0.2100000000E+03    0.1318875723E+00    0.1005501957E+00    0.1808699875E+00    0.2834130400E-02    0.3295027575E+00
    0.2300000000E+03    0.1398197509E+00    0.1018588985E+00    0.1840411609E+00    0.2879149671E-02    0.3354614535E+00
    0.2500000000E+03    0.1473621156E+00    0.1028546722E+00    0.1868173106E+00    0.2915228195E-02    0.3406951214E+00
    0.2700000000E+03    0.1545576754E+00    0.1035928833E+00    0.1892705619E+00    0.2943880107E-02    0.3453350529E+00
    0.2900000000E+03    0.1614426386E+00    0.1041172926E+00    0.1914562123E+00    0.2966307776E-02    0.3494820360E+00
    0.3100000000E+03    0.1680477390E+00    0.1044629439E+00    0.1934174085E+00    0.2983478738E-02    0.3532148116E+00
    0.3300000000E+03    0.1743992607E+00    0.1046582202E+00    0.1951883392E+00    0.2996180560E-02    0.3565958500E+00
    0.3500000000E+03    0.1805198379E+00    0.1047263388E+00    0.1967964652E+00    0.3005060791E-02    0.3596753913E+00
    0.3700000000E+03    0.1864290865E+00    0.1046864585E+00    0.1982641126E+00    0.3010656628E-02    0.3624943312E+00
    0.3900000000E+03    0.1921441082E+00    0.1045545127E+00    0.1996096304E+00    0.3013417273E-02    0.3650863213E+00
    0.4100000000E+03    0.1976798942E+00    0.1043438451E+00    0.2008482470E+00    0.3013721047E-02    0.3674793241E+00
    0.4300000000E+03    0.2030496538E+00    0.1040657011E+00    0.2019927134E+00    0.3011888639E-02    0.3696967807E+00
    0.4500000000E+03    0.2082650818E+00    0.1037296123E+00    0.2030537922E+00    0.3008193492E-02    0.3717585004E+00
    0.4700000000E+03    0.2133365791E+00    0.1033436992E+00    0.2040406345E+00    0.3002870018E-02    0.3736813469E+00
    0.4900000000E+03    0.2182734348E+00    0.1029149130E+00    0.2049610744E+00    0.2996120164E-02    0.3754797727E+00
    0.1000000000E+03    0.7831574766E-01    0.8304175216E-01    0.1494928090E+00    0.2299145618E-02    0.2713001734E+00
    0.3000000000E+03    0.1647784349E+00    0.1043105527E+00    0.1924625503E+00    0.2975497432E-02    0.3513959681E+00
    0.5000000000E+03    0.2206940087E+00    0.1026863435E+00    0.2053985393E+00    0.2992265899E-02    0.3763362907E+00
    0.7000000000E+03    0.2636703103E+00    0.9694452486E-01    0.2118953597E+00    0.2872324133E-02    0.3892180635E+00
    0.9000000000E+03    0.2990583636E+00    0.9044314738E-01    0.2158727083E+00    0.2716144217E-02    0.3973038224E+00
    0.1100000000E+04    0.3292135914E+00    0.8409913471E-01    0.2185844636E+00    0.2554088098E-02    0.4029444244E+00
    0.1300000000E+04    0.3554190713E+00    0.7819137210E-01    0.2205636979E+00    0.2397108414E-02    0.4071500921E+00
    0.1500000000E+04    0.3784789938E+00    0.7279037405E-01    0.2220779830E+00    0.2249315220E-02    0.4104330227E+00
    0.1700000000E+04    0.3989485798E+00    0.6789088070E-01    0.2232772979E+00    0.2112043623E-02    0.4130830718E+00
    0.1900000000E+04    0.4172379079E+00    0.6345967055E-01    0.2242526329E+00    0.1985411630E-02    0.4152777141E+00
    0.2100000000E+04    0.4336644804E+00    0.5945454646E-01    0.2250625880E+00    0.1868989479E-02    0.4171322651E+00
    0.2300000000E+04    0.4484823983E+00    0.5583226330E-01    0.2257467093E+00    0.1762110955E-02    0.4187252156E+00
    0.2500000000E+04    0.4618998556E+00    0.5255183637E-01    0.2263327076E+00    0.1664025753E-02    0.4201120257E+00
    0.2700000000E+04    0.4740903501E+00    0.4957580648E-01    0.2268406116E+00    0.1573975889E-02    0.4213331049E+00
    0.2900000000E+04    0.4852002891E+00    0.4687057286E-01    0.2272852777E+00    0.1491233734E-02    0.4224186631E+00
    0.3100000000E+04    0.4953544013E+00    0.4440630108E-01    0.2276779714E+00    0.1415119911E-02    0.4233917841E+00
    0.3300000000E+04    0.5046597433E+00    0.4215664703E-01    0.2280273994E+00    0.1345010353E-02    0.4242704401E+00
    0.3500000000E+04    0.5132087603E+00    0.4009841412E-01    0.2283404025E+00    0.1280337526E-02    0.4250688545E+00
    0.3700000000E+04    0.5210816850E+00    0.3821120086E-01    0.2286224343E+00    0.1220588528E-02    0.4257984456E+00
    0.3900000000E+04    0.5283484541E+00    0.3647706562E-01    0.2288778983E+00    0.1165301636E-02    0.4264684971E+00
    0.4100000000E+04    0.5350702639E+00    0.3488022040E-01    0.2291103918E+00    0.1114062162E-02    0.4270866421E+00
    0.4300000000E+04    0.5413008481E+00    0.3340675725E-01    0.2293228828E+00    0.1066498122E-02    0.4276592211E+00
    0.4500000000E+04    0.5470875380E+00    0.3204440715E-01    0.2295178439E+00    0.1022275999E-02    0.4281915485E+00
    0.4700000000E+04    0.5524721487E+00    0.3078232932E-01    0.2296973518E+00    0.9810967486E-03    0.4286881157E+00
    0.4900000000E+04    0.5574917246E+00    0.2961092793E-01    0.2298631641E+00    0.9426921116E-03    0.4291527477E+00
    0.1000000000E+04    0.3146944884E+00    0.8722652171E-01    0.2173443921E+00    0.2634926606E-02    0.4003496527E+00
    0.3000000000E+04    0.4903897580E+00    0.4561004117E-01    0.2274875264E+00    0.1452388616E-02    0.4229180536E+00
    0.5000000000E+04    0.5598750538E+00    0.2905653310E-01    0.2299414115E+00    0.9244540284E-03    0.4293741313E+00
    0.7000000000E+04    0.5946751918E+00    0.2110903677E-01    0.2310566597E+00    0.6585770099E-03    0.4327209545E+00
    0.9000000000E+04    0.6148231914E+00    0.1665090709E-01    0.2316874488E+00    0.5059597955E-03    0.4348546537E+00
    0.1100000000E+05    0.6277055965E+00    0.1385981571E-01    0.2320872052E+00    0.4094541661E-03    0.4363705351E+00
    0.1300000000E+05    0.6365483383E+00    0.1196833682E-01    0.2323587219E+00    0.3439150213E-03    0.4375219669E+00
    0.1500000000E+05    0.6429467564E+00    0.1060860621E-01    0.2325517921E+00    0.2969369310E-03    0.4384371868E+00
    0.1700000000E+05    0.6477676303E+00    0.9585900109E-02    0.2326935093E+00    0.2618210717E-03    0.4391889136E+00
    0.1900000000E+05    0.6515176047E+00    0.8788844125E-02    0.2327998854E+00    0.2346817390E-03    0.4398218541E+00
    0.2100000000E+05    0.6545105469E+00    0.8149675799E-02    0.2328809872E+00    0.2131313128E-03    0.4403652095E+00
    0.2300000000E+05    0.6569502985E+00    0.7625040395E-02    0.2329434562E+00    0.1956318054E-03    0.4408389736E+00
    0.2500000000E+05    0.6589745139E+00    0.7186019656E-02    0.2329918463E+00    0.1811528586E-03    0.4412573625E+00
    0.2700000000E+05    0.6606792471E+00    0.6812637517E-02    0.2330293807E+00    0.1689809512E-03    0.4416308024E+00
    0.2900000000E+05    0.6621334177E+00    0.6490677602E-02    0.2330584014E+00    0.1586077948E-03    0.4419671392E+00
    0.3100000000E+05    0.6633876753E+00    0.6209759700E-02    0.2330806486E+00    0.1496623497E-03    0.4422724083E+00
    0.3300000000E+05    0.6644800267E+00    0.5962133789E-02    0.2330974406E+00    0.1418679371E-03    0.4425513399E+00
    0.3500000000E+05    0.6654395163E+00    0.5741899443E-02    0.2331097925E+00    0.1350143452E-03    0.4428077023E+00
    0.3700000000E+05    0.6662887011E+00    0.5544486266E-02    0.2331184976E+00    0.1289391933E-03    0.4430445406E+00
    0.3900000000E+05    0.6670453523E+00    0.5366299390E-02    0.2331241835E+00    0.1235151824E-03    0.4432643467E+00
    0.4100000000E+05    0.6677236516E+00    0.5204472228E-02    0.2331273529E+00    0.1186411850E-03    0.4434691829E+00
    0.4300000000E+05    0.6683350480E+00    0.5056690584E-02    0.2331284121E+00    0.1142358996E-03    0.4436607728E+00
    0.4500000000E+05    0.6688888811E+00    0.4921065295E-02    0.2331276926E+00    0.1102332530E-03    0.4438405703E+00
    0.4700000000E+05    0.6693928428E+00    0.4796038504E-02    0.2331254672E+00    0.1065790166E-03    0.4440098117E+00
    0.4900000000E+05    0.6698533227E+00    0.4680313683E-02    0.2331219621E+00    0.1032282811E-03    0.4441695564E+00
    0.1000000000E+05    0.6219157120E+00    0.1510864301E-01    0.2319079461E+00    0.4526954051E-03    0.4356697073E+00
    0.3000000000E+05    0.6627829143E+00    0.6345623693E-02    0.2330702810E+00    0.1539757295E-03    0.4421233356E+00
    0.5000000000E+05    0.6700689639E+00    0.4625592501E-02    0.2331197898E+00    0.1016547606E-03    0.4442461579E+00
    0.7000000000E+05    0.6730332436E+00    0.3828417208E-02    0.2330417300E+00    0.7959575746E-04    0.4454474030E+00
    0.9000000000E+05    0.6746339816E+00    0.3345974165E-02    0.2329378327E+00    0.6710977433E-04    0.4462634548E+00
    0.1100000000E+06    0.6756348790E+00    0.3013586204E-02    0.2328310283E+00    0.5891750251E-04    0.4468725699E+00
    0.1300000000E+06    0.6763197249E+00    0.2766396744E-02    0.2327278500E+00    0.5304712654E-04    0.4473541923E+00
    0.1500000000E+06    0.6768178404E+00    0.2573079367E-02    0.2326301503E+00    0.4858821863E-04    0.4477501136E+00
    0.1700000000E+06    0.6771965044E+00    0.2416407672E-02    0.2325382268E+00    0.4505887464E-04    0.4480848305E+00
    0.1900000000E+06    0.6774941515E+00    0.2286016561E-02    0.2324518335E+00    0.4217840002E-04    0.4483738452E+00
    0.2100000000E+06    0.6777343258E+00    0.2175242293E-02    0.2323705483E+00    0.3977129979E-04    0.4486275460E+00
    0.2300000000E+06    0.6779322526E+00    0.2079577392E-02    0.2322939135E+00    0.3772170148E-04    0.4488532109E+00
    0.2500000000E+06    0.6780982136E+00    0.1995847704E-02    0.2322214904E+00    0.3594971510E-04    0.4490561234E+00
    0.2700000000E+06    0.6782394026E+00    0.1921743759E-02    0.2321528785E+00    0.3439828745E-04    0.4492402324E+00
    0.2900000000E+06    0.6783610036E+00    0.1855539125E-02    0.2320877197E+00    0.3302546938E-04    0.4494085619E+00
    0.3100000000E+06    0.6784668469E+00    0.1795913471E-02    0.2320256972E+00    0.3179965124E-04    0.4495634756E+00
    0.3300000000E+06    0.6785598244E+00    0.1741837206E-02    0.2319665316E+00    0.3069651062E-04    0.4497068539E+00
    0.3500000000E+06    0.6786421599E+00    0.1692493850E-02    0.2319099762E+00    0.2969699126E-04    0.4498402158E+00
    0.3700000000E+06    0.6787155920E+00    0.1647226362E-02    0.2318558133E+00    0.2878592582E-04    0.4499648051E+00
    0.3900000000E+06    0.6787814996E+00    0.1605499133E-02    0.2318038503E+00    0.2795107398E-04    0.4500816520E+00
    0.4100000000E+06    0.6788409901E+00    0.1566870514E-02    0.2317539159E+00    0.2718243560E-04    0.4501916190E+00
    0.4300000000E+06    0.6788949637E+00    0.1530972590E-02    0.2317058578E+00    0.2647175082E-04    0.4502954349E+00
    0.4500000000E+06    0.6789441590E+00    0.1497496039E-02    0.2316595396E+00    0.2581212981E-04    0.4503937208E+00
    0.4700000000E+06    0.6789891883E+00    0.1466178629E-02    0.2316148392E+00    0.2519777437E-04    0.4504870104E+00
    0.4900000000E+06    0.6790305634E+00    0.1436796368E-02    0.2315716465E+00    0.2462376558E-04    0.4505757648E+00
    0.1000000000E+06    0.6751861915E+00    0.3166248870E-02    0.2328842109E+00    0.6263780125E-04    0.4465876433E+00
    0.3000000000E+06    0.6784156959E+00    0.1824974037E-02    0.2320563347E+00    0.3239584871E-04    0.4494875685E+00
    0.5000000000E+06    0.6790500180E+00    0.1422769648E-02    0.2315505843E+00    0.2435055327E-04    0.4506185689E+00
    0.7000000000E+06    0.6793232650E+00    0.1208631105E-02    0.2311888425E+00    0.2024438569E-04    0.4513114434E+00
    0.9000000000E+06    0.6794763099E+00    0.1070257401E-02    0.2309065872E+00    0.1765565784E-04    0.4518067971E+00
    0.1100000000E+07    0.6795745541E+00    0.9713259223E-03    0.2306748057E+00    0.1583626849E-04    0.4521904818E+00
    0.1300000000E+07    0.6796431611E+00    0.8960190484E-03    0.2304779801E+00    0.1446928230E-04    0.4525026830E+00
    0.1500000000E+07    0.6796938986E+00    0.8361893586E-03    0.2303068280E+00    0.1339456636E-04    0.4527653479E+00
    0.1700000000E+07    0.6797330148E+00    0.7871536680E-03    0.2301553488E+00    0.1252141462E-04    0.4529917363E+00
    0.1900000000E+07    0.6797641389E+00    0.7460021467E-03    0.2300194360E+00    0.1179412615E-04    0.4531904541E+00
    0.2100000000E+07    0.6797895255E+00    0.7108182695E-03    0.2298961535E+00    0.1117637017E-04    0.4533673944E+00
    0.2300000000E+07    0.6798106502E+00    0.6802811217E-03    0.2297833287E+00    0.1064331395E-04    0.4535267645E+00
    0.2500000000E+07    0.6798285200E+00    0.6534465629E-03    0.2296793077E+00    0.1017733584E-04    0.4536716699E+00
    0.2700000000E+07    0.6798438461E+00    0.6296193158E-03    0.2295828021E+00    0.9765541606E-05    0.4538044667E+00
    0.2900000000E+07    0.6798571454E+00    0.6082744454E-03    0.2294927885E+00    0.9398251565E-05    0.4539269834E+00
    0.3100000000E+07    0.6798688027E+00    0.5890071550E-03    0.2294084401E+00    0.9068039799E-05    0.4540406669E+00
    0.3300000000E+07    0.6798791105E+00    0.5714995686E-03    0.2293290793E+00    0.8769102327E-05    0.4541466813E+00
    0.3500000000E+07    0.6798882953E+00    0.5554980962E-03    0.2292541439E+00    0.8496828926E-05    0.4542459766E+00
    0.3700000000E+07    0.6798965351E+00    0.5407976141E-03    0.2291831618E+00    0.8247505361E-05    0.4543393381E+00
    0.3900000000E+07    0.6799039721E+00    0.5272301595E-03    0.2291157333E+00    0.8018101572E-05    0.4544274222E+00
    0.4100000000E+07    0.6799107209E+00    0.5146566927E-03    0.2290515165E+00    0.7806117951E-05    0.4545107829E+00
    0.4300000000E+07    0.6799168751E+00    0.5029609865E-03    0.2289902167E+00    0.7609471802E-05    0.4545898919E+00
    0.4500000000E+07    0.6799225121E+00    0.4920450247E-03    0.2289315782E+00    0.7426412132E-05    0.4546651545E+00
    0.4700000000E+07    0.6799276960E+00    0.4818254871E-03    0.2288753778E+00    0.7255454776E-05    0.4547369207E+00
    0.4900000000E+07    0.6799324810E+00    0.4722310297E-03    0.2288214192E+00    0.7095332383E-05    0.4548054956E+00
    0.1000000000E+07    0.6795302385E+00    0.1017110478E-02    0.2307855558E+00    0.1667497193E-04    0.4520094797E+00
    0.3000000000E+07    0.6798631592E+00    0.5984027014E-03    0.2294499515E+00    0.9228905867E-05    0.4539848509E+00
    0.5000000000E+07    0.6799347383E+00    0.4676486525E-03    0.2287952256E+00    0.7018987751E-05    0.4548386710E+00
    0.7000000000E+07    0.6799670388E+00    0.3975446349E-03    0.2283558721E+00    0.5862074781E-05    0.4553849520E+00
    0.9000000000E+07    0.6799857543E+00    0.3521263789E-03    0.2280242954E+00    0.5124471832E-05    0.4557859905E+00
    0.1100000000E+08    0.6799981022E+00    0.3196135514E-03    0.2277577253E+00    0.4602833228E-05    0.4561024326E+00
    0.1300000000E+08    0.6800069283E+00    0.2948476534E-03    0.2275347197E+00    0.4209362496E-05    0.4563635417E+00
    0.1500000000E+08    0.6800135897E+00    0.2751635839E-03    0.2273429743E+00    0.3899190198E-05    0.4565856622E+00
    0.1700000000E+08    0.6800188194E+00    0.2590265843E-03    0.2271747663E+00    0.3646705594E-05    0.4567788446E+00
    0.1900000000E+08    0.6800230494E+00    0.2454818845E-03    0.2270249267E+00    0.3436095712E-05    0.4569497063E+00
    0.2100000000E+08    0.6800265517E+00    0.2339000998E-03    0.2268898246E+00    0.3257004551E-05    0.4571028337E+00
    0.2300000000E+08    0.6800295067E+00    0.2238471755E-03    0.2267668110E+00    0.3102331304E-05    0.4572415353E+00
    0.2500000000E+08    0.6800320385E+00    0.2150127232E-03    0.2266538935E+00    0.2967024534E-05    0.4573682754E+00
    0.2700000000E+08    0.6800342361E+00    0.2071680892E-03    0.2265495359E+00    0.2847380478E-05    0.4574849382E+00
