  Pressure (Pa) 22mC5-400 (mol/kg) 2mC6-400 (mol/kg) 3mC6-400 (mol/kg) 33mC5-400 (mol/kg) C7-400 (mol/kg)
    0.1000000000E+01    0.1060813030E-02    0.2385775903E-02    0.2637388762E-02    0.5827703312E-03    0.1711873533E-02
    0.3000000000E+01    0.3154462921E-02    0.7009592283E-02    0.7758008911E-02    0.1712374963E-02    0.5036000589E-02
    0.5000000000E+01    0.5211846348E-02    0.1144597888E-01    0.1268341239E-01    0.2796389422E-02    0.8233965041E-02
    0.7000000000E+01    0.7234156035E-02    0.1570562321E-01    0.1742512672E-01    0.3837414688E-02    0.1131320641E-01
    0.9000000000E+01    0.9222531142E-02    0.1979840520E-01    0.2199377879E-01    0.4837854971E-02    0.1428058343E-01
    0.1100000000E+02    0.1117806027E-01    0.2373347315E-01    0.2639918149E-01    0.5799936238E-02    0.1714242981E-01
    0.1300000000E+02    0.1310178426E-01    0.2751931118E-01    0.3065041046E-01    0.6725722660E-02    0.1990460380E-01
    0.1500000000E+02    0.1499469882E-01    0.3116379924E-01    0.3475587234E-01    0.7617131254E-02    0.2257253212E-01
    0.1700000000E+02    0.1685775694E-01    0.3467426674E-01    0.3872336552E-01    0.8475944945E-02    0.2515124915E-01
    0.1900000000E+02    0.1869187122E-01    0.3805754041E-01    0.4256013442E-01    0.9303824251E-02    0.2764543195E-01
    0.2100000000E+02    0.2049791599E-01    0.4131998729E-01    0.4627291807E-01    0.1010231775E-01    0.3005943153E-01
    0.2300000000E+02    0.2227672930E-01    0.4446755328E-01    0.4986799356E-01    0.1087287148E-01    0.3239730089E-01
    0.2500000000E+02    0.2402911485E-01    0.4750579783E-01    0.5335121518E-01    0.1161683739E-01    0.3466282029E-01
    0.2700000000E+02    0.2575584372E-01    0.5043992528E-01    0.5672804961E-01    0.1233548101E-01    0.3685951987E-01
    0.2900000000E+02    0.2745765600E-01    0.5327481306E-01    0.6000360758E-01    0.1302998827E-01    0.3899070015E-01
    0.3100000000E+02    0.2913526241E-01    0.5601503736E-01    0.6318267260E-01    0.1370147179E-01    0.4105945048E-01
    0.3300000000E+02    0.3078934573E-01    0.5866489625E-01    0.6626972680E-01    0.1435097651E-01    0.4306866574E-01
    0.3500000000E+02    0.3242056215E-01    0.6122843076E-01    0.6926897447E-01    0.1497948481E-01    0.4502106154E-01
    0.3700000000E+02    0.3402954262E-01    0.6370944405E-01    0.7218436337E-01    0.1558792119E-01    0.4691918793E-01
    0.3900000000E+02    0.3561689403E-01    0.6611151884E-01    0.7501960411E-01    0.1617715653E-01    0.4876544189E-01
    0.4100000000E+02    0.3718320037E-01    0.6843803333E-01    0.7777818777E-01    0.1674801195E-01    0.5056207875E-01
    0.4300000000E+02    0.3872902381E-01    0.7069217574E-01    0.8046340205E-01    0.1730126233E-01    0.5231122258E-01
    0.4500000000E+02    0.4025490574E-01    0.7287695764E-01    0.8307834593E-01    0.1783763962E-01    0.5401487559E-01
    0.4700000000E+02    0.4176136771E-01    0.7499522612E-01    0.8562594307E-01    0.1835783572E-01    0.5567492688E-01
    0.4900000000E+02    0.4324891235E-01    0.7704967496E-01    0.8810895417E-01    0.1886250528E-01    0.5729316033E-01
    0.1000000000E+02    0.1020433531E-01    0.2178510835E-01    0.2421630264E-01    0.5323557859E-02    0.1572432120E-01
    0.3000000000E+02    0.2829944163E-01    0.5465648326E-01    0.6160491480E-01    0.1336854117E-01    0.4003269376E-01
    0.5000000000E+02    0.4398574278E-01    0.7805376947E-01    0.8932706091E-01    0.1910921261E-01    0.5808712586E-01
    0.7000000000E+02    0.5783833275E-01    0.9533821032E-01    0.1108618269E+00    0.2336260806E-01    0.7213511738E-01
    0.9000000000E+02    0.7025653082E-01    0.1084524231E+00    0.1281800812E+00    0.2660073158E-01    0.8345059484E-01
    0.1100000000E+03    0.8152689383E-01    0.1186004155E+00    0.1424848680E+00    0.2911606413E-01    0.9281161794E-01
    0.1300000000E+03    0.9186082985E-01    0.1265689771E+00    0.1545539388E+00    0.3109972974E-01    0.1007214679E+00
    0.1500000000E+03    0.1014180274E+00    0.1328940604E+00    0.1649135465E+00    0.3268193654E-01    0.1075208648E+00
    0.1700000000E+03    0.1103215858E+00    0.1379531896E+00    0.1739332256E+00    0.3395442727E-01    0.1134491888E+00
    0.1900000000E+03    0.1186680950E+00    0.1420197436E+00    0.1818805736E+00    0.3498366188E-01    0.1186798762E+00
    0.2100000000E+03    0.1265345332E+00    0.1452963333E+00    0.1889544667E+00    0.3581892082E-01    0.1233418900E+00
    0.2300000000E+03    0.1339831012E+00    0.1479361194E+00    0.1953060250E+00    0.3649747966E-01    0.1275332743E+00
    0.2500000000E+03    0.1410646815E+00    0.1500568748E+00    0.2010523042E+00    0.3704802166E-01    0.1313300113E+00
    0.2700000000E+03    0.1478213601E+00    0.1517505178E+00    0.2062855063E+00    0.3749295143E-01    0.1347919795E+00
    0.2900000000E+03    0.1542882962E+00    0.1530897341E+00    0.2110793363E+00    0.3785000168E-01    0.1379670686E+00
    0.3100000000E+03    0.1604951291E+00    0.1541326716E+00    0.2154934889E+00    0.3813337260E-01    0.1408940839E+00
    0.3300000000E+03    0.1664670520E+00    0.1549263326E+00    0.2195768808E+00    0.3835455517E-01    0.1436048391E+00
    0.3500000000E+03    0.1722256414E+00    0.1555090658E+00    0.2233700196E+00    0.3852293584E-01    0.1461256920E+00
    0.3700000000E+03    0.1777895044E+00    0.1559124229E+00    0.2269067693E+00    0.3864624737E-01    0.1484786875E+00
    0.3900000000E+03    0.1831747911E+00    0.1561625620E+00    0.2302156849E+00    0.3873090952E-01    0.1506824230E+00
    0.4100000000E+03    0.1883956021E+00    0.1562813204E+00    0.2333210343E+00    0.3878228956E-01    0.1527527111E+00
    0.4300000000E+03    0.1934643163E+00    0.1562870440E+00    0.2362435905E+00    0.3880490381E-01    0.1547030936E+00
    0.4500000000E+03    0.1983918571E+00    0.1561952352E+00    0.2390012528E+00    0.3880257506E-01    0.1565452437E+00
    0.4700000000E+03    0.2031879099E+00    0.1560190636E+00    0.2416095383E+00    0.3877855668E-01    0.1582892861E+00
    0.4900000000E+03    0.2078611005E+00    0.1557697723E+00    0.2440819748E+00    0.3873563141E-01    0.1599440510E+00
    0.1000000000E+03    0.7602054308E-01    0.1138406823E+00    0.1356531428E+00    0.2793501869E-01    0.8833917213E-01
    0.3000000000E+03    0.1574225575E+00    0.1536450717E+00    0.2133305936E+00    0.3800012334E-01    0.1394594535E+00
    0.5000000000E+03    0.2101540655E+00    0.1556207747E+00    0.2452710122E+00    0.3870783941E-01    0.1607404115E+00
    0.7000000000E+03    0.2510696272E+00    0.1505390336E+00    0.2641516600E+00    0.3759205026E-01    0.1734393491E+00
    0.9000000000E+03    0.2850949898E+00    0.1438058107E+00    0.2771301649E+00    0.3600366572E-01    0.1822367317E+00
    0.1100000000E+04    0.3143638272E+00    0.1368992999E+00    0.2868230333E+00    0.3432544148E-01    0.1888509854E+00
    0.1300000000E+04    0.3400269977E+00    0.1302955344E+00    0.2944519747E+00    0.3268854351E-01    0.1940875915E+00
    0.1500000000E+04    0.3628008231E+00    0.1241457707E+00    0.3006777549E+00    0.3114027530E-01    0.1983837307E+00
    0.1700000000E+04    0.3831777393E+00    0.1184815362E+00    0.3058948319E+00    0.2969565918E-01    0.2020012326E+00
    0.1900000000E+04    0.4015209153E+00    0.1132877395E+00    0.3103560259E+00    0.2835624736E-01    0.2051084172E+00
    0.2100000000E+04    0.4181118826E+00    0.1085316444E+00    0.3142323065E+00    0.2711781964E-01    0.2078194315E+00
    0.2300000000E+04    0.4331767630E+00    0.1041751190E+00    0.3176442463E+00    0.2597379233E-01    0.2102149885E+00
    0.2500000000E+04    0.4469018334E+00    0.1001799590E+00    0.3206797931E+00    0.2491680605E-01    0.2123541088E+00
    0.2700000000E+04    0.4594433793E+00    0.9651015581E-01    0.3234048997E+00    0.2393948257E-01    0.2142811576E+00
    0.2900000000E+04    0.4709342950E+00    0.9313275940E-01    0.3258701845E+00    0.2303478137E-01    0.2160302616E+00
    0.3100000000E+04    0.4814887270E+00    0.9001808396E-01    0.3281152681E+00    0.2219615589E-01    0.2176281902E+00
    0.3300000000E+04    0.4912054791E+00    0.8713960838E-01    0.3301716918E+00    0.2141760731E-01    0.2190962979E+00
    0.3500000000E+04    0.5001705985E+00    0.8447374409E-01    0.3320649369E+00    0.2069368579E-01    0.2204518701E+00
    0.3700000000E+04    0.5084593962E+00    0.8199955529E-01    0.3338158558E+00    0.2001946532E-01    0.2217090789E+00
    0.3900000000E+04    0.5161380615E+00    0.7969847326E-01    0.3354417086E+00    0.1939050643E-01    0.2228796762E+00
    0.4100000000E+04    0.5232649760E+00    0.7755402500E-01    0.3369569276E+00    0.1880281427E-01    0.2239735057E+00
    0.4300000000E+04    0.5298917976E+00    0.7555158462E-01    0.3383736910E+00    0.1825279629E-01    0.2249988875E+00
    0.4500000000E+04    0.5360643660E+00    0.7367815038E-01    0.3397023598E+00    0.1773722168E-01    0.2259629117E+00
    0.4700000000E+04    0.5418234645E+00    0.7192214718E-01    0.3409518143E+00    0.1725318363E-01    0.2268716649E+00
    0.4900000000E+04    0.5472054666E+00    0.7027325299E-01    0.3421297182E+00    0.1679806479E-01    0.2277304074E+00
    0.1000000000E+04    0.3002380253E+00    0.1403327542E+00    0.2822922796E+00    0.3516459672E-01    0.1857541637E+00
    0.3000000000E+04    0.4763220702E+00    0.9154431096E-01    0.3270181179E+00    0.2260759712E-01    0.2168466793E+00
    0.5000000000E+04    0.5497653550E+00    0.6948605097E-01    0.3426939526E+00    0.1658060357E-01    0.2281424777E+00
    0.7000000000E+04    0.5874585054E+00    0.5758491530E-01    0.3514571533E+00    0.1328737569E-01    0.2346095059E+00
    0.9000000000E+04    0.6095180483E+00    0.5016672261E-01    0.3572596227E+00    0.1124608359E-01    0.2389747568E+00
    0.1100000000E+05    0.6236831757E+00    0.4506473184E-01    0.3614673341E+00    0.9860658980E-02    0.2421931718E+00
    0.1300000000E+05    0.6334163431E+00    0.4130680028E-01    0.3646986128E+00    0.8856658198E-02    0.2447015226E+00
    0.1500000000E+05    0.6404542186E+00    0.3839873412E-01    0.3672803339E+00    0.8092817404E-02    0.2467327754E+00
    0.1700000000E+05    0.6457483886E+00    0.3606409822E-01    0.3694039502E+00    0.7489753535E-02    0.2484244726E+00
    0.1900000000E+05    0.6498578992E+00    0.3413632215E-01    0.3711901229E+00    0.6999647285E-02    0.2498639326E+00
    0.2100000000E+05    0.6531301042E+00    0.3250893526E-01    0.3727192129E+00    0.6592038402E-02    0.2511097042E+00
    0.2300000000E+05    0.6557909472E+00    0.3111055933E-01    0.3740471025E+00    0.6246618574E-02    0.2522027600E+00
    0.2500000000E+05    0.6579931061E+00    0.2989143182E-01    0.3752140249E+00    0.5949326078E-02    0.2531727754E+00
    0.2700000000E+05    0.6598431187E+00    0.2881570975E-01    0.3762497866E+00    0.5690110015E-02    0.2540418602E+00
    0.2900000000E+05    0.6614173937E+00    0.2785685584E-01    0.3771770044E+00    0.5461589499E-02    0.2548268816E+00
    0.3100000000E+05    0.6627720433E+00    0.2699475573E-01    0.3780131926E+00    0.5258217012E-02    0.2555409694E+00
    0.3300000000E+05    0.6639491324E+00    0.2621385171E-01    0.3787721539E+00    0.5075738142E-02    0.2561945223E+00
    0.3500000000E+05    0.6649807715E+00    0.2550189683E-01    0.3794649332E+00    0.4910832154E-02    0.2567959012E+00
    0.3700000000E+05    0.6658918679E+00    0.2484910056E-01    0.3801004878E+00    0.4760866506E-02    0.2573519182E+00
    0.3900000000E+05    0.6667020197E+00    0.2424752869E-01    0.3806861687E+00    0.4623725269E-02    0.2578681885E+00
    0.4100000000E+05    0.6674268454E+00    0.2369067317E-01    0.3812280726E+00    0.4497686693E-02    0.2583493897E+00
    0.4300000000E+05    0.6680789369E+00    0.2317313764E-01    0.3817313046E+00    0.4381334223E-02    0.2587994549E+00
    0.4500000000E+05    0.6686685519E+00    0.2269040385E-01    0.3822001757E+00    0.4273490729E-02    0.2592217191E+00
    0.4700000000E+05    0.6692041270E+00    0.2223865537E-01    0.3826383552E+00    0.4173169174E-02    0.2596190321E+00
    0.4900000000E+05    0.6696926606E+00    0.2181464285E-01    0.3830489882E+00    0.4079535085E-02    0.2599938462E+00
    0.1000000000E+05    0.6173129786E+00    0.4740304786E-01    0.3595143939E+00    0.1049298339E-01    0.2406931986E+00
    0.3000000000E+05    0.6621192695E+00    0.2741477377E-01    0.3776055404E+00    0.5357051065E-02    0.2551920876E+00
    0.5000000000E+05    0.6699211541E+00    0.2161215099E-01    0.3832448374E+00    0.4034999535E-02    0.2601734910E+00
    0.7000000000E+05    0.6730407938E+00    0.1851132810E-01    0.3862135849E+00    0.3367537442E-02    0.2629775884E+00
    0.9000000000E+05    0.6747050283E+00    0.1649303379E-01    0.3880995122E+00    0.2947595087E-02    0.2648590756E+00
    0.1100000000E+06    0.6757360469E+00    0.1504002305E-01    0.3894237015E+00    0.2652224450E-02    0.2662443579E+00
    0.1300000000E+06    0.6764362901E+00    0.1392726744E-01    0.3904136711E+00    0.2429908414E-02    0.2673250067E+00
    0.1500000000E+06    0.6769424668E+00    0.1303856562E-01    0.3911864176E+00    0.2254761020E-02    0.2682020122E+00
    0.1700000000E+06    0.6773252253E+00    0.1230688021E-01    0.3918089475E+00    0.2112158729E-02    0.2689345201E+00
    0.1900000000E+06    0.6776246970E+00    0.1169039441E-01    0.3923227021E+00    0.1993131557E-02    0.2695598660E+00
    0.2100000000E+06    0.6778653455E+00    0.1116145886E-01    0.3927548357E+00    0.1891830106E-02    0.2701029827E+00
    0.2300000000E+06    0.6780629227E+00    0.1070094618E-01    0.3931239613E+00    0.1804254875E-02    0.2705812678E+00
    0.2500000000E+06    0.6782280256E+00    0.1029513707E-01    0.3934433084E+00    0.1727565877E-02    0.2710072964E+00
    0.2700000000E+06    0.6783680425E+00    0.9933895512E-02    0.3937225639E+00    0.1659683225E-02    0.2713904247E+00
    0.2900000000E+06    0.6784882814E+00    0.9609545531E-02    0.3939689997E+00    0.1599044010E-02    0.2717377840E+00
    0.3100000000E+06    0.6785926528E+00    0.9316151153E-02    0.3941881914E+00    0.1544447959E-02    0.2720549228E+00
    0.3300000000E+06    0.6786841013E+00    0.9049038709E-02    0.3943844927E+00    0.1494955943E-02    0.2723462349E+00
    0.3500000000E+06    0.6787648858E+00    0.8804470519E-02    0.3945613573E+00    0.1449821169E-02    0.2726152531E+00
    0.3700000000E+06    0.6788367683E+00    0.8579416280E-02    0.3947215630E+00    0.1408441329E-02    0.2728648567E+00
    0.3900000000E+06    0.6789011429E+00    0.8371389307E-02    0.3948673720E+00    0.1370324527E-02    0.2730974203E+00
    0.4100000000E+06    0.6789591275E+00    0.8178326930E-02    0.3950006466E+00    0.1335064554E-02    0.2733149229E+00
    0.4300000000E+06    0.6790116286E+00    0.7998501611E-02    0.3951229353E+00    0.1302322601E-02    0.2735190298E+00
    0.4500000000E+06    0.6790593890E+00    0.7830453861E-02    0.3952355368E+00    0.1271813532E-02    0.2737111544E+00
    0.4700000000E+06    0.6791030233E+00    0.7672940901E-02    0.3953395493E+00    0.1243295425E-02    0.2738925052E+00
    0.4900000000E+06    0.6791430442E+00    0.7524896866E-02    0.3954359082E+00    0.1216561503E-02    0.2740641232E+00
    0.1000000000E+06    0.6752748891E+00    0.1571362960E-01    0.3888138546E+00    0.2788438441E-02    0.2655987202E+00
    0.3000000000E+06    0.6785422477E+00    0.9459296178E-02    0.3940817046E+00    0.1571054474E-02    0.2718998333E+00
    0.5000000000E+06    0.6791618371E+00    0.7454133171E-02    0.3954814727E+00    0.1203807023E-02    0.2741465692E+00
    0.7000000000E+06    0.6794238358E+00    0.6366863607E-02    0.3961365886E+00    0.1009859660E-02    0.2754516126E+00
    0.9000000000E+06    0.6795685661E+00    0.5657615270E-02    0.3965097744E+00    0.8855032406E-03    0.2763500311E+00
    0.1100000000E+07    0.6796604154E+00    0.5147468034E-02    0.3967448685E+00    0.7971967613E-03    0.2770259735E+00
    0.1300000000E+07    0.6797239206E+00    0.4757475923E-02    0.3969019908E+00    0.7303771669E-03    0.2775632163E+00
    0.1500000000E+07    0.6797704675E+00    0.4446625192E-02    0.3970108886E+00    0.6775697730E-03    0.2780064466E+00
    0.1700000000E+07    0.6798060614E+00    0.4191195166E-02    0.3970880049E+00    0.6344934041E-03    0.2783821237E+00
    0.1900000000E+07    0.6798341699E+00    0.3976377711E-02    0.3971431734E+00    0.5984971413E-03    0.2787071208E+00
    0.2100000000E+07    0.6798569356E+00    0.3792382882E-02    0.3971826329E+00    0.5678406659E-03    0.2789928132E+00
    0.2300000000E+07    0.6798757540E+00    0.3632442319E-02    0.3972105279E+00    0.5413281863E-03    0.2792472093E+00
    0.2500000000E+07    0.6798915730E+00    0.3491705630E-02    0.3972297145E+00    0.5181074641E-03    0.2794761459E+00
    0.2700000000E+07    0.6799050592E+00    0.3366592937E-02    0.3972422218E+00    0.4975526097E-03    0.2796840002E+00
    0.2900000000E+07    0.6799166952E+00    0.3254396164E-02    0.3972495274E+00    0.4791922917E-03    0.2798741333E+00
    0.3100000000E+07    0.6799268388E+00    0.3153023428E-02    0.3972527309E+00    0.4626639351E-03    0.2800491790E+00
    0.3300000000E+07    0.6799357609E+00    0.3060829519E-02    0.3972526652E+00    0.4476834777E-03    0.2802112367E+00
    0.3500000000E+07    0.6799436708E+00    0.2976500142E-02    0.3972499716E+00    0.4340248036E-03    0.2803620055E+00
    0.3700000000E+07    0.6799507321E+00    0.2898970868E-02    0.3972451502E+00    0.4215053955E-03    0.2805028787E+00
    0.3900000000E+07    0.6799570752E+00    0.2827369118E-02    0.3972385963E+00    0.4099761014E-03    0.2806350119E+00
    0.4100000000E+07    0.6799628049E+00    0.2760971816E-02    0.3972306250E+00    0.3993136891E-03    0.2807593738E+00
    0.4300000000E+07    0.6799680065E+00    0.2699173943E-02    0.3972214905E+00    0.3894153351E-03    0.2808767838E+00
    0.4500000000E+07    0.6799727502E+00    0.2641464827E-02    0.3972113990E+00    0.3801944794E-03    0.2809879412E+00
    0.4700000000E+07    0.6799770944E+00    0.2587410002E-02    0.3972005196E+00    0.3715776652E-03    0.2810934466E+00
    0.4900000000E+07    0.6799810877E+00    0.2536637168E-02    0.3971889915E+00    0.3635020971E-03    0.2811938202E+00
    0.1000000000E+07    0.6796191038E+00    0.5383871431E-02    0.3966397828E+00    0.8379948729E-03    0.2767092645E+00
    0.3000000000E+07    0.6799219349E+00    0.3202468524E-02    0.3972515846E+00    0.4707184343E-03    0.2799634001E+00
    0.5000000000E+07    0.6799829658E+00    0.2512379392E-02    0.3971830210E+00    0.3596500937E-03    0.2812422264E+00
    0.7000000000E+07    0.6800093732E+00    0.2140587904E-02    0.3970491908E+00    0.3011459140E-03    0.2820254843E+00
    0.9000000000E+07    0.6800241734E+00    0.1899015188E-02    0.3969108166E+00    0.2637156671E-03    0.2825848643E+00
    0.1100000000E+08    0.6800336673E+00    0.1725732515E-02    0.3967795720E+00    0.2371820647E-03    0.2830176518E+00
    0.1300000000E+08    0.6800402886E+00    0.1593534231E-02    0.3966575975E+00    0.2171326044E-03    0.2833694357E+00
    0.1500000000E+08    0.6800451775E+00    0.1488332259E-02    0.3965446540E+00    0.2013057338E-03    0.2836651204E+00
    0.1700000000E+08    0.6800489398E+00    0.1401999207E-02    0.3964399039E+00    0.1884078067E-03    0.2839197504E+00
    0.1900000000E+08    0.6800519280E+00    0.1329471764E-02    0.3963424259E+00    0.1776387137E-03    0.2841430867E+00
    0.2100000000E+08    0.6800543606E+00    0.1267408184E-02    0.3962513670E+00    0.1684737228E-03    0.2843418105E+00
    0.2300000000E+08    0.6800563810E+00    0.1213501468E-02    0.3961659793E+00    0.1605526140E-03    0.2845206895E+00
    0.2500000000E+08    0.6800580867E+00    0.1166100430E-02    0.3960856203E+00    0.1536188695E-03    0.2846832412E+00
    0.2700000000E+08    0.6800595469E+00    0.1123987730E-02    0.3960097412E+00    0.1474842402E-03    0.2848321329E+00
