  Pressure (Pa) 22mC5-400 (mol/kg) 2mC6-400 (mol/kg) 3mC6-400 (mol/kg) 33mC5-400 (mol/kg) C7-400 (mol/kg)
    0.1000000000E+01    0.1059583761E-02    0.3942730887E-02    0.3134346490E-02    0.1926331454E-03    0.6781771456E-02
    0.3000000000E+01    0.3143688451E-02    0.1139865198E-01    0.9050848054E-02    0.5570567171E-03    0.1958672988E-01
    0.5000000000E+01    0.5182688091E-02    0.1833341859E-01    0.1454162559E-01    0.8961969883E-03    0.3147458801E-01
    0.7000000000E+01    0.7178457626E-02    0.2480113436E-01    0.1965262678E-01    0.1212683497E-02    0.4254418247E-01
    0.9000000000E+01    0.9132765603E-02    0.3084842185E-01    0.2442336234E-01    0.1508781406E-02    0.5288051376E-01
    0.1100000000E+02    0.1104728171E-01    0.3651569141E-01    0.2888799794E-01    0.1786453394E-02    0.6255709221E-01
    0.1300000000E+02    0.1292358366E-01    0.4183815892E-01    0.3307623091E-01    0.2047409295E-02    0.7163782186E-01
    0.1500000000E+02    0.1476316354E-01    0.4684666854E-01    0.3701399983E-01    0.2293146211E-02    0.8017852502E-01
    0.1700000000E+02    0.1656743359E-01    0.5156836287E-01    0.4072406277E-01    0.2524981179E-02    0.8822818513E-01
    0.1900000000E+02    0.1833773155E-01    0.5602723255E-01    0.4422647196E-01    0.2744077953E-02    0.9582996669E-01
    0.2100000000E+02    0.2007532559E-01    0.6024456997E-01    0.4753896573E-01    0.2951469105E-02    0.1030220579E+00
    0.2300000000E+02    0.2178141881E-01    0.6423934608E-01    0.5067729422E-01    0.3148074388E-02    0.1098383704E+00
    0.2500000000E+02    0.2345715344E-01    0.6802852522E-01    0.5365549143E-01    0.3334716051E-02    0.1163091246E+00
    0.2700000000E+02    0.2510361468E-01    0.7162732944E-01    0.5648610377E-01    0.3512131723E-02    0.1224613406E+00
    0.2900000000E+02    0.2672183428E-01    0.7504946173E-01    0.5918038295E-01    0.3680985262E-02    0.1283192529E+00
    0.3100000000E+02    0.2831279381E-01    0.7830729539E-01    0.6174844956E-01    0.3841875980E-02    0.1339046624E+00
    0.3300000000E+02    0.2987742776E-01    0.8141203533E-01    0.6419943241E-01    0.3995346481E-02    0.1392372357E+00
    0.3500000000E+02    0.3141662634E-01    0.8437385621E-01    0.6654158776E-01    0.4141889385E-02    0.1443347620E+00
    0.3700000000E+02    0.3293123812E-01    0.8720202118E-01    0.6878240164E-01    0.4281953096E-02    0.1492133723E+00
    0.3900000000E+02    0.3442207249E-01    0.8990498426E-01    0.7092867818E-01    0.4415946781E-02    0.1538877304E+00
    0.4100000000E+02    0.3588990190E-01    0.9249047910E-01    0.7298661593E-01    0.4544244681E-02    0.1583711961E+00
    0.4300000000E+02    0.3733546400E-01    0.9496559606E-01    0.7496187417E-01    0.4667189857E-02    0.1626759685E+00
    0.4500000000E+02    0.3875946362E-01    0.9733684952E-01    0.7685963069E-01    0.4785097460E-02    0.1668132101E+00
    0.4700000000E+02    0.4016257456E-01    0.9961023671E-01    0.7868463223E-01    0.4898257584E-02    0.1707931552E+00
    0.4900000000E+02    0.4154544136E-01    0.1017912894E+00    0.8044123874E-01    0.5006937778E-02    0.1746252051E+00
    0.1000000000E+02    0.1009489695E-01    0.3372724661E-01    0.2669199086E-01    0.1649808360E-02    0.5779707235E-01
    0.3000000000E+02    0.2752066208E-01    0.7669818992E-01    0.6047960052E-01    0.3762390816E-02    0.1311447445E+00
    0.5000000000E+02    0.4222947701E-01    0.1028488030E+00    0.8129516025E-01    0.5059675894E-02    0.1764885005E+00
    0.7000000000E+02    0.5498414736E-01    0.1202082442E+00    0.9560499519E-01    0.5930338047E-02    0.2077633336E+00
    0.9000000000E+02    0.6627653822E-01    0.1323383987E+00    0.1061573303E+00    0.6546597982E-02    0.2308986917E+00
    0.1100000000E+03    0.7643934030E-01    0.1410927465E+00    0.1143266053E+00    0.6998061623E-02    0.2488633877E+00
    0.1300000000E+03    0.8570645883E-01    0.1475414876E+00    0.1208802751E+00    0.7336501166E-02    0.2633169822E+00
    0.1500000000E+03    0.9424768794E-01    0.1523493352E+00    0.1262825241E+00    0.7594112856E-02    0.2752643320E+00
    0.1700000000E+03    0.1021896382E+00    0.1559520658E+00    0.1308316925E+00    0.7792040132E-02    0.2853519701E+00
    0.1900000000E+03    0.1096289046E+00    0.1586475196E+00    0.1347289141E+00    0.7944764065E-02    0.2940162329E+00
    0.2100000000E+03    0.1166406508E+00    0.1606461235E+00    0.1381151225E+00    0.8062540376E-02    0.3015631767E+00
    0.2300000000E+03    0.1232843774E+00    0.1621006246E+00    0.1410922604E+00    0.8152833751E-02    0.3082144104E+00
    0.2500000000E+03    0.1296079029E+00    0.1631244285E+00    0.1437360602E+00    0.8221202782E-02    0.3141347312E+00
    0.2700000000E+03    0.1356501739E+00    0.1638033549E+00    0.1461040736E+00    0.8271867543E-02    0.3194494982E+00
    0.2900000000E+03    0.1414432919E+00    0.1642034207E+00    0.1482408980E+00    0.8308085660E-02    0.3242559488E+00
    0.3100000000E+03    0.1470140011E+00    0.1643761371E+00    0.1501816842E+00    0.8332408474E-02    0.3286307973E+00
    0.3300000000E+03    0.1523847979E+00    0.1643622009E+00    0.1519545528E+00    0.8346859746E-02    0.3326354738E+00
    0.3500000000E+03    0.1575747723E+00    0.1641941211E+00    0.1535822987E+00    0.8353062937E-02    0.3363198204E+00
    0.3700000000E+03    0.1626002531E+00    0.1638981216E+00    0.1550836174E+00    0.8352333555E-02    0.3397247539E+00
    0.3900000000E+03    0.1674753095E+00    0.1634955425E+00    0.1564740042E+00    0.8345747236E-02    0.3428842178E+00
    0.4100000000E+03    0.1722121454E+00    0.1630038866E+00    0.1577664240E+00    0.8334190680E-02    0.3458266384E+00
    0.4300000000E+03    0.1768214117E+00    0.1624376121E+00    0.1589718181E+00    0.8318400268E-02    0.3485760261E+00
    0.4500000000E+03    0.1813124577E+00    0.1618087389E+00    0.1600994919E+00    0.8298991675E-02    0.3511528196E+00
    0.4700000000E+03    0.1856935332E+00    0.1611273185E+00    0.1611574163E+00    0.8276482836E-02    0.3535745416E+00
    0.4900000000E+03    0.1899719539E+00    0.1604018009E+00    0.1621524638E+00    0.8251311933E-02    0.3558563124E+00
    0.1000000000E+03    0.7148269729E-01    0.1370581631E+00    0.1104824117E+00    0.6789090160E-02    0.2404032068E+00
    0.3000000000E+03    0.1442549530E+00    0.1643154356E+00    0.1492338963E+00    0.8321596825E-02    0.3264931751E+00
    0.5000000000E+03    0.1920747333E+00    0.1600247810E+00    0.1626283028E+00    0.8237846891E-02    0.3569488866E+00
    0.7000000000E+03    0.2300054304E+00    0.1514210341E+00    0.1699474418E+00    0.7895050286E-02    0.3738864893E+00
    0.9000000000E+03    0.2621717238E+00    0.1423669071E+00    0.1747140317E+00    0.7499493757E-02    0.3850813699E+00
    0.1100000000E+04    0.2903194619E+00    0.1337488482E+00    0.1781269019E+00    0.7104685365E-02    0.3932015417E+00
    0.1300000000E+04    0.3153786154E+00    0.1257822669E+00    0.1807209702E+00    0.6727490718E-02    0.3994460594E+00
    0.1500000000E+04    0.3379238271E+00    0.1184906782E+00    0.1827757082E+00    0.6373243991E-02    0.4044454575E+00
    0.1700000000E+04    0.3583491710E+00    0.1118376459E+00    0.1844532227E+00    0.6043050472E-02    0.4085676743E+00
    0.1900000000E+04    0.3769460092E+00    0.1057693531E+00    0.1858548479E+00    0.5736332795E-02    0.4120440029E+00
    0.2100000000E+04    0.3939418233E+00    0.1002295569E+00    0.1870476002E+00    0.5451834493E-02    0.4150282182E+00
    0.2300000000E+04    0.4095213206E+00    0.9516493326E-01    0.1880777955E+00    0.5188050730E-02    0.4176271323E+00
    0.2500000000E+04    0.4238387442E+00    0.9052681500E-01    0.1889785976E+00    0.4943423860E-02    0.4199175941E+00
    0.2700000000E+04    0.4370255039E+00    0.8627152136E-01    0.1897744539E+00    0.4716434630E-02    0.4219565167E+00
    0.2900000000E+04    0.4491951753E+00    0.8236014123E-01    0.1904838318E+00    0.4505644168E-02    0.4237870817E+00
    0.3100000000E+04    0.4604469451E+00    0.7875812173E-01    0.1911209730E+00    0.4309711634E-02    0.4254427324E+00
    0.3300000000E+04    0.4708680957E+00    0.7543480947E-01    0.1916970580E+00    0.4127399459E-02    0.4269498319E+00
    0.3500000000E+04    0.4805358733E+00    0.7236300491E-01    0.1922210016E+00    0.3957572135E-02    0.4283294842E+00
    0.3700000000E+04    0.4895189413E+00    0.6951855300E-01    0.1927000094E+00    0.3799191702E-02    0.4295988121E+00
    0.3900000000E+04    0.4978785448E+00    0.6687997689E-01    0.1931399759E+00    0.3651311632E-02    0.4307718757E+00
    0.4100000000E+04    0.5056694659E+00    0.6442815450E-01    0.1935457756E+00    0.3513070057E-02    0.4318603430E+00
    0.4300000000E+04    0.5129408223E+00    0.6214603473E-01    0.1939214782E+00    0.3383682864E-02    0.4328739900E+00
    0.4500000000E+04    0.5197367437E+00    0.6001838939E-01    0.1942705114E+00    0.3262436969E-02    0.4338210781E+00
    0.4700000000E+04    0.5260969517E+00    0.5803159651E-01    0.1945957850E+00    0.3148683926E-02    0.4347086433E+00
    0.4900000000E+04    0.5320572609E+00    0.5617345122E-01    0.1948997869E+00    0.3041833959E-02    0.4355427209E+00
    0.1000000000E+04    0.2766782670E+00    0.1379826759E+00    0.1765476369E+00    0.7300524040E-02    0.3894317232E+00
    0.3000000000E+04    0.4549300881E+00    0.8052246326E-01    0.1908106722E+00    0.4405900436E-02    0.4246349822E+00
    0.5000000000E+04    0.5348976855E+00    0.5528915378E-01    0.1950444920E+00    0.2990827999E-02    0.4359413583E+00
    0.7000000000E+04    0.5770804179E+00    0.4222580331E-01    0.1972131969E+00    0.2226255385E-02    0.4420635523E+00
    0.9000000000E+04    0.6019890257E+00    0.3451960971E-01    0.1985630766E+00    0.1767117832E-02    0.4460570057E+00
    0.1100000000E+05    0.6180027028E+00    0.2951504589E-01    0.1994951030E+00    0.1467495807E-02    0.4489324330E+00
    0.1300000000E+05    0.6289825140E+00    0.2602470831E-01    0.2001818059E+00    0.1259083646E-02    0.4511345272E+00
    0.1500000000E+05    0.6368936307E+00    0.2345541538E-01    0.2007108595E+00    0.1106764719E-02    0.4528937053E+00
    0.1700000000E+05    0.6428203986E+00    0.2148348481E-01    0.2011319731E+00    0.9910140999E-03    0.4543429428E+00
    0.1900000000E+05    0.6474016574E+00    0.1991933516E-01    0.2014756202E+00    0.9002546046E-03    0.4555651123E+00
    0.2100000000E+05    0.6510345181E+00    0.1864535423E-01    0.2017616114E+00    0.8272478709E-03    0.4566149328E+00
    0.2300000000E+05    0.6539770492E+00    0.1758503631E-01    0.2020034289E+00    0.7672641580E-03    0.4575302001E+00
    0.2500000000E+05    0.6564033324E+00    0.1668660536E-01    0.2022105924E+00    0.7170960340E-03    0.4583379826E+00
    0.2700000000E+05    0.6584345717E+00    0.1591382856E-01    0.2023900300E+00    0.6744986105E-03    0.4590582507E+00
    0.2900000000E+05    0.6601574786E+00    0.1524061420E-01    0.2025469128E+00    0.6378574493E-03    0.4597061085E+00
    0.3100000000E+05    0.6616355643E+00    0.1464770338E-01    0.2026851845E+00    0.6059838421E-03    0.4602932232E+00
    0.3300000000E+05    0.6629163137E+00    0.1412057165E-01    0.2028079086E+00    0.5779843288E-03    0.4608287716E+00
    0.3500000000E+05    0.6640358780E+00    0.1364805640E-01    0.2029175036E+00    0.5531750606E-03    0.4613200867E+00
    0.3700000000E+05    0.6650222252E+00    0.1322143447E-01    0.2030159058E+00    0.5310241232E-03    0.4617731090E+00
    0.3900000000E+05    0.6658973048E+00    0.1283378722E-01    0.2031046850E+00    0.5111117865E-03    0.4621927105E+00
    0.4100000000E+05    0.6666785661E+00    0.1247955400E-01    0.2031851281E+00    0.4931025387E-03    0.4625829303E+00
    0.4300000000E+05    0.6673800423E+00    0.1215421200E-01    0.2032583005E+00    0.4767250451E-03    0.4629471501E+00
    0.4500000000E+05    0.6680131392E+00    0.1185404278E-01    0.2033250923E+00    0.4617575413E-03    0.4632882256E+00
    0.4700000000E+05    0.6685872159E+00    0.1157595918E-01    0.2033862533E+00    0.4480170257E-03    0.4636085883E+00
    0.4900000000E+05    0.6691100200E+00    0.1131737532E-01    0.2034424198E+00    0.4353511513E-03    0.4639103228E+00
    0.1000000000E+05    0.6108032823E+00    0.3177382887E-01    0.1990676475E+00    0.1602736296E-02    0.4475994236E+00
    0.3000000000E+05    0.6609238449E+00    0.1493512079E-01    0.2026181661E+00    0.6213862908E-03    0.4600066355E+00
    0.5000000000E+05    0.6693542580E+00    0.1119469989E-01    0.2034688031E+00    0.4293804307E-03    0.4640547767E+00
    0.7000000000E+05    0.6726695323E+00    0.9377514790E-02    0.2038323076E+00    0.3439585958E-03    0.4662966559E+00
    0.9000000000E+05    0.6744223009E+00    0.8250091432E-02    0.2040195691E+00    0.2939531778E-03    0.4677888177E+00
    0.1100000000E+06    0.6755023685E+00    0.7461449821E-02    0.2041239606E+00    0.2603787670E-03    0.4688823435E+00
    0.1300000000E+06    0.6762334656E+00    0.6868964307E-02    0.2041833900E+00    0.2359143872E-03    0.4697329208E+00
    0.1500000000E+06    0.6767608095E+00    0.6402233304E-02    0.2042161175E+00    0.2170954890E-03    0.4704219115E+00
    0.1700000000E+06    0.6771590274E+00    0.6021922129E-02    0.2042319798E+00    0.2020517379E-03    0.4709966684E+00
    0.1900000000E+06    0.6774703318E+00    0.5704074419E-02    0.2042367117E+00    0.1896759979E-03    0.4714869421E+00
    0.2100000000E+06    0.6777203707E+00    0.5433141180E-02    0.2042338594E+00    0.1792666912E-03    0.4719125269E+00
    0.2300000000E+06    0.6779256160E+00    0.5198523863E-02    0.2042257182E+00    0.1703552899E-03    0.4722871946E+00
    0.2500000000E+06    0.6780971258E+00    0.4992711895E-02    0.2042138281E+00    0.1626155953E-03    0.4726208756E+00
    0.2700000000E+06    0.6782425976E+00    0.4810211927E-02    0.2041992529E+00    0.1558126796E-03    0.4729209437E+00
    0.2900000000E+06    0.6783675536E+00    0.4646899149E-02    0.2041827452E+00    0.1497725310E-03    0.4731930104E+00
    0.3100000000E+06    0.6784760578E+00    0.4499606981E-02    0.2041648482E+00    0.1443631741E-03    0.4734414353E+00
    0.3300000000E+06    0.6785711674E+00    0.4365857978E-02    0.2041459601E+00    0.1394824730E-03    0.4736696669E+00
    0.3500000000E+06    0.6786552262E+00    0.4243681833E-02    0.2041263773E+00    0.1350499934E-03    0.4738804752E+00
    0.3700000000E+06    0.6787300611E+00    0.4131488954E-02    0.2041063223E+00    0.1310014204E-03    0.4740761156E+00
    0.3900000000E+06    0.6787971170E+00    0.4027980615E-02    0.2040859644E+00    0.1272846339E-03    0.4742584471E+00
    0.4100000000E+06    0.6788575520E+00    0.3932083766E-02    0.2040654326E+00    0.1238568922E-03    0.4744290178E+00
    0.4300000000E+06    0.6789123049E+00    0.3842902885E-02    0.2040448263E+00    0.1206827700E-03    0.4745891300E+00
    0.4500000000E+06    0.6789621449E+00    0.3759683833E-02    0.2040242221E+00    0.1177326253E-03    0.4747398880E+00
    0.4700000000E+06    0.6790077081E+00    0.3681786337E-02    0.2040036793E+00    0.1149814404E-03    0.4748822360E+00
    0.4900000000E+06    0.6790495253E+00    0.3608662746E-02    0.2039832437E+00    0.1124079352E-03    0.4750169870E+00
    0.1000000000E+06    0.6750198174E+00    0.7824839585E-02    0.2040790747E+00    0.2757052377E-03    0.4683731681E+00
    0.3000000000E+06    0.6784236515E+00    0.4571419017E-02    0.2041739427E+00    0.1469959758E-03    0.4733199443E+00
    0.5000000000E+06    0.6790691715E+00    0.3573741196E-02    0.2039730774E+00    0.1111820119E-03    0.4750817375E+00
    0.7000000000E+06    0.6793439275E+00    0.3039605076E-02    0.2037804926E+00    0.9268249505E-04    0.4761082980E+00
    0.9000000000E+06    0.6794967376E+00    0.2693527046E-02    0.2036107965E+00    0.8095225826E-04    0.4768172259E+00
    0.1100000000E+07    0.6795943441E+00    0.2445695427E-02    0.2034614259E+00    0.7268000510E-04    0.4773521075E+00
    0.1300000000E+07    0.6796622425E+00    0.2256838518E-02    0.2033286254E+00    0.6645064321E-04    0.4777782968E+00
    0.1500000000E+07    0.6797122965E+00    0.2106675722E-02    0.2032092689E+00    0.6154524697E-04    0.4781306867E+00
    0.1700000000E+07    0.6797507808E+00    0.1983528608E-02    0.2031009418E+00    0.5755502577E-04    0.4784299605E+00
    0.1900000000E+07    0.6797813293E+00    0.1880131214E-02    0.2030017915E+00    0.5422823843E-04    0.4786893233E+00
    0.2100000000E+07    0.6798061932E+00    0.1791692906E-02    0.2029103816E+00    0.5140032959E-04    0.4789176880E+00
    0.2300000000E+07    0.6798268429E+00    0.1714909094E-02    0.2028255829E+00    0.4895862758E-04    0.4791213365E+00
    0.2500000000E+07    0.6798442799E+00    0.1647416148E-02    0.2027464937E+00    0.4682306582E-04    0.4793048524E+00
    0.2700000000E+07    0.6798592102E+00    0.1587472448E-02    0.2026723840E+00    0.4493498861E-04    0.4794716768E+00
    0.2900000000E+07    0.6798721461E+00    0.1533762413E-02    0.2026026552E+00    0.4325031926E-04    0.4796244548E+00
    0.3100000000E+07    0.6798834686E+00    0.1485271116E-02    0.2025368105E+00    0.4173521483E-04    0.4797652609E+00
    0.3300000000E+07    0.6798934667E+00    0.1441201260E-02    0.2024744330E+00    0.4036320460E-04    0.4798957505E+00
    0.3500000000E+07    0.6799023641E+00    0.1400916576E-02    0.2024151699E+00    0.3911324870E-04    0.4800172645E+00
    0.3700000000E+07    0.6799103363E+00    0.1363902248E-02    0.2023587198E+00    0.3796838659E-04    0.4801309033E+00
    0.3900000000E+07    0.6799175233E+00    0.1329736613E-02    0.2023048232E+00    0.3691477486E-04    0.4802375806E+00
    0.4100000000E+07    0.6799240380E+00    0.1298070532E-02    0.2022532551E+00    0.3594098834E-04    0.4803380628E+00
    0.4300000000E+07    0.6799299724E+00    0.1268612087E-02    0.2022038193E+00    0.3503750355E-04    0.4804329987E+00
    0.4500000000E+07    0.6799354023E+00    0.1241115048E-02    0.2021563432E+00    0.3419631078E-04    0.4805229421E+00
    0.4700000000E+07    0.6799403909E+00    0.1215370065E-02    0.2021106749E+00    0.3341061857E-04    0.4806083696E+00
    0.4900000000E+07    0.6799449912E+00    0.1191197851E-02    0.2020666793E+00    0.3267462579E-04    0.4806896938E+00
    0.1000000000E+07    0.6795503676E+00    0.2560429113E-02    0.2035338147E+00    0.7649609810E-04    0.4771013161E+00
    0.3000000000E+07    0.6798779891E+00    0.1508918590E-02    0.2025692751E+00    0.4247337238E-04    0.4796962424E+00
    0.5000000000E+07    0.6799471599E+00    0.1179652386E-02    0.2020452707E+00    0.3232368001E-04    0.4807289314E+00
    0.7000000000E+07    0.6799780694E+00    0.1002971989E-02    0.2016815548E+00    0.2700307425E-04    0.4813654757E+00
    0.9000000000E+07    0.6799958509E+00    0.8884580304E-03    0.2014019502E+00    0.2360864981E-04    0.4818219640E+00
    0.1100000000E+08    0.6800075153E+00    0.8064613712E-03    0.2011744409E+00    0.2120715162E-04    0.4821762035E+00
    0.1300000000E+08    0.6800158127E+00    0.7439911206E-03    0.2009824620E+00    0.1939523773E-04    0.4824648029E+00
    0.1500000000E+08    0.6800220490E+00    0.6943329516E-03    0.2008163047E+00    0.1796664516E-04    0.4827078247E+00
    0.1700000000E+08    0.6800269270E+00    0.6536191524E-03    0.2006697805E+00    0.1680359022E-04    0.4829174198E+00
    0.1900000000E+08    0.6800308597E+00    0.6194430975E-03    0.2005386978E+00    0.1583332514E-04    0.4831014892E+00
    0.2100000000E+08    0.6800341062E+00    0.5902180616E-03    0.2004200838E+00    0.1500819484E-04    0.4832654511E+00
    0.2300000000E+08    0.6800368380E+00    0.5648496056E-03    0.2003117526E+00    0.1429551694E-04    0.4834131784E+00
    0.2500000000E+08    0.6800391729E+00    0.5425550141E-03    0.2002120491E+00    0.1367203764E-04    0.4835475324E+00
    0.2700000000E+08    0.6800411949E+00    0.5227576266E-03    0.2001196897E+00    0.1312070466E-04    0.4836706859E+00
