  Pressure (Pa) 22mC5-400 (mol/kg) 2mC6-400 (mol/kg) 3mC6-400 (mol/kg) 33mC5-400 (mol/kg) C7-400 (mol/kg)
    0.1000000000E+01    0.1057754661E-02    0.5523100358E-02    0.5232883078E-03    0.3854790052E-03    0.6793346823E-02
    0.3000000000E+01    0.3127773647E-02    0.1598415530E-01    0.1516015628E-02    0.1115789998E-02    0.1968402515E-01
    0.5000000000E+01    0.5139922663E-02    0.2573076751E-01    0.2443218871E-02    0.1796475914E-02    0.3172767942E-01
    0.7000000000E+01    0.7097323087E-02    0.3483265671E-01    0.3311527081E-02    0.2432382792E-02    0.4300988431E-01
    0.9000000000E+01    0.9002866826E-02    0.4335059108E-01    0.4126693406E-02    0.3027733736E-02    0.5360491560E-01
    0.1100000000E+02    0.1085923731E-01    0.5133780019E-01    0.4893735707E-02    0.3586227339E-02    0.6357756314E-01
    0.1300000000E+02    0.1266892822E-01    0.5884112608E-01    0.5617050873E-02    0.4111117856E-02    0.7298460506E-01
    0.1500000000E+02    0.1443426021E-01    0.6590196756E-01    0.6300508434E-02    0.4605280961E-02    0.8187601480E-01
    0.1700000000E+02    0.1615739588E-01    0.7255706028E-01    0.6947527684E-02    0.5071268059E-02    0.9029595595E-01
    0.1900000000E+02    0.1784035320E-01    0.7883912495E-01    0.7561141649E-02    0.5511351404E-02    0.9828360709E-01
    0.2100000000E+02    0.1948501763E-01    0.8477740925E-01    0.8144050410E-02    0.5927561822E-02    0.1058738498E+00
    0.2300000000E+02    0.2109315294E-01    0.9039814339E-01    0.8698665827E-02    0.6321720412E-02    0.1130978453E+00
    0.2500000000E+02    0.2266641109E-01    0.9572492498E-01    0.9227149213E-02    0.6695465322E-02    0.1199835207E+00
    0.2700000000E+02    0.2420634103E-01    0.1007790459E+00    0.9731443244E-02    0.7050274485E-02    0.1265559807E+00
    0.2900000000E+02    0.2571439681E-01    0.1055797710E+00    0.1021329910E-01    0.7387485013E-02    0.1328378575E+00
    0.3100000000E+02    0.2719194481E-01    0.1101445771E+00    0.1067429963E-01    0.7708309805E-02    0.1388496101E+00
    0.3300000000E+02    0.2864027042E-01    0.1144893582E+00    0.1111587928E-01    0.8013851838E-02    0.1446097807E+00
    0.3500000000E+02    0.3006058399E-01    0.1186286033E+00    0.1153934116E-01    0.8305116499E-02    0.1501352162E+00
    0.3700000000E+02    0.3145402638E-01    0.1225755500E+00    0.1194587189E-01    0.8583022290E-02    0.1554412585E+00
    0.3900000000E+02    0.3282167397E-01    0.1263423183E+00    0.1233655441E-01    0.8848410124E-02    0.1605419106E+00
    0.4100000000E+02    0.3416454321E-01    0.1299400280E+00    0.1271237918E-01    0.9102051449E-02    0.1654499808E+00
    0.4300000000E+02    0.3548359482E-01    0.1333789001E+00    0.1307425386E-01    0.9344655356E-02    0.1701772082E+00
    0.4500000000E+02    0.3677973765E-01    0.1366683476E+00    0.1342301194E-01    0.9576874829E-02    0.1747343733E+00
    0.4700000000E+02    0.3805383219E-01    0.1398170540E+00    0.1375942018E-01    0.9799312241E-02    0.1791313945E+00
    0.4900000000E+02    0.3930669380E-01    0.1428330439E+00    0.1408418523E-01    0.1001252422E-01    0.1833774138E+00
    0.1000000000E+02    0.9937038628E-02    0.4740747092E-01    0.4515941886E-02    0.3311374733E-02    0.5866531623E-01
    0.3000000000E+02    0.2645690212E-01    0.1078906357E+00    0.1044631336E-01    0.7549874267E-02    0.1358762983E+00
    0.5000000000E+02    0.3992540546E-01    0.1442936129E+00    0.1424240740E-01    0.1011583317E-01    0.1854464609E+00
    0.7000000000E+02    0.5135312375E-01    0.1680764135E+00    0.1693010748E-01    0.1180442857E-01    0.2206406486E+00
    0.9000000000E+02    0.6133321735E-01    0.1844282380E+00    0.1896137029E-01    0.1297560356E-01    0.2473086928E+00
    0.1100000000E+03    0.7023928520E-01    0.1960537871E+00    0.2056797207E-01    0.1381699259E-01    0.2684534636E+00
    0.1300000000E+03    0.7831980717E-01    0.2045030495E+00    0.2188183516E-01    0.1443617617E-01    0.2857857317E+00
    0.1500000000E+03    0.8574736892E-01    0.2107274298E+00    0.2298400080E-01    0.1489923941E-01    0.3003573949E+00
    0.1700000000E+03    0.9264615437E-01    0.2153422355E+00    0.2392724621E-01    0.1524896487E-01    0.3128540957E+00
    0.1900000000E+03    0.9910818214E-01    0.2187621421E+00    0.2474756495E-01    0.1551422031E-01    0.3237438401E+00
    0.2100000000E+03    0.1052033469E+00    0.2212760962E+00    0.2547043970E-01    0.1571514940E-01    0.3333582467E+00
    0.2300000000E+03    0.1109858752E+00    0.2230910734E+00    0.2611447825E-01    0.1586620459E-01    0.3419396679E+00
    0.2500000000E+03    0.1164986149E+00    0.2243588188E+00    0.2669362600E-01    0.1597800085E-01    0.3496698801E+00
    0.2700000000E+03    0.1217759683E+00    0.2251928137E+00    0.2721856823E-01    0.1605849234E-01    0.3566882750E+00
    0.2900000000E+03    0.1268459481E+00    0.2256793892E+00    0.2769764999E-01    0.1611374347E-01    0.3631038008E+00
    0.3100000000E+03    0.1317316505E+00    0.2258852099E+00    0.2813749787E-01    0.1614844828E-01    0.3690030367E+00
    0.3300000000E+03    0.1364523310E+00    0.2258624331E+00    0.2854345118E-01    0.1616628883E-01    0.3744557957E+00
    0.3500000000E+03    0.1410242045E+00    0.2256523421E+00    0.2891986794E-01    0.1617018771E-01    0.3795191023E+00
    0.3700000000E+03    0.1454610492E+00    0.2252879525E+00    0.2927034638E-01    0.1616248922E-01    0.3842400733E+00
    0.3900000000E+03    0.1497746688E+00    0.2247959131E+00    0.2959788815E-01    0.1614509176E-01    0.3886580416E+00
    0.4100000000E+03    0.1539752510E+00    0.2241979128E+00    0.2990502060E-01    0.1611954575E-01    0.3928061484E+00
    0.4300000000E+03    0.1580716491E+00    0.2235117366E+00    0.3019388968E-01    0.1608712732E-01    0.3967125530E+00
    0.4500000000E+03    0.1620716049E+00    0.2227520668E+00    0.3046633152E-01    0.1604889420E-01    0.4004013652E+00
    0.4700000000E+03    0.1659819273E+00    0.2219310994E+00    0.3072392810E-01    0.1600572875E-01    0.4038933719E+00
    0.4900000000E+03    0.1698086371E+00    0.2210590215E+00    0.3096805125E-01    0.1595837139E-01    0.4072066100E+00
    0.1000000000E+03    0.6590276213E-01    0.1907164519E+00    0.1980793009E-01    0.1342951711E-01    0.2584441286E+00
    0.3000000000E+03    0.1293105510E+00    0.2258138427E+00    0.2792211837E-01    0.1613341369E-01    0.3661132517E+00
    0.5000000000E+03    0.1716923324E+00    0.2206065439E+00    0.3108544024E-01    0.1593331986E-01    0.4088011895E+00
    0.7000000000E+03    0.2060105393E+00    0.2103577672E+00    0.3294964634E-01    0.1532173953E-01    0.4342551950E+00
    0.9000000000E+03    0.2356351618E+00    0.1996428302E+00    0.3423271266E-01    0.1463854981E-01    0.4519387524E+00
    0.1100000000E+04    0.2619731920E+00    0.1894498033E+00    0.3519202120E-01    0.1396485043E-01    0.4652650898E+00
    0.1300000000E+04    0.2857668804E+00    0.1800002609E+00    0.3594740723E-01    0.1332381778E-01    0.4758315288E+00
    0.1500000000E+04    0.3074699809E+00    0.1713076788E+00    0.3656378933E-01    0.1272160177E-01    0.4845072703E+00
    0.1700000000E+04    0.3273902857E+00    0.1633249213E+00    0.3708002894E-01    0.1215859321E-01    0.4918147288E+00
    0.1900000000E+04    0.3457533317E+00    0.1559896663E+00    0.3752110374E-01    0.1163312829E-01    0.4980909139E+00
    0.2100000000E+04    0.3627342772E+00    0.1492393860E+00    0.3790394762E-01    0.1114284880E-01    0.5035650821E+00
    0.2300000000E+04    0.3784752246E+00    0.1430161670E+00    0.3824052844E-01    0.1068523558E-01    0.5083997737E+00
    0.2500000000E+04    0.3930952595E+00    0.1372679276E+00    0.3853959123E-01    0.1025782305E-01    0.5127141133E+00
    0.2700000000E+04    0.4066965881E+00    0.1319483457E+00    0.3880770332E-01    0.9858283042E-02    0.5165978147E+00
    0.2900000000E+04    0.4193684681E+00    0.1270163578E+00    0.3904991078E-01    0.9484452872E-02    0.5201199959E+00
    0.3100000000E+04    0.4311898399E+00    0.1224355583E+00    0.3927016683E-01    0.9134339303E-02    0.5233349446E+00
    0.3300000000E+04    0.4422311612E+00    0.1181736184E+00    0.3947162065E-01    0.8806112245E-02    0.5262860138E+00
    0.3500000000E+04    0.4525557387E+00    0.1142017650E+00    0.3965681758E-01    0.8498094371E-02    0.5290083263E+00
    0.3700000000E+04    0.4622207322E+00    0.1104943280E+00    0.3982784132E-01    0.8208749477E-02    0.5315306994E+00
    0.3900000000E+04    0.4712779383E+00    0.1070283500E+00    0.3998641690E-01    0.7936670843E-02    0.5338770429E+00
    0.4100000000E+04    0.4797744222E+00    0.1037832526E+00    0.4013398692E-01    0.7680570153E-02    0.5360673935E+00
    0.4300000000E+04    0.4877530395E+00    0.1007405496E+00    0.4027176867E-01    0.7439267164E-02    0.5381186928E+00
    0.4500000000E+04    0.4952528784E+00    0.9788360063E-01    0.4040079771E-01    0.7211680201E-02    0.5400453814E+00
    0.4700000000E+04    0.5023096392E+00    0.9519739801E-01    0.4052196151E-01    0.6996817450E-02    0.5418598585E+00
    0.4900000000E+04    0.5089559663E+00    0.9266838225E-01    0.4063602578E-01    0.6793769015E-02    0.5435728414E+00
    0.1000000000E+04    0.2491592457E+00    0.1944592503E+00    0.3474351785E-01    0.1429843373E-01    0.4590225243E+00
    0.3000000000E+04    0.4253808826E+00    0.1246841692E+00    0.3916256975E-01    0.9306549606E-02    0.5217629448E+00
    0.5000000000E+04    0.5121346556E+00    0.9145893813E-01    0.4069060678E-01    0.6696411427E-02    0.5443942331E+00
    0.7000000000E+04    0.5601914806E+00    0.7309398446E-01    0.4153278557E-01    0.5200157614E-02    0.5572277540E+00
    0.9000000000E+04    0.5892659192E+00    0.6173294454E-01    0.4208337286E-01    0.4262854619E-02    0.5658166680E+00
    0.1100000000E+05    0.6081720466E+00    0.5408292826E-01    0.4247804214E-01    0.3631621279E-02    0.5721015498E+00
    0.1300000000E+05    0.6211945556E+00    0.4859053967E-01    0.4277789722E-01    0.3181458807E-02    0.5769669404E+00
    0.1500000000E+05    0.6305854775E+00    0.4444877452E-01    0.4301508015E-01    0.2845567514E-02    0.5808829189E+00
    0.1700000000E+05    0.6376122143E+00    0.4120389649E-01    0.4320832765E-01    0.2585726737E-02    0.5841260339E+00
    0.1900000000E+05    0.6430306590E+00    0.3858369876E-01    0.4336939523E-01    0.2378763818E-02    0.5868712624E+00
    0.2100000000E+05    0.6473142468E+00    0.3641589407E-01    0.4350607869E-01    0.2209926928E-02    0.5892355605E+00
    0.2300000000E+05    0.6507720333E+00    0.3458645995E-01    0.4362377698E-01    0.2069429633E-02    0.5913005316E+00
    0.2500000000E+05    0.6536130055E+00    0.3301704552E-01    0.4372636197E-01    0.1950547760E-02    0.5931251143E+00
    0.2700000000E+05    0.6559828234E+00    0.3165206459E-01    0.4381669131E-01    0.1848520088E-02    0.5947531049E+00
    0.2900000000E+05    0.6579857027E+00    0.3045098606E-01    0.4389692545E-01    0.1759886480E-02    0.5962178317E+00
    0.3100000000E+05    0.6596979294E+00    0.2938354740E-01    0.4396873157E-01    0.1682074719E-02    0.5975451758E+00
    0.3300000000E+05    0.6611764772E+00    0.2842668118E-01    0.4403341906E-01    0.1613134251E-02    0.5987555885E+00
    0.3500000000E+05    0.6624646589E+00    0.2756248227E-01    0.4409203221E-01    0.1551559728E-02    0.5998654773E+00
    0.3700000000E+05    0.6635959264E+00    0.2677682777E-01    0.4414541519E-01    0.1496171110E-02    0.6008881819E+00
    0.3900000000E+05    0.6645964846E+00    0.2605841802E-01    0.4419425860E-01    0.1446030360E-02    0.6018346766E+00
    0.4100000000E+05    0.6654871244E+00    0.2539809612E-01    0.4423913345E-01    0.1400382407E-02    0.6027140847E+00
    0.4300000000E+05    0.6662845325E+00    0.2478835610E-01    0.4428051641E-01    0.1358612533E-02    0.6035340632E+00
    0.4500000000E+05    0.6670022426E+00    0.2422298130E-01    0.4431880883E-01    0.1320215120E-02    0.6043010929E+00
    0.4700000000E+05    0.6676513367E+00    0.2369677436E-01    0.4435435131E-01    0.1284770382E-02    0.6050207015E+00
    0.4900000000E+05    0.6682409686E+00    0.2320535290E-01    0.4438743498E-01    0.1251926800E-02    0.6056976375E+00
    0.1000000000E+05    0.5996557981E+00    0.5756581753E-01    0.4229540468E-01    0.3918683999E-02    0.5691779431E+00
    0.3000000000E+05    0.6588742115E+00    0.2990214436E-01    0.4393379304E-01    0.1719761942E-02    0.5968972898E+00
    0.5000000000E+05    0.6685159194E+00    0.2297150074E-01    0.4440313440E-01    0.1236385893E-02    0.6060214082E+00
    0.7000000000E+05    0.6722115352E+00    0.1945311162E-01    0.4463376115E-01    0.1009600984E-02    0.6110127552E+00
    0.9000000000E+05    0.6741322451E+00    0.1721942936E-01    0.4477115516E-01    0.8725754808E-03    0.6142863760E+00
    0.1100000000E+06    0.6753014609E+00    0.1563470909E-01    0.4486176669E-01    0.7786213330E-03    0.6166504677E+00
    0.1300000000E+06    0.6760856953E+00    0.1443270292E-01    0.4492539561E-01    0.7091297682E-03    0.6184636258E+00
    0.1500000000E+06    0.6766473444E+00    0.1347925006E-01    0.4497200084E-01    0.6550742375E-03    0.6199128620E+00
    0.1700000000E+06    0.6770690417E+00    0.1269825766E-01    0.4500716829E-01    0.6114871014E-03    0.6211066508E+00
    0.1900000000E+06    0.6773971495E+00    0.1204284894E-01    0.4503428419E-01    0.5753820623E-03    0.6221128685E+00
    0.2100000000E+06    0.6776596448E+00    0.1148232310E-01    0.4505552475E-01    0.5448426483E-03    0.6229764775E+00
    0.2300000000E+06    0.6778743912E+00    0.1099560096E-01    0.4507235377E-01    0.5185754118E-03    0.6237286158E+00
    0.2500000000E+06    0.6780533206E+00    0.1056765502E-01    0.4508579254E-01    0.4956717362E-03    0.6243916314E+00
    0.2700000000E+06    0.6782047023E+00    0.1018743843E-01    0.4509657534E-01    0.4754721961E-03    0.6249820407E+00
    0.2900000000E+06    0.6783344457E+00    0.9846620725E-02    0.4510524353E-01    0.4574850928E-03    0.6255123530E+00
    0.3100000000E+06    0.6784468849E+00    0.9538782998E-02    0.4511220484E-01    0.4413353303E-03    0.6259922425E+00
    0.3300000000E+06    0.6785452700E+00    0.9258887044E-02    0.4511777200E-01    0.4267311261E-03    0.6264293257E+00
    0.3500000000E+06    0.6786320860E+00    0.9002914601E-02    0.4512218876E-01    0.4134416438E-03    0.6268296930E+00
    0.3700000000E+06    0.6787092646E+00    0.8767615689E-02    0.4512564774E-01    0.4012815514E-03    0.6271982817E+00
    0.3900000000E+06    0.6787783306E+00    0.8550329036E-02    0.4512830304E-01    0.3901001059E-03    0.6275391427E+00
    0.4100000000E+06    0.6788405031E+00    0.8348851365E-02    0.4513027931E-01    0.3797732760E-03    0.6278556355E+00
    0.4300000000E+06    0.6788967687E+00    0.8161340553E-02    0.4513167836E-01    0.3701979513E-03    0.6281505737E+00
    0.4500000000E+06    0.6789479341E+00    0.7986242738E-02    0.4513258409E-01    0.3612876160E-03    0.6284263338E+00
    0.4700000000E+06    0.6789946656E+00    0.7822236661E-02    0.4513306617E-01    0.3529690669E-03    0.6286849391E+00
    0.4900000000E+06    0.6790375183E+00    0.7668190632E-02    0.4513318291E-01    0.3451798916E-03    0.6289281247E+00
    0.1000000000E+06    0.6747805661E+00    0.1636712725E-01    0.4482073523E-01    0.8217113620E-03    0.6155539053E+00
    0.3000000000E+06    0.6783926042E+00    0.9688921737E-02    0.4510891612E-01    0.4492004296E-03    0.6257580835E+00
    0.5000000000E+06    0.6790576386E+00    0.7594592379E-02    0.4513311992E-01    0.3414667742E-03    0.6290444113E+00
    0.7000000000E+06    0.6793381798E+00    0.6466531151E-02    0.4512129526E-01    0.2852370540E-03    0.6308358297E+00
    0.9000000000E+06    0.6794934990E+00    0.5733451166E-02    0.4510043057E-01    0.2494040860E-03    0.6320109548E+00
    0.1100000000E+07    0.6795924318E+00    0.5207533043E-02    0.4507727669E-01    0.2240595483E-03    0.6328608746E+00
    0.1300000000E+07    0.6796611233E+00    0.4806277044E-02    0.4505402931E-01    0.2049366834E-03    0.6335140930E+00
    0.1500000000E+07    0.6797116930E+00    0.4486954422E-02    0.4503147764E-01    0.1898572614E-03    0.6340374358E+00
    0.1700000000E+07    0.6797505343E+00    0.4224909304E-02    0.4500989645E-01    0.1775785091E-03    0.6344696008E+00
    0.1900000000E+07    0.6797813416E+00    0.4004777776E-02    0.4498935379E-01    0.1673331792E-03    0.6348347806E+00
    0.2100000000E+07    0.6798064005E+00    0.3816417741E-02    0.4496983135E-01    0.1586187725E-03    0.6351489935E+00
    0.2300000000E+07    0.6798272016E+00    0.3652826335E-02    0.4495127554E-01    0.1510906944E-03    0.6354233315E+00
    0.2500000000E+07    0.6798447591E+00    0.3508990687E-02    0.4493362036E-01    0.1445037608E-03    0.6356657564E+00
    0.2700000000E+07    0.6798597875E+00    0.3381214613E-02    0.4491679778E-01    0.1386781651E-03    0.6358821539E+00
    0.2900000000E+07    0.6798728046E+00    0.3266704504E-02    0.4490074238E-01    0.1334786725E-03    0.6360769839E+00
    0.3100000000E+07    0.6798841954E+00    0.3163304108E-02    0.4488539336E-01    0.1288013683E-03    0.6362536969E+00
    0.3300000000E+07    0.6798942519E+00    0.3069318812E-02    0.4487069514E-01    0.1245649213E-03    0.6364150112E+00
    0.3500000000E+07    0.6799031997E+00    0.2983395750E-02    0.4485659733E-01    0.1207046497E-03    0.6365631018E+00
    0.3700000000E+07    0.6799112160E+00    0.2904439923E-02    0.4484305446E-01    0.1171683861E-03    0.6366997331E+00
    0.3900000000E+07    0.6799184418E+00    0.2831554202E-02    0.4483002553E-01    0.1139135321E-03    0.6368263537E+00
    0.4100000000E+07    0.6799249910E+00    0.2763995560E-02    0.4481747363E-01    0.1109049165E-03    0.6369441658E+00
    0.4300000000E+07    0.6799309563E+00    0.2701142596E-02    0.4480536544E-01    0.1081132119E-03    0.6370541773E+00
    0.4500000000E+07    0.6799364141E+00    0.2642471051E-02    0.4479367083E-01    0.1055137446E-03    0.6371572397E+00
    0.4700000000E+07    0.6799414281E+00    0.2587535103E-02    0.4478236256E-01    0.1030855876E-03    0.6372540788E+00
    0.4900000000E+07    0.6799460515E+00    0.2535952872E-02    0.4477141589E-01    0.1008108607E-03    0.6373453176E+00
    0.1000000000E+07    0.6795478849E+00    0.5451100377E-02    0.4508895145E-01    0.2357585918E-03    0.6324664473E+00
    0.3000000000E+07    0.6798786833E+00    0.3213730706E-02    0.4489298317E-01    0.1310802791E-03    0.6361674205E+00
    0.5000000000E+07    0.6799482311E+00    0.2511314709E-02    0.4476607105E-01    0.9972614214E-04    0.6373890079E+00
    0.7000000000E+07    0.6799792936E+00    0.2134230141E-02    0.4467364903E-01    0.8327753601E-04    0.6380678175E+00
    0.9000000000E+07    0.6799971664E+00    0.1889802409E-02    0.4460084253E-01    0.7278155062E-04    0.6385202272E+00
    0.1100000000E+08    0.6800088958E+00    0.1714787241E-02    0.4454068933E-01    0.6535564365E-04    0.6388519407E+00
    0.1300000000E+08    0.6800172440E+00    0.1581460313E-02    0.4448938795E-01    0.5975314396E-04    0.6391099805E+00
    0.1500000000E+08    0.6800235224E+00    0.1475488481E-02    0.4444463433E-01    0.5533627717E-04    0.6393189713E+00
    0.1700000000E+08    0.6800284366E+00    0.1388614020E-02    0.4440492516E-01    0.5174076823E-04    0.6394932651E+00
    0.1900000000E+08    0.6800324012E+00    0.1315698230E-02    0.4436922435E-01    0.4874159619E-04    0.6396418881E+00
    0.2100000000E+08    0.6800356764E+00    0.1253352924E-02    0.4433678709E-01    0.4619134426E-04    0.6397708505E+00
    0.2300000000E+08    0.6800384341E+00    0.1199241069E-02    0.4430705965E-01    0.4398890802E-04    0.6398843360E+00
    0.2500000000E+08    0.6800407929E+00    0.1151691273E-02    0.4427961901E-01    0.4206234966E-04    0.6399853627E+00
    0.2700000000E+08    0.6800428371E+00    0.1109472165E-02    0.4425413457E-01    0.4035891631E-04    0.6400761723E+00
