  Pressure (Pa) 22mC5-400 (mol/kg) 2mC6-400 (mol/kg) 3mC6-400 (mol/kg) 33mC5-400 (mol/kg) C7-400 (mol/kg)
    0.1000000000E+01    0.1062857772E-02    0.7890484875E-03    0.4696847794E-02    0.1927660476E-03    0.8468866801E-02
    0.3000000000E+01    0.3172531890E-02    0.2284370569E-02    0.1353652929E-01    0.5582815914E-03    0.2441239555E-01
    0.5000000000E+01    0.5261136622E-02    0.3679830338E-02    0.2170786958E-01    0.8996609092E-03    0.3915636178E-01
    0.7000000000E+01    0.7329046813E-02    0.4986374978E-02    0.2928442173E-01    0.1219562789E-02    0.5283257370E-01
    0.9000000000E+01    0.9376628232E-02    0.6213364755E-02    0.3632930835E-01    0.1520259229E-02    0.6555416262E-01
    0.1100000000E+02    0.1140423784E-01    0.7368849807E-02    0.4289700807E-01    0.1803703035E-02    0.7741878025E-01
    0.1300000000E+02    0.1341222406E-01    0.8459791224E-02    0.4903478701E-01    0.2071581788E-02    0.8851116091E-01
    0.1500000000E+02    0.1540092703E-01    0.9492239048E-02    0.5478385477E-01    0.2325361293E-02    0.9890519087E-01
    0.1700000000E+02    0.1737067882E-01    0.1047147662E-01    0.6018030508E-01    0.2566320797E-02    0.1086655922E+00
    0.1900000000E+02    0.1932180372E-01    0.1140213847E-01    0.6525588631E-01    0.2795581748E-02    0.1178493025E+00
    0.2100000000E+02    0.2125461843E-01    0.1228830720E-01    0.7003863679E-01    0.3014131417E-02    0.1265066120E+00
    0.2300000000E+02    0.2316943230E-01    0.1313359357E-01    0.7455341185E-01    0.3222842427E-02    0.1346821076E+00
    0.2500000000E+02    0.2506654752E-01    0.1394120313E-01    0.7882232338E-01    0.3422488985E-02    0.1424154599E+00
    0.2700000000E+02    0.2694625936E-01    0.1471399189E-01    0.8286510858E-01    0.3613760446E-02    0.1497420839E+00
    0.2900000000E+02    0.2880885631E-01    0.1545451309E-01    0.8669944075E-01    0.3797272706E-02    0.1566936951E+00
    0.3100000000E+02    0.3065462036E-01    0.1616505671E-01    0.9034119243E-01    0.3973577814E-02    0.1632987810E+00
    0.3300000000E+02    0.3248382709E-01    0.1684768294E-01    0.9380465936E-01    0.4143172125E-02    0.1695830026E+00
    0.3500000000E+02    0.3429674592E-01    0.1750425072E-01    0.9710275174E-01    0.4306503234E-02    0.1755695368E+00
    0.3700000000E+02    0.3609364025E-01    0.1813644209E-01    0.1002471584E+00    0.4463975905E-02    0.1812793704E+00
    0.3900000000E+02    0.3787476762E-01    0.1874578314E-01    0.1032484879E+00    0.4615957162E-02    0.1867315533E+00
    0.4100000000E+02    0.3964037991E-01    0.1933366204E-01    0.1061163909E+00    0.4762780667E-02    0.1919434172E+00
    0.4300000000E+02    0.4139072345E-01    0.1990134463E-01    0.1088596660E+00    0.4904750506E-02    0.1969307658E+00
    0.4500000000E+02    0.4312603919E-01    0.2044998791E-01    0.1114863518E+00    0.5042144474E-02    0.2017080394E+00
    0.4700000000E+02    0.4484656288E-01    0.2098065186E-01    0.1140038073E+00    0.5175216927E-02    0.2062884594E+00
    0.4900000000E+02    0.4655252515E-01    0.2149430966E-01    0.1164187826E+00    0.5304201278E-02    0.2106841546E+00
    0.1000000000E+02    0.1039290754E-01    0.6799587049E-02    0.3966969812E-01    0.1664026576E-02    0.7158802056E-01
    0.3000000000E+02    0.2973382508E-01    0.1581339830E-01    0.8854346110E-01    0.3886293913E-02    0.1600378879E+00
    0.5000000000E+02    0.4740011646E-01    0.2174504388E-01    0.1175897984E+00    0.5367228170E-02    0.2128162493E+00
    0.7000000000E+02    0.6364000272E-01    0.2605059185E-01    0.1368973281E+00    0.6457131502E-02    0.2480383585E+00
    0.9000000000E+02    0.7865345776E-01    0.2934670423E-01    0.1506912442E+00    0.7303580179E-02    0.2733011994E+00
    0.1100000000E+03    0.9260341800E-01    0.3194910891E-01    0.1610556197E+00    0.7981880206E-02    0.2923569372E+00
    0.1300000000E+03    0.1056240103E+00    0.3404213816E-01    0.1691385923E+00    0.8535942402E-02    0.3072754008E+00
    0.1500000000E+03    0.1178266821E+00    0.3574405656E-01    0.1756254535E+00    0.8993955897E-02    0.3192936367E+00
    0.1700000000E+03    0.1293048316E+00    0.3713616011E-01    0.1809509209E+00    0.9375337475E-02    0.3291973998E+00
    0.1900000000E+03    0.1401373483E+00    0.3827726343E-01    0.1854042972E+00    0.9694177312E-02    0.3375102929E+00
    0.2100000000E+03    0.1503913511E+00    0.3921158278E-01    0.1891857153E+00    0.9961107747E-02    0.3445950061E+00
    0.2300000000E+03    0.1601243292E+00    0.3997334862E-01    0.1924381189E+00    0.1018439409E-01    0.3507109284E+00
    0.2500000000E+03    0.1693858311E+00    0.4058967144E-01    0.1952663823E+00    0.1037061133E-01    0.3560486152E+00
    0.2700000000E+03    0.1782188097E+00    0.4108241341E-01    0.1977492282E+00    0.1052508584E-01    0.3607512913E+00
    0.2900000000E+03    0.1866607024E+00    0.4146946263E-01    0.1999469248E+00    0.1065219609E-01    0.3649287492E+00
    0.3100000000E+03    0.1947443054E+00    0.4176563124E-01    0.2019064110E+00    0.1075558474E-01    0.3686666097E+00
    0.3300000000E+03    0.2024984856E+00    0.4198330706E-01    0.2036648000E+00    0.1083831282E-01    0.3720326585E+00
    0.3500000000E+03    0.2099487658E+00    0.4213293818E-01    0.2052518312E+00    0.1090297445E-01    0.3750812831E+00
    0.3700000000E+03    0.2171178069E+00    0.4222340068E-01    0.2066916207E+00    0.1095178415E-01    0.3778566443E+00
    0.3900000000E+03    0.2240258094E+00    0.4226228278E-01    0.2080039354E+00    0.1098664443E-01    0.3803949848E+00
    0.4100000000E+03    0.2306908485E+00    0.4225610756E-01    0.2092051341E+00    0.1100919887E-01    0.3827263374E+00
    0.4300000000E+03    0.2371291552E+00    0.4221050996E-01    0.2103088751E+00    0.1102087445E-01    0.3848758084E+00
    0.4500000000E+03    0.2433553541E+00    0.4213037895E-01    0.2113266524E+00    0.1102291557E-01    0.3868645533E+00
    0.4700000000E+03    0.2493826647E+00    0.4201997290E-01    0.2122682105E+00    0.1101641180E-01    0.3887105295E+00
    0.4900000000E+03    0.2552230735E+00    0.4188301403E-01    0.2131418657E+00    0.1100232058E-01    0.3904290826E+00
    0.1000000000E+03    0.8575239696E-01    0.3072104784E-01    0.1562158517E+00    0.7660515520E-02    0.2834494870E+00
    0.3000000000E+03    0.1907454012E+00    0.4162808230E-01    0.2009539271E+00    0.1070665217E-01    0.3668480339E+00
    0.5000000000E+03    0.2580766347E+00    0.4180561332E-01    0.2135555017E+00    0.1099269745E-01    0.3912447722E+00
    0.7000000000E+03    0.3075255418E+00    0.3947343779E-01    0.2195615614E+00    0.1056139377E-01    0.4032729933E+00
    0.9000000000E+03    0.3463534716E+00    0.3654091820E-01    0.2230860598E+00    0.9916456857E-02    0.4105592382E+00
    0.1100000000E+04    0.3780302959E+00    0.3360769184E-01    0.2254043901E+00    0.9228598176E-02    0.4154994908E+00
    0.1300000000E+04    0.4045131135E+00    0.3087426500E-01    0.2270440937E+00    0.8562217749E-02    0.4190972551E+00
    0.1500000000E+04    0.4270355879E+00    0.2839838220E-01    0.2282636554E+00    0.7941367337E-02    0.4218501665E+00
    0.1700000000E+04    0.4464373927E+00    0.2618304754E-01    0.2292048804E+00    0.7373292079E-02    0.4240344290E+00
    0.1900000000E+04    0.4633218023E+00    0.2421048192E-01    0.2299521479E+00    0.6857960345E-02    0.4258162721E+00
    0.2100000000E+04    0.4781394776E+00    0.2245612536E-01    0.2305588466E+00    0.6392247622E-02    0.4273020486E+00
    0.2300000000E+04    0.4912369250E+00    0.2089455244E-01    0.2310604232E+00    0.5971864862E-02    0.4285631416E+00
    0.2500000000E+04    0.5028864850E+00    0.1950190228E-01    0.2314813430E+00    0.5592264672E-02    0.4296493467E+00
    0.2700000000E+04    0.5133059288E+00    0.1825675324E-01    0.2318390402E+00    0.5249060816E-02    0.4305965209E+00
    0.2900000000E+04    0.5226718340E+00    0.1714029897E-01    0.2321462759E+00    0.4938208800E-02    0.4314311799E+00
    0.3100000000E+04    0.5311290417E+00    0.1613622044E-01    0.2324126059E+00    0.4656067752E-02    0.4321733794E+00
    0.3300000000E+04    0.5387975332E+00    0.1523043967E-01    0.2326453277E+00    0.4399403939E-02    0.4328385874E+00
    0.3500000000E+04    0.5457775476E+00    0.1441084217E-01    0.2328501102E+00    0.4165366888E-02    0.4334389364E+00
    0.3700000000E+04    0.5521534626E+00    0.1366700766E-01    0.2330314235E+00    0.3951454118E-02    0.4339840857E+00
    0.3900000000E+04    0.5579967843E+00    0.1298996568E-01    0.2331928401E+00    0.3755472717E-02    0.4344818269E+00
    0.4100000000E+04    0.5633684819E+00    0.1237198106E-01    0.2333372484E+00    0.3575501865E-02    0.4349385193E+00
    0.4300000000E+04    0.5683208308E+00    0.1180636940E-01    0.2334670095E+00    0.3409858210E-02    0.4353594077E+00
    0.4500000000E+04    0.5728988837E+00    0.1128733992E-01    0.2335840713E+00    0.3257064817E-02    0.4357488594E+00
    0.4700000000E+04    0.5771416537E+00    0.1080986245E-01    0.2336900553E+00    0.3115823825E-02    0.4361105421E+00
    0.4900000000E+04    0.5810830751E+00    0.1036955533E-01    0.2337863219E+00    0.2984992623E-02    0.4364475600E+00
    0.1000000000E+04    0.3629406746E+00    0.3505682382E-01    0.2243537561E+00    0.9572477315E-02    0.4132425253E+00
    0.3000000000E+04    0.5270060106E+00    0.1662514190E-01    0.2322840537E+00    0.4793760859E-02    0.4318127799E+00
    0.5000000000E+04    0.5829501917E+00    0.1016212515E-01    0.2338311775E+00    0.2923160943E-02    0.4366076622E+00
    0.7000000000E+04    0.6099951266E+00    0.7254294664E-02    0.2344217330E+00    0.2042864806E-02    0.4389909917E+00
    0.9000000000E+04    0.6256152609E+00    0.5674163694E-02    0.2346992675E+00    0.1554303839E-02    0.4404755684E+00
    0.1100000000E+05    0.6356849408E+00    0.4701700306E-02    0.2348400778E+00    0.1251044639E-02    0.4415153865E+00
    0.1300000000E+05    0.6426770241E+00    0.4049247846E-02    0.2349111101E+00    0.1047368184E-02    0.4422980369E+00
    0.1500000000E+05    0.6477981791E+00    0.3583135306E-02    0.2349429158E+00    0.9024046390E-03    0.4429164459E+00
    0.1700000000E+05    0.6517023646E+00    0.3233981813E-02    0.2349512045E+00    0.7945585620E-03    0.4434224454E+00
    0.1900000000E+05    0.6547729121E+00    0.2962621049E-02    0.2349447611E+00    0.7114849951E-03    0.4438474857E+00
    0.2100000000E+05    0.6572486108E+00    0.2745439869E-02    0.2349288119E+00    0.6456759310E-03    0.4442118903E+00
    0.2300000000E+05    0.6592856073E+00    0.2567429314E-02    0.2349066173E+00    0.5923311010E-03    0.4445294522E+00
    0.2500000000E+05    0.6609901331E+00    0.2418626610E-02    0.2348802876E+00    0.5482525608E-03    0.4448099060E+00
    0.2700000000E+05    0.6624368804E+00    0.2292174851E-02    0.2348512295E+00    0.5112352102E-03    0.4450603464E+00
    0.2900000000E+05    0.6636798467E+00    0.2183207900E-02    0.2348204030E+00    0.4797134554E-03    0.4452860838E+00
    0.3100000000E+05    0.6647590077E+00    0.2088180509E-02    0.2347884751E+00    0.4525474752E-03    0.4454911846E+00
    0.3300000000E+05    0.6657045738E+00    0.2004450346E-02    0.2347559161E+00    0.4288891348E-03    0.4456788230E+00
    0.3500000000E+05    0.6665397889E+00    0.1930008497E-02    0.2347230614E+00    0.4080951669E-03    0.4458515193E+00
    0.3700000000E+05    0.6672828224E+00    0.1863300638E-02    0.2346901515E+00    0.3896693820E-03    0.4460113042E+00
    0.3900000000E+05    0.6679480774E+00    0.1803105342E-02    0.2346573599E+00    0.3732232516E-03    0.4461598351E+00
    0.4100000000E+05    0.6685471158E+00    0.1748449368E-02    0.2346248114E+00    0.3584484321E-03    0.4462984806E+00
    0.4300000000E+05    0.6690893237E+00    0.1698547522E-02    0.2345925959E+00    0.3450972388E-03    0.4464283825E+00
    0.4500000000E+05    0.6695823988E+00    0.1652759161E-02    0.2345607768E+00    0.3329685228E-03    0.4465505022E+00
    0.4700000000E+05    0.6700327128E+00    0.1610556231E-02    0.2345293987E+00    0.3218972951E-03    0.4466656562E+00
    0.4900000000E+05    0.6704455844E+00    0.1571499429E-02    0.2344984914E+00    0.3117469913E-03    0.4467745431E+00
    0.1000000000E+05    0.6311459552E+00    0.5135313860E-02    0.2347812967E+00    0.1386412709E-02    0.4410360832E+00
    0.3000000000E+05    0.6642378241E+00    0.2134134360E-02    0.2348045435E+00    0.4656446452E-03    0.4453909977E+00
    0.5000000000E+05    0.6706394057E+00    0.1553033283E-02    0.2344832207E+00    0.3069808145E-03    0.4468268278E+00
    0.7000000000E+05    0.6733371177E+00    0.1284179771E-02    0.2342039183E+00    0.2401927852E-03    0.4476539085E+00
    0.9000000000E+05    0.6748229360E+00    0.1121635705E-02    0.2339688323E+00    0.2024122358E-03    0.4482254041E+00
    0.1100000000E+06    0.6757638863E+00    0.1009734148E-02    0.2337677539E+00    0.1776342569E-03    0.4486584167E+00
    0.1300000000E+06    0.6764134976E+00    0.9265676413E-03    0.2335925742E+00    0.1598852398E-03    0.4490053141E+00
    0.1500000000E+06    0.6768891338E+00    0.8615604391E-03    0.2334375359E+00    0.1464079646E-03    0.4492937932E+00
    0.1700000000E+06    0.6772525707E+00    0.8088997058E-03    0.2332985359E+00    0.1357433130E-03    0.4495401876E+00
    0.1900000000E+06    0.6775394205E+00    0.7650893796E-03    0.2331725818E+00    0.1270415479E-03    0.4497548989E+00
    0.2100000000E+06    0.6777716575E+00    0.7278827293E-03    0.2330574363E+00    0.1197714877E-03    0.4499449406E+00
    0.2300000000E+06    0.6779635765E+00    0.6957605803E-03    0.2329513875E+00    0.1135824702E-03    0.4501152564E+00
    0.2500000000E+06    0.6781248794E+00    0.6676534957E-03    0.2328530980E+00    0.1082327630E-03    0.4502694560E+00
    0.2700000000E+06    0.6782623827E+00    0.6427836112E-03    0.2327615045E+00    0.1035497599E-03    0.4504102526E+00
    0.2900000000E+06    0.6783810166E+00    0.6205696062E-03    0.2326757478E+00    0.9940656809E-04    0.4505397351E+00
    0.3100000000E+06    0.6784844357E+00    0.6005670214E-03    0.2325951240E+00    0.9570758433E-04    0.4506595446E+00
    0.3300000000E+06    0.6785754065E+00    0.5824293545E-03    0.2325190493E+00    0.9237925577E-04    0.4507709933E+00
    0.3500000000E+06    0.6786560620E+00    0.5658818890E-03    0.2324470343E+00    0.8936396231E-04    0.4508751460E+00
    0.3700000000E+06    0.6787280734E+00    0.5507036011E-03    0.2323786645E+00    0.8661584862E-04    0.4509728786E+00
    0.3900000000E+06    0.6787927685E+00    0.5367143530E-03    0.2323135861E+00    0.8409791307E-04    0.4510649196E+00
    0.4100000000E+06    0.6788512160E+00    0.5237656361E-03    0.2322514943E+00    0.8177992952E-04    0.4511518816E+00
    0.4300000000E+06    0.6789042856E+00    0.5117337580E-03    0.2321921251E+00    0.7963693477E-04    0.4512342843E+00
    0.4500000000E+06    0.6789526924E+00    0.5005147422E-03    0.2321352480E+00    0.7764810849E-04    0.4513125722E+00
    0.4700000000E+06    0.6789970297E+00    0.4900204560E-03    0.2320806605E+00    0.7579593096E-04    0.4513871285E+00
    0.4900000000E+06    0.6790377941E+00    0.4801756295E-03    0.2320281842E+00    0.7406554070E-04    0.4514582858E+00
    0.1000000000E+06    0.6753408712E+00    0.1061119996E-02    0.2338646121E+00    0.1888853512E-03    0.4484551156E+00
    0.3000000000E+06    0.6784344378E+00    0.6103154836E-03    0.2326348333E+00    0.9750658065E-04    0.4506007603E+00
    0.5000000000E+06    0.6790569699E+00    0.4754761771E-03    0.2320026875E+00    0.7324197401E-04    0.4514926821E+00
    0.7000000000E+06    0.6793268726E+00    0.4037599664E-03    0.2315730708E+00    0.6086854968E-04    0.4520566540E+00
    0.9000000000E+06    0.6794785172E+00    0.3574460148E-03    0.2312468133E+00    0.5307195032E-04    0.4524682110E+00
    0.1100000000E+07    0.6795760439E+00    0.3243472109E-03    0.2309835234E+00    0.4759447569E-04    0.4527917645E+00
    0.1300000000E+07    0.6796442345E+00    0.2991600733E-03    0.2307626938E+00    0.4348017939E-04    0.4530580769E+00
    0.1500000000E+07    0.6796947089E+00    0.2791542340E-03    0.2305724622E+00    0.4024626858E-04    0.4532842142E+00
    0.1700000000E+07    0.6797336482E+00    0.2627608694E-03    0.2304053415E+00    0.3761935970E-04    0.4534806195E+00
    0.1900000000E+07    0.6797646477E+00    0.2490055167E-03    0.2302563002E+00    0.3543161836E-04    0.4536541436E+00
    0.2100000000E+07    0.6797899432E+00    0.2372465220E-03    0.2301217924E+00    0.3357360002E-04    0.4538095210E+00
    0.2300000000E+07    0.6798109993E+00    0.2270417385E-03    0.2299992246E+00    0.3197051189E-04    0.4539501590E+00
    0.2500000000E+07    0.6798288161E+00    0.2180751950E-03    0.2298866421E+00    0.3056928884E-04    0.4540785903E+00
    0.2700000000E+07    0.6798441004E+00    0.2101142446E-03    0.2297825348E+00    0.2933110757E-04    0.4541967489E+00
    0.2900000000E+07    0.6798573662E+00    0.2029832634E-03    0.2296857118E+00    0.2822682721E-04    0.4543061440E+00
    0.3100000000E+07    0.6798689961E+00    0.1965468392E-03    0.2295952171E+00    0.2723409458E-04    0.4544079762E+00
    0.3300000000E+07    0.6798792814E+00    0.1906986487E-03    0.2295102719E+00    0.2633544062E-04    0.4545032160E+00
    0.3500000000E+07    0.6798884473E+00    0.1853538795E-03    0.2294302327E+00    0.2551699065E-04    0.4545926587E+00
    0.3700000000E+07    0.6798966713E+00    0.1804439355E-03    0.2293545623E+00    0.2476756749E-04    0.4546769646E+00
    0.3900000000E+07    0.6799040948E+00    0.1759126525E-03    0.2292828072E+00    0.2407805358E-04    0.4547566875E+00
    0.4100000000E+07    0.6799108320E+00    0.1717135415E-03    0.2292145810E+00    0.2344092806E-04    0.4548322965E+00
    0.4300000000E+07    0.6799169762E+00    0.1678077439E-03    0.2291495520E+00    0.2284992494E-04    0.4549041923E+00
    0.4500000000E+07    0.6799226044E+00    0.1641624920E-03    0.2290874334E+00    0.2229977650E-04    0.4549727201E+00
    0.4700000000E+07    0.6799277807E+00    0.1607499328E-03    0.2290279751E+00    0.2178601805E-04    0.4550381792E+00
    0.4900000000E+07    0.6799325589E+00    0.1575462182E-03    0.2289709581E+00    0.2130483732E-04    0.4551008309E+00
    0.1000000000E+07    0.6795320342E+00    0.3396635923E-03    0.2311088596E+00    0.5011926852E-04    0.4526386126E+00
    0.3000000000E+07    0.6798633656E+00    0.1996854563E-03    0.2296397257E+00    0.2771770626E-04    0.4543579402E+00
    0.5000000000E+07    0.6799348132E+00    0.1560161419E-03    0.2289433039E+00    0.2107542122E-04    0.4551311766E+00
    0.7000000000E+07    0.6799670771E+00    0.1326112586E-03    0.2284816135E+00    0.1759934394E-04    0.4556341148E+00
    0.9000000000E+07    0.6799857774E+00    0.1174511210E-03    0.2281355759E+00    0.1538358173E-04    0.4560070153E+00
    0.1100000000E+08    0.6799981177E+00    0.1066002140E-03    0.2278586602E+00    0.1381679262E-04    0.4563032844E+00
    0.1300000000E+08    0.6800069393E+00    0.9833564469E-04    0.2276277782E+00    0.1263508698E-04    0.4565490086E+00
    0.1500000000E+08    0.6800135980E+00    0.9176745075E-04    0.2274297755E+00    0.1170362371E-04    0.4567588891E+00
    0.1700000000E+08    0.6800188258E+00    0.8638319610E-04    0.2272564399E+00    0.1094544762E-04    0.4569420286E+00
    0.1900000000E+08    0.6800230545E+00    0.8186412946E-04    0.2271022979E+00    0.1031304875E-04    0.4571044545E+00
    0.2100000000E+08    0.6800265559E+00    0.7800014826E-04    0.2269635182E+00    0.9775315196E-05    0.4572503640E+00
    0.2300000000E+08    0.6800295101E+00    0.7464636624E-04    0.2268373134E+00    0.9310915933E-05    0.4573827968E+00
    0.2500000000E+08    0.6800320414E+00    0.7169918313E-04    0.2267215924E+00    0.8904677239E-05    0.4575040250E+00
    0.2700000000E+08    0.6800342386E+00    0.6908228398E-04    0.2266147459E+00    0.8545474183E-05    0.4576157911E+00
