  Pressure (Pa) 22mC5-400 (mol/kg) 2mC6-400 (mol/kg) 3mC6-400 (mol/kg) 33mC5-400 (mol/kg) C7-400 (mol/kg)
    0.1000000000E+01    0.1058433025E-02    0.4748262451E-02    0.5250097151E-03    0.5154983544E-03    0.5111693020E-02
    0.3000000000E+01    0.3133658945E-02    0.1381990418E-01    0.1530510091E-02    0.1500550802E-02    0.1490350325E-01
    0.5000000000E+01    0.5155693167E-02    0.2236498615E-01    0.2480973500E-02    0.2428666533E-02    0.2416171928E-01
    0.7000000000E+01    0.7127162200E-02    0.3042678514E-01    0.3381065669E-02    0.3304527162E-02    0.3293151479E-01
    0.9000000000E+01    0.9050515659E-02    0.3804390435E-01    0.4234932493E-02    0.4132308251E-02    0.4125303398E-01
    0.1100000000E+02    0.1092804111E-01    0.4525089569E-01    0.5046270782E-02    0.4915746742E-02    0.4916207576E-01
    0.1300000000E+02    0.1276187744E-01    0.5207878426E-01    0.5818387733E-02    0.5658197797E-02    0.5669066898E-01
    0.1500000000E+02    0.1455402691E-01    0.5855551265E-01    0.6554251191E-02    0.6362682926E-02    0.6386755850E-01
    0.1700000000E+02    0.1630636603E-01    0.6470631913E-01    0.7256532299E-02    0.7031930965E-02    0.7071861772E-01
    0.1900000000E+02    0.1802065544E-01    0.7055406089E-01    0.7927641865E-02    0.7668413086E-02    0.7726720038E-01
    0.2100000000E+02    0.1969854887E-01    0.7611949167E-01    0.8569761498E-02    0.8274372862E-02    0.8353444176E-01
    0.2300000000E+02    0.2134160119E-01    0.8142150095E-01    0.9184870365E-02    0.8851852176E-02    0.8953951753E-01
    0.2500000000E+02    0.2295127589E-01    0.8647732099E-01    0.9774768282E-02    0.9402713633E-02    0.9529986712E-01
    0.2700000000E+02    0.2452895174E-01    0.9130270660E-01    0.1034109570E-01    0.9928660028E-02    0.1008313871E+00
    0.2900000000E+02    0.2607592893E-01    0.9591209175E-01    0.1088535108E-01    0.1043125130E-01    0.1061485995E+00
    0.3100000000E+02    0.2759343472E-01    0.1003187266E+00    0.1140890603E-01    0.1091191935E-01    0.1112647977E+00
    0.3300000000E+02    0.2908262855E-01    0.1045347973E+00    0.1191301852E-01    0.1137198106E-01    0.1161921753E+00
    0.3500000000E+02    0.3054460672E-01    0.1085715323E+00    0.1239884455E-01    0.1181264970E-01    0.1209419378E+00
    0.3700000000E+02    0.3198040675E-01    0.1124392947E+00    0.1286744828E-01    0.1223504501E-01    0.1255244017E+00
    0.3900000000E+02    0.3339101127E-01    0.1161476651E+00    0.1331981111E-01    0.1264020216E-01    0.1299490819E+00
    0.4100000000E+02    0.3477735175E-01    0.1197055148E+00    0.1375683957E-01    0.1302907960E-01    0.1342247681E+00
    0.4300000000E+02    0.3614031176E-01    0.1231210705E+00    0.1417937244E-01    0.1340256612E-01    0.1383595936E+00
    0.4500000000E+02    0.3748073015E-01    0.1264019723E+00    0.1458818698E-01    0.1376148711E-01    0.1423610961E+00
    0.4700000000E+02    0.3879940382E-01    0.1295553254E+00    0.1498400453E-01    0.1410661016E-01    0.1462362713E+00
    0.4900000000E+02    0.4009709043E-01    0.1325877467E+00    0.1536749548E-01    0.1443865005E-01    0.1499916214E+00
    0.1000000000E+02    0.9994869868E-02    0.4169664984E-01    0.4645702503E-02    0.4529352278E-02    0.4525703047E-01
    0.3000000000E+02    0.2683829175E-01    0.9813996767E-01    0.1114963496E-01    0.1067424087E-01    0.1087310389E+00
    0.5000000000E+02    0.4073829021E-01    0.1340605523E+00    0.1555481516E-01    0.1459997387E-01    0.1518262697E+00
    0.7000000000E+02    0.5261831618E-01    0.1584645746E+00    0.1878473738E-01    0.1727966958E-01    0.1834961643E+00
    0.9000000000E+02    0.6303870922E-01    0.1757759777E+00    0.2128400185E-01    0.1919120428E-01    0.2080547612E+00
    0.1100000000E+03    0.7236122689E-01    0.1884274052E+00    0.2329444405E-01    0.2059735732E-01    0.2278504851E+00
    0.1300000000E+03    0.8083107285E-01    0.1978673836E+00    0.2495958857E-01    0.2165463922E-01    0.2442781402E+00
    0.1500000000E+03    0.8862110374E-01    0.2050113034E+00    0.2637038544E-01    0.2246199814E-01    0.2582222521E+00
    0.1700000000E+03    0.9585717974E-01    0.2104650378E+00    0.2758749459E-01    0.2308496358E-01    0.2702731882E+00
    0.1900000000E+03    0.1026334590E+00    0.2146447571E+00    0.2865307024E-01    0.2356858014E-01    0.2808414998E+00
    0.2100000000E+03    0.1090220238E+00    0.2178451665E+00    0.2959741097E-01    0.2394477311E-01    0.2902224768E+00
    0.2300000000E+03    0.1150791607E+00    0.2202803412E+00    0.3044291624E-01    0.2423675628E-01    0.2986345721E+00
    0.2500000000E+03    0.1208495855E+00    0.2221091866E+00    0.3120654604E-01    0.2446178032E-01    0.3062432994E+00
    0.2700000000E+03    0.1263693621E+00    0.2234518697E+00    0.3190140782E-01    0.2463290682E-01    0.3131766591E+00
    0.2900000000E+03    0.1316679678E+00    0.2244007437E+00    0.3253781345E-01    0.2476018798E-01    0.3195354160E+00
    0.3100000000E+03    0.1367697844E+00    0.2250277981E+00    0.3312400282E-01    0.2485147136E-01    0.3254001389E+00
    0.3300000000E+03    0.1416951943E+00    0.2253898558E+00    0.3366665132E-01    0.2491296137E-01    0.3308361398E+00
    0.3500000000E+03    0.1464614014E+00    0.2255322701E+00    0.3417123339E-01    0.2494961893E-01    0.3358970130E+00
    0.3700000000E+03    0.1510830528E+00    0.2254916025E+00    0.3464228792E-01    0.2496545091E-01    0.3406272209E+00
    0.3900000000E+03    0.1555727181E+00    0.2252975913E+00    0.3508361529E-01    0.2496372321E-01    0.3450640135E+00
    0.4100000000E+03    0.1599412615E+00    0.2249746221E+00    0.3549842599E-01    0.2494711980E-01    0.3492388770E+00
    0.4300000000E+03    0.1641981362E+00    0.2245428372E+00    0.3588945410E-01    0.2491786292E-01    0.3531786412E+00
    0.4500000000E+03    0.1683516171E+00    0.2240189860E+00    0.3625904527E-01    0.2487780517E-01    0.3569063367E+00
    0.4700000000E+03    0.1724089891E+00    0.2234170808E+00    0.3660922542E-01    0.2482850064E-01    0.3604418663E+00
    0.4900000000E+03    0.1763766985E+00    0.2227489093E+00    0.3694175529E-01    0.2477126051E-01    0.3638025367E+00
    0.1000000000E+03    0.6781978638E-01    0.1825774498E+00    0.2233975085E-01    0.1994592183E-01    0.2184452367E+00
    0.3000000000E+03    0.1342421178E+00    0.2247506407E+00    0.3283673611E-01    0.2480990843E-01    0.3225251391E+00
    0.5000000000E+03    0.1783287460E+00    0.2223931503E+00    0.3710188994E-01    0.2474001888E-01    0.3654221044E+00
    0.7000000000E+03    0.2137713995E+00    0.2135515994E+00    0.3966673234E-01    0.2389540693E-01    0.3914763760E+00
    0.9000000000E+03    0.2441850870E+00    0.2036532952E+00    0.4145863008E-01    0.2288831638E-01    0.4098225707E+00
    0.1100000000E+04    0.2710844407E+00    0.1939926238E+00    0.4281482666E-01    0.2187372558E-01    0.4237996738E+00
    0.1300000000E+04    0.2952706011E+00    0.1849233755E+00    0.4389385649E-01    0.2089953734E-01    0.4349841418E+00
    0.1500000000E+04    0.3172348986E+00    0.1765233196E+00    0.4478229090E-01    0.1998074041E-01    0.4442401232E+00
    0.1700000000E+04    0.3373117641E+00    0.1687791804E+00    0.4553232498E-01    0.1912057605E-01    0.4520904108E+00
    0.1900000000E+04    0.3557469723E+00    0.1616474785E+00    0.4617772810E-01    0.1831776339E-01    0.4588742995E+00
    0.2100000000E+04    0.3727317395E+00    0.1550765906E+00    0.4674153558E-01    0.1756927167E-01    0.4648239013E+00
    0.2300000000E+04    0.3884212478E+00    0.1490151013E+00    0.4724012140E-01    0.1687146946E-01    0.4701046485E+00
    0.2500000000E+04    0.4029453979E+00    0.1434148930E+00    0.4768551506E-01    0.1622062319E-01    0.4748383853E+00
    0.2700000000E+04    0.4164154079E+00    0.1382321161E+00    0.4808679670E-01    0.1561311627E-01    0.4791173002E+00
    0.2900000000E+04    0.4289280711E+00    0.1334272883E+00    0.4845097683E-01    0.1504554184E-01    0.4830127289E+00
    0.3100000000E+04    0.4405686310E+00    0.1289650487E+00    0.4878357275E-01    0.1451473637E-01    0.4865809328E+00
    0.3300000000E+04    0.4514128101E+00    0.1248137901E+00    0.4908899863E-01    0.1401778507E-01    0.4898670157E+00
    0.3500000000E+04    0.4615283009E+00    0.1209452672E+00    0.4937083696E-01    0.1355201400E-01    0.4929076545E+00
    0.3700000000E+04    0.4709759029E+00    0.1173342232E+00    0.4963203188E-01    0.1311497608E-01    0.4957330468E+00
    0.3900000000E+04    0.4798104198E+00    0.1139580469E+00    0.4987502990E-01    0.1270443476E-01    0.4983683309E+00
    0.4100000000E+04    0.4880813871E+00    0.1107964679E+00    0.5010188421E-01    0.1231834713E-01    0.5008346398E+00
    0.4300000000E+04    0.4958336777E+00    0.1078312868E+00    0.5031433321E-01    0.1195484749E-01    0.5031498958E+00
    0.4500000000E+04    0.5031080142E+00    0.1050461373E+00    0.5051386056E-01    0.1161223176E-01    0.5053294195E+00
    0.4700000000E+04    0.5099414096E+00    0.1024262790E+00    0.5070174173E-01    0.1128894296E-01    0.5073864017E+00
    0.4900000000E+04    0.5163675510E+00    0.9995841415E-01    0.5087908046E-01    0.1098355785E-01    0.5093322741E+00
    0.1000000000E+04    0.2580139294E+00    0.1987608645E+00    0.4217889203E-01    0.2237776211E-01    0.4172350964E+00
    0.3000000000E+04    0.4348524277E+00    0.1311554038E+00    0.4862092472E-01    0.1477573094E-01    0.4848346901E+00
    0.5000000000E+04    0.5194376028E+00    0.9877767854E-01    0.5096410160E-01    0.1083716795E-01    0.5102667091E+00
    0.7000000000E+04    0.5656029283E+00    0.8077363552E-01    0.5229016085E-01    0.8587200973E-02    0.5249847136E+00
    0.9000000000E+04    0.5933342126E+00    0.6950060365E-01    0.5317300093E-01    0.7171221965E-02    0.5349632284E+00
    0.1100000000E+05    0.6113099193E+00    0.6179810967E-01    0.5381474681E-01    0.6209289445E-02    0.5423326000E+00
    0.1300000000E+05    0.6236779648E+00    0.5618432737E-01    0.5430794315E-01    0.5516074273E-02    0.5480776586E+00
    0.1500000000E+05    0.6325969595E+00    0.5188955752E-01    0.5470189652E-01    0.4993095032E-02    0.5527274297E+00
    0.1700000000E+05    0.6392745693E+00    0.4847950371E-01    0.5502565036E-01    0.4584066418E-02    0.5565958182E+00
    0.1900000000E+05    0.6444285220E+00    0.4569212404E-01    0.5529758742E-01    0.4254807716E-02    0.5598828433E+00
    0.2100000000E+05    0.6485074244E+00    0.4336040234E-01    0.5552999124E-01    0.3983486979E-02    0.5627229963E+00
    0.2300000000E+05    0.6518037963E+00    0.4137295512E-01    0.5573142579E-01    0.3755557418E-02    0.5652105950E+00
    0.2500000000E+05    0.6545153427E+00    0.3965263341E-01    0.5590806947E-01    0.3560973834E-02    0.5674140641E+00
    0.2700000000E+05    0.6567798477E+00    0.3814426290E-01    0.5606450693E-01    0.3392584964E-02    0.5693844475E+00
    0.2900000000E+05    0.6586959097E+00    0.3680729233E-01    0.5620422142E-01    0.3245164505E-02    0.5711607243E+00
    0.3100000000E+05    0.6603357303E+00    0.3561120856E-01    0.5632991306E-01    0.3114805057E-02    0.5727732581E+00
    0.3300000000E+05    0.6617532597E+00    0.3453257788E-01    0.5644371147E-01    0.2998526568E-02    0.5742461099E+00
    0.3500000000E+05    0.6629895366E+00    0.3355307900E-01    0.5654732177E-01    0.2894016071E-02    0.5755986324E+00
    0.3700000000E+05    0.6640762775E+00    0.3265816031E-01    0.5664212740E-01    0.2799450246E-02    0.5768465972E+00
    0.3900000000E+05    0.6650383446E+00    0.3183610179E-01    0.5672926405E-01    0.2713371716E-02    0.5780030067E+00
    0.4100000000E+05    0.6658954777E+00    0.3107734576E-01    0.5680967383E-01    0.2634601047E-02    0.5790786923E+00
    0.4300000000E+05    0.6666635315E+00    0.3037401046E-01    0.5688414565E-01    0.2562173004E-02    0.5800827608E+00
    0.4500000000E+05    0.6673553741E+00    0.2971953049E-01    0.5695334573E-01    0.2495289606E-02    0.5810229336E+00
    0.4700000000E+05    0.6679815502E+00    0.2910838703E-01    0.5701784108E-01    0.2433285051E-02    0.5819058072E+00
    0.4900000000E+05    0.6685507761E+00    0.2853590246E-01    0.5707811761E-01    0.2375599135E-02    0.5827370566E+00
    0.1000000000E+05    0.6032168601E+00    0.6531925726E-01    0.5351678020E-01    0.6647921603E-02    0.5388972987E+00
    0.3000000000E+05    0.6595466236E+00    0.3619324333E-01    0.5626867559E-01    0.3178056597E-02    0.5719858290E+00
    0.5000000000E+05    0.6688163509E+00    0.2826288582E-01    0.5710680709E-01    0.2348224362E-02    0.5831348836E+00
    0.7000000000E+05    0.6723957172E+00    0.2411020943E-01    0.5753598287E-01    0.1942687597E-02    0.5892883462E+00
    0.9000000000E+05    0.6742644927E+00    0.2143183927E-01    0.5780113023E-01    0.1691867371E-02    0.5933449217E+00
    0.1100000000E+06    0.6754055213E+00    0.1951334296E-01    0.5798221144E-01    0.1517277309E-02    0.5962846000E+00
    0.1300000000E+06    0.6761724517E+00    0.1804876396E-01    0.5811389687E-01    0.1386780960E-02    0.5985449475E+00
    0.1500000000E+06    0.6767225348E+00    0.1688162238E-01    0.5821387928E-01    0.1284482489E-02    0.6003551767E+00
    0.1700000000E+06    0.6771360056E+00    0.1592221869E-01    0.5829221185E-01    0.1201503272E-02    0.6018486902E+00
    0.1900000000E+06    0.6774579784E+00    0.1511485153E-01    0.5835506230E-01    0.1132443537E-02    0.6031091863E+00
    0.2100000000E+06    0.6777157257E+00    0.1442281347E-01    0.5840643944E-01    0.1073805377E-02    0.6041922307E+00
    0.2300000000E+06    0.6779266863E+00    0.1382077551E-01    0.5844906900E-01    0.1023209789E-02    0.6051363758E+00
    0.2500000000E+06    0.6781025228E+00    0.1329060656E-01    0.5848487272E-01    0.9789747858E-03    0.6059693343E+00
    0.2700000000E+06    0.6782513261E+00    0.1281893277E-01    0.5851524642E-01    0.9398729826E-03    0.6067116158E+00
    0.2900000000E+06    0.6783788832E+00    0.1239563963E-01    0.5854122956E-01    0.9049848751E-03    0.6073787731E+00
    0.3100000000E+06    0.6784894415E+00    0.1201291405E-01    0.5856361278E-01    0.8736061438E-03    0.6079828467E+00
    0.3300000000E+06    0.6785861884E+00    0.1166461027E-01    0.5858300850E-01    0.8451869427E-03    0.6085333252E+00
    0.3500000000E+06    0.6786715621E+00    0.1134581728E-01    0.5859989869E-01    0.8192908960E-03    0.6090378029E+00
    0.3700000000E+06    0.6787474591E+00    0.1105255633E-01    0.5861466795E-01    0.7955666606E-03    0.6095024408E+00
    0.3900000000E+06    0.6788153767E+00    0.1078156446E-01    0.5862762700E-01    0.7737277422E-03    0.6099322975E+00
    0.4100000000E+06    0.6788765129E+00    0.1053013657E-01    0.5863902962E-01    0.7535378751E-03    0.6103315715E+00
    0.4300000000E+06    0.6789318371E+00    0.1029600818E-01    0.5864908514E-01    0.7348002399E-03    0.6107037804E+00
    0.4500000000E+06    0.6789821426E+00    0.1007726701E-01    0.5865796777E-01    0.7173493814E-03    0.6110518975E+00
    0.4700000000E+06    0.6790280844E+00    0.9872285393E-02    0.5866582363E-01    0.7010450626E-03    0.6113784556E+00
    0.4900000000E+06    0.6790702085E+00    0.9679667859E-02    0.5867277624E-01    0.6857675300E-03    0.6116856277E+00
    0.1000000000E+06    0.6748968413E+00    0.2040183121E-01    0.5789943524E-01    0.1597613610E-02    0.5949200008E+00
    0.3000000000E+06    0.6784360674E+00    0.1219962324E-01    0.5855282935E-01    0.8888942679E-03    0.6076880514E+00
    0.5000000000E+06    0.6790899851E+00    0.9587612755E-02    0.5867594728E-01    0.6784810608E-03    0.6118325405E+00
    0.7000000000E+06    0.6793655556E+00    0.8174406481E-02    0.5871074247E-01    0.5678611296E-03    0.6140981232E+00
    0.9000000000E+06    0.6795178750E+00    0.7253841869E-02    0.5871655408E-01    0.4971099642E-03    0.6155866578E+00
    0.1100000000E+07    0.6796147291E+00    0.6592408692E-02    0.5871026642E-01    0.4469547087E-03    0.6166643967E+00
    0.1300000000E+07    0.6796818619E+00    0.6087206980E-02    0.5869832984E-01    0.4090525379E-03    0.6174933480E+00
    0.1500000000E+07    0.6797312022E+00    0.5684828177E-02    0.5868364532E-01    0.3791299364E-03    0.6181578778E+00
    0.1700000000E+07    0.6797690386E+00    0.5354405792E-02    0.5866765764E-01    0.3547428225E-03    0.6187068924E+00
    0.1900000000E+07    0.6797990030E+00    0.5076682735E-02    0.5865113585E-01    0.3343795643E-03    0.6191709911E+00
    0.2100000000E+07    0.6798233404E+00    0.4838934656E-02    0.5863450709E-01    0.3170487247E-03    0.6195704482E+00
    0.2300000000E+07    0.6798435142E+00    0.4632368703E-02    0.5861801406E-01    0.3020696260E-03    0.6199193108E+00
    0.2500000000E+07    0.6798605191E+00    0.4450686426E-02    0.5860179518E-01    0.2889574899E-03    0.6202276662E+00
    0.2700000000E+07    0.6798750554E+00    0.4289241049E-02    0.5858592778E-01    0.2773565120E-03    0.6205029750E+00
    0.2900000000E+07    0.6798876306E+00    0.4144518716E-02    0.5857045242E-01    0.2669988995E-03    0.6207508919E+00
    0.3100000000E+07    0.6798986212E+00    0.4013806045E-02    0.5855538722E-01    0.2576787540E-03    0.6209757938E+00
    0.3300000000E+07    0.6799083129E+00    0.3894969720E-02    0.5854073643E-01    0.2492348373E-03    0.6211811295E+00
    0.3500000000E+07    0.6799169262E+00    0.3786306037E-02    0.5852649575E-01    0.2415388565E-03    0.6213696592E+00
    0.3700000000E+07    0.6799246344E+00    0.3686435586E-02    0.5851265572E-01    0.2344872965E-03    0.6215436227E+00
    0.3900000000E+07    0.6799315750E+00    0.3594227886E-02    0.5849920379E-01    0.2279955964E-03    0.6217048591E+00
    0.4100000000E+07    0.6799378590E+00    0.3508746388E-02    0.5848612575E-01    0.2219939144E-03    0.6218548954E+00
    0.4300000000E+07    0.6799435770E+00    0.3429207654E-02    0.5847340660E-01    0.2164239943E-03    0.6219950113E+00
    0.4500000000E+07    0.6799488034E+00    0.3354950568E-02    0.5846103111E-01    0.2112368093E-03    0.6221262889E+00
    0.4700000000E+07    0.6799536001E+00    0.3285412800E-02    0.5844898425E-01    0.2063907663E-03    0.6222496502E+00
    0.4900000000E+07    0.6799580190E+00    0.3220112586E-02    0.5843725133E-01    0.2018503187E-03    0.6223658868E+00
    0.1000000000E+07    0.6795711389E+00    0.6898840072E-02    0.5871439495E-01    0.4701177046E-03    0.6161641261E+00
    0.3000000000E+07    0.6798933043E+00    0.4077556069E-02    0.5856286803E-01    0.2622201091E-03    0.6208659857E+00
    0.5000000000E+07    0.6799601007E+00    0.3188919461E-02    0.5843149816E-01    0.1996849666E-03    0.6224215508E+00
    0.7000000000E+07    0.6799896487E+00    0.2711302712E-02    0.5832983020E-01    0.1668331909E-03    0.6232866587E+00
    0.9000000000E+07    0.6800065200E+00    0.2401498986E-02    0.5824739102E-01    0.1458540765E-03    0.6238635033E+00
    0.1100000000E+08    0.6800175208E+00    0.2179570654E-02    0.5817807709E-01    0.1310037581E-03    0.6242865887E+00
    0.1300000000E+08    0.6800253064E+00    0.2010447172E-02    0.5811825189E-01    0.1197956962E-03    0.6246157838E+00
    0.1500000000E+08    0.6800311326E+00    0.1875987166E-02    0.5806560110E-01    0.1109569883E-03    0.6248824533E+00
    0.1700000000E+08    0.6800356723E+00    0.1765734366E-02    0.5801856578E-01    0.1037602407E-03    0.6251048831E+00
    0.1900000000E+08    0.6800393197E+00    0.1673179699E-02    0.5797604687E-01    0.9775595349E-04    0.6252945761E+00
    0.2100000000E+08    0.6800423216E+00    0.1594030213E-02    0.5793724060E-01    0.9264955594E-04    0.6254591932E+00
    0.2300000000E+08    0.6800448404E+00    0.1525324091E-02    0.5790154133E-01    0.8823896672E-04    0.6256040679E+00
    0.2500000000E+08    0.6800469878E+00    0.1464942679E-02    0.5786848126E-01    0.8438036878E-04    0.6257330485E+00
    0.2700000000E+08    0.6800488431E+00    0.1411324809E-02    0.5783769144E-01    0.8096827895E-04    0.6258489935E+00
