  Pressure (Pa) 22mC5-400 (mol/kg) 2mC6-400 (mol/kg) 3mC6-400 (mol/kg) 33mC5-400 (mol/kg) C7-400 (mol/kg)
    0.1000000000E+01    0.1060063642E-02    0.3177696076E-02    0.2635068102E-02    0.5174740343E-03    0.1710372940E-02
    0.3000000000E+01    0.3147886427E-02    0.9317317460E-02    0.7738043638E-02    0.1517416371E-02    0.5023089673E-02
    0.5000000000E+01    0.5194027374E-02    0.1518452715E-01    0.1263034637E-01    0.2473164846E-02    0.8199646531E-02
    0.7000000000E+01    0.7200078269E-02    0.2079631553E-01    0.1732551258E-01    0.3387476868E-02    0.1124878020E-01
    0.9000000000E+01    0.9167547897E-02    0.2616827607E-01    0.2183592824E-01    0.4262882927E-02    0.1417848549E-01
    0.1100000000E+02    0.1109786744E-01    0.3131474773E-01    0.2617294920E-01    0.5101709741E-02    0.1699609273E-01
    0.1300000000E+02    0.1299239548E-01    0.3624894009E-01    0.3034700656E-01    0.5906100605E-02    0.1970833579E-01
    0.1500000000E+02    0.1485242255E-01    0.4098304370E-01    0.3436769933E-01    0.6678033328E-02    0.2232141176E-01
    0.1700000000E+02    0.1667917545E-01    0.4552832764E-01    0.3824387617E-01    0.7419336081E-02    0.2484103371E-01
    0.1900000000E+02    0.1847382115E-01    0.4989522587E-01    0.4198370768E-01    0.8131701445E-02    0.2727247721E-01
    0.2100000000E+02    0.2023747043E-01    0.5409341409E-01    0.4559475041E-01    0.8816698890E-02    0.2962062173E-01
    0.2300000000E+02    0.2197118127E-01    0.5813187807E-01    0.4908400383E-01    0.9475785883E-02    0.3188998727E-01
    0.2500000000E+02    0.2367596204E-01    0.6201897472E-01    0.5245796097E-01    0.1011031781E-01    0.3408476705E-01
    0.2700000000E+02    0.2535277431E-01    0.6576248673E-01    0.5572265366E-01    0.1072155686E-01    0.3620885672E-01
    0.2900000000E+02    0.2700253567E-01    0.6936967147E-01    0.5888369305E-01    0.1131067995E-01    0.3826588044E-01
    0.3100000000E+02    0.2862612219E-01    0.7284730506E-01    0.6194630580E-01    0.1187878590E-01    0.4025921426E-01
    0.3300000000E+02    0.3022437080E-01    0.7620172192E-01    0.6491536670E-01    0.1242690186E-01    0.4219200715E-01
    0.3500000000E+02    0.3179808147E-01    0.7943885055E-01    0.6779542797E-01    0.1295598910E-01    0.4406719987E-01
    0.3700000000E+02    0.3334801927E-01    0.8256424574E-01    0.7059074565E-01    0.1346694827E-01    0.4588754204E-01
    0.3900000000E+02    0.3487491626E-01    0.8558311784E-01    0.7330530350E-01    0.1396062412E-01    0.4765560750E-01
    0.4100000000E+02    0.3637947330E-01    0.8850035926E-01    0.7594283454E-01    0.1443780984E-01    0.4937380828E-01
    0.4300000000E+02    0.3786236169E-01    0.9132056849E-01    0.7850684061E-01    0.1489925092E-01    0.5104440716E-01
    0.4500000000E+02    0.3932422477E-01    0.9404807207E-01    0.8100061015E-01    0.1534564875E-01    0.5266952915E-01
    0.4700000000E+02    0.4076567937E-01    0.9668694445E-01    0.8342723431E-01    0.1577766383E-01    0.5425117189E-01
    0.4900000000E+02    0.4218731716E-01    0.9924102629E-01    0.8578962160E-01    0.1619591874E-01    0.5579121512E-01
    0.1000000000E+02    0.1013726487E-01    0.2876884731E-01    0.2402544058E-01    0.4686730706E-02    0.1560086725E-01
    0.3000000000E+02    0.2781754758E-01    0.7112427634E-01    0.6042699019E-01    0.1159729426E-01    0.3927030669E-01
    0.5000000000E+02    0.4289088310E-01    0.1004874111E+00    0.8694758873E-01    0.1640007098E-01    0.5654619425E-01
    0.7000000000E+02    0.5604846366E-01    0.1217433406E+00    0.1073219539E+00    0.1988709324E-01    0.6984154166E-01
    0.9000000000E+02    0.6774861318E-01    0.1376100494E+00    0.1235915492E+00    0.2249890100E-01    0.8047616370E-01
    0.1100000000E+03    0.7830824136E-01    0.1497227799E+00    0.1369704398E+00    0.2450051133E-01    0.8923542852E-01
    0.1300000000E+03    0.8795414047E-01    0.1591245964E+00    0.1482281672E+00    0.2606097861E-01    0.9661743528E-01
    0.1500000000E+03    0.9685334182E-01    0.1665118021E+00    0.1578775099E+00    0.2729317755E-01    0.1029542771E+00
    0.1700000000E+03    0.1051318977E+00    0.1723664885E+00    0.1662741962E+00    0.2827528227E-01    0.1084764639E+00
    0.1900000000E+03    0.1128869473E+00    0.1770325843E+00    0.1736733239E+00    0.2906308637E-01    0.1133493877E+00
    0.2100000000E+03    0.1201947213E+00    0.1807616775E+00    0.1802629809E+00    0.2969742484E-01    0.1176950602E+00
    0.2300000000E+03    0.1271160029E+00    0.1837417686E+00    0.1861851619E+00    0.3020883062E-01    0.1216056412E+00
    0.2500000000E+03    0.1336999446E+00    0.1861159392E+00    0.1915492646E+00    0.3062055798E-01    0.1251521709E+00
    0.2700000000E+03    0.1399867948E+00    0.1879948346E+00    0.1964410757E+00    0.3095060385E-01    0.1283903855E+00
    0.2900000000E+03    0.1460098822E+00    0.1894652224E+00    0.2009289177E+00    0.3121309393E-01    0.1313646973E+00
    0.3100000000E+03    0.1517970861E+00    0.1905959936E+00    0.2050679560E+00    0.3141925462E-01    0.1341109837E+00
    0.3300000000E+03    0.1573719411E+00    0.1914424524E+00    0.2089032792E+00    0.3157810787E-01    0.1366585832E+00
    0.3500000000E+03    0.1627544807E+00    0.1920494370E+00    0.2124721458E+00    0.3169697680E-01    0.1390317509E+00
    0.3700000000E+03    0.1679618882E+00    0.1924536260E+00    0.2158056487E+00    0.3178185937E-01    0.1412507381E+00
    0.3900000000E+03    0.1730090051E+00    0.1926852660E+00    0.2189299683E+00    0.3183770845E-01    0.1433326046E+00
    0.4100000000E+03    0.1779087333E+00    0.1927694833E+00    0.2218673282E+00    0.3186864440E-01    0.1452918388E+00
    0.4300000000E+03    0.1826723552E+00    0.1927272906E+00    0.2246367341E+00    0.3187811838E-01    0.1471408366E+00
    0.4500000000E+03    0.1873097911E+00    0.1925763687E+00    0.2272545500E+00    0.3186903908E-01    0.1488902763E+00
    0.4700000000E+03    0.1918298088E+00    0.1923316782E+00    0.2297349543E+00    0.3184387208E-01    0.1505494139E+00
    0.4900000000E+03    0.1962401944E+00    0.1920059441E+00    0.2320903027E+00    0.3180471840E-01    0.1521263192E+00
    0.1000000000E+03    0.7315513431E-01    0.1440602214E+00    0.1305866104E+00    0.2356375435E-01    0.8505415509E-01
    0.3000000000E+03    0.1489314078E+00    0.1900693264E+00    0.2030390128E+00    0.3132260660E-01    0.1327643760E+00
    0.5000000000E+03    0.1984064750E+00    0.1918161475E+00    0.2332245168E+00    0.3178046914E-01    0.1528861797E+00
    0.7000000000E+03    0.2373267037E+00    0.1857137730E+00    0.2513813498E+00    0.3088489058E-01    0.1650989689E+00
    0.9000000000E+03    0.2700998304E+00    0.1778239095E+00    0.2640511704E+00    0.2964611211E-01    0.1736828640E+00
    0.1100000000E+04    0.2986054774E+00    0.1697651623E+00    0.2736337995E+00    0.2834366946E-01    0.1802148738E+00
    0.1300000000E+04    0.3238489353E+00    0.1620521744E+00    0.2812573938E+00    0.2707226593E-01    0.1854391664E+00
    0.1500000000E+04    0.3464528556E+00    0.1548474853E+00    0.2875367028E+00    0.2586599303E-01    0.1897626302E+00
    0.1700000000E+04    0.3668445259E+00    0.1481850993E+00    0.2928414448E+00    0.2473583928E-01    0.1934307304E+00
    0.1900000000E+04    0.3853395104E+00    0.1420491942E+00    0.2974102682E+00    0.2368318858E-01    0.1966023631E+00
    0.2100000000E+04    0.4021834916E+00    0.1364050283E+00    0.3014056396E+00    0.2270529076E-01    0.1993859871E+00
    0.2300000000E+04    0.4175751179E+00    0.1312119363E+00    0.3049428534E+00    0.2179766976E-01    0.2018587604E+00
    0.2500000000E+04    0.4316794132E+00    0.1264289700E+00    0.3081065009E+00    0.2095524400E-01    0.2040774248E+00
    0.2700000000E+04    0.4446361564E+00    0.1220173180E+00    0.3109603662E+00    0.2017286362E-01    0.2060848589E+00
    0.2900000000E+04    0.4565654184E+00    0.1179412496E+00    0.3135536548E+00    0.1944556798E-01    0.2079142091E+00
    0.3100000000E+04    0.4675714091E+00    0.1141683678E+00    0.3159250677E+00    0.1876870332E-01    0.2095915970E+00
    0.3300000000E+04    0.4777452719E+00    0.1106695390E+00    0.3181055541E+00    0.1813796854E-01    0.2111379512E+00
    0.3500000000E+04    0.4871671931E+00    0.1074186793E+00    0.3201202240E+00    0.1754942344E-01    0.2125702819E+00
    0.3700000000E+04    0.4959080462E+00    0.1043924861E+00    0.3219897093E+00    0.1699947769E-01    0.2139025894E+00
    0.3900000000E+04    0.5040307092E+00    0.1015701582E+00    0.3237311530E+00    0.1648487021E-01    0.2151465258E+00
    0.4100000000E+04    0.5115911411E+00    0.9893312584E-01    0.3253589417E+00    0.1600264443E-01    0.2163118849E+00
    0.4300000000E+04    0.5186392770E+00    0.9646480179E-01    0.3268852571E+00    0.1555012234E-01    0.2174069719E+00
    0.4500000000E+04    0.5252197832E+00    0.9415035454E-01    0.3283204970E+00    0.1512487900E-01    0.2184388862E+00
    0.4700000000E+04    0.5313726987E+00    0.9197650632E-01    0.3296736018E+00    0.1472471833E-01    0.2194137406E+00
    0.4900000000E+04    0.5371339859E+00    0.8993135362E-01    0.3309523096E+00    0.1434765059E-01    0.2203368330E+00
    0.1000000000E+04    0.2848108710E+00    0.1737707354E+00    0.2691408190E+00    0.2899476065E-01    0.1771476516E+00
    0.3000000000E+04    0.4621778474E+00    0.1160188057E+00    0.3147650054E+00    0.1910110909E-01    0.2087704857E+00
    0.5000000000E+04    0.5398780108E+00    0.8895365466E-01    0.3315659048E+00    0.1416720610E-01    0.2207804354E+00
    0.7000000000E+04    0.5805323292E+00    0.7407431147E-01    0.3411887852E+00    0.1141349466E-01    0.2277986129E+00
    0.9000000000E+04    0.6044884902E+00    0.6471732042E-01    0.3476629650E+00    0.9688543178E-02    0.2325966679E+00
    0.1100000000E+05    0.6198944739E+00    0.5825269668E-01    0.3524133922E+00    0.8511302106E-02    0.2361659411E+00
    0.1300000000E+05    0.6304705956E+00    0.5347866708E-01    0.3560954462E+00    0.7655472809E-02    0.2389664447E+00
    0.1500000000E+05    0.6381026699E+00    0.4977795387E-01    0.3590598390E+00    0.7003093311E-02    0.2412462129E+00
    0.1700000000E+05    0.6438296087E+00    0.4680317565E-01    0.3615140130E+00    0.6487359220E-02    0.2431529443E+00
    0.1900000000E+05    0.6482633098E+00    0.4434424315E-01    0.3635897824E+00    0.6067828978E-02    0.2447810664E+00
    0.2100000000E+05    0.6517842922E+00    0.4226656055E-01    0.3653755534E+00    0.5718657852E-02    0.2461942698E+00
    0.2300000000E+05    0.6546400356E+00    0.4047976068E-01    0.3669331786E+00    0.5422576801E-02    0.2474373512E+00
    0.2500000000E+05    0.6569976425E+00    0.3892077974E-01    0.3683074309E+00    0.5167610299E-02    0.2485428988E+00
    0.2700000000E+05    0.6589735825E+00    0.3754416227E-01    0.3695316398E+00    0.4945189365E-02    0.2495352867E+00
    0.2900000000E+05    0.6606512721E+00    0.3631623653E-01    0.3706312056E+00    0.4749016453E-02    0.2504331736E+00
    0.3100000000E+05    0.6620918770E+00    0.3521146976E-01    0.3716258762E+00    0.4574355547E-02    0.2512511283E+00
    0.3300000000E+05    0.6633411779E+00    0.3421010637E-01    0.3725312711E+00    0.4417572984E-02    0.2520007217E+00
    0.3500000000E+05    0.6644340649E+00    0.3329658989E-01    0.3733599309E+00    0.4275831564E-02    0.2526912805E+00
    0.3700000000E+05    0.6653975579E+00    0.3245848031E-01    0.3741220574E+00    0.4146881443E-02    0.2533304210E+00
    0.3900000000E+05    0.6662528824E+00    0.3168569338E-01    0.3748260471E+00    0.4028913860E-02    0.2539244350E+00
    0.4100000000E+05    0.6670169277E+00    0.3096995506E-01    0.3754788829E+00    0.3920456714E-02    0.2544785737E+00
    0.4300000000E+05    0.6677032887E+00    0.3030440266E-01    0.3760864263E+00    0.3820298616E-02    0.2549972603E+00
    0.4500000000E+05    0.6683230237E+00    0.2968328854E-01    0.3766536395E+00    0.3727432760E-02    0.2554842519E+00
    0.4700000000E+05    0.6688852141E+00    0.2910175641E-01    0.3771847550E+00    0.3641014785E-02    0.2559427640E+00
    0.4900000000E+05    0.6693973830E+00    0.2855567028E-01    0.3776834088E+00    0.3560330732E-02    0.2563755672E+00
    0.1000000000E+05    0.6129664601E+00    0.6121812967E-01    0.3502025073E+00    0.9049190615E-02    0.2344990867E+00
    0.3000000000E+05    0.6613980498E+00    0.3574980694E-01    0.3711405940E+00    0.4659245775E-02    0.2508513592E+00
    0.5000000000E+05    0.6696367140E+00    0.2829479070E-01    0.3779215617E+00    0.3521945278E-02    0.2565830914E+00
    0.7000000000E+05    0.6728890079E+00    0.2429205131E-01    0.3815591917E+00    0.2945838803E-02    0.2598288355E+00
    0.9000000000E+05    0.6746105762E+00    0.2167810143E-01    0.3839007845E+00    0.2582452349E-02    0.2620121281E+00
    0.1100000000E+06    0.6756715367E+00    0.1979165268E-01    0.3855622912E+00    0.2326351111E-02    0.2636213566E+00
    0.1300000000E+06    0.6763893895E+00    0.1834420197E-01    0.3868155746E+00    0.2133281847E-02    0.2648771521E+00
    0.1500000000E+06    0.6769068049E+00    0.1718641775E-01    0.3878015995E+00    0.1980973782E-02    0.2658962477E+00
    0.1700000000E+06    0.6772971780E+00    0.1623197690E-01    0.3886016501E+00    0.1856827919E-02    0.2667471844E+00
    0.1900000000E+06    0.6776020499E+00    0.1542694020E-01    0.3892662888E+00    0.1753106337E-02    0.2674733092E+00
    0.2100000000E+06    0.6778466686E+00    0.1473558998E-01    0.3898288143E+00    0.1664757343E-02    0.2681036102E+00
    0.2300000000E+06    0.6780472512E+00    0.1413318524E-01    0.3903121547E+00    0.1588323337E-02    0.2686583361E+00
    0.2500000000E+06    0.6782146843E+00    0.1360195987E-01    0.3907326728E+00    0.1521346863E-02    0.2691521347E+00
    0.2700000000E+06    0.6783565451E+00    0.1312877454E-01    0.3911023951E+00    0.1462026672E-02    0.2695959111E+00
    0.2900000000E+06    0.6784782683E+00    0.1270366974E-01    0.3914303812E+00    0.1409008198E-02    0.2699979812E+00
    0.3100000000E+06    0.6785838527E+00    0.1231893716E-01    0.3917235999E+00    0.1361250445E-02    0.2703648175E+00
    0.3300000000E+06    0.6786763051E+00    0.1196850306E-01    0.3919875093E+00    0.1317938375E-02    0.2707015468E+00
    0.3500000000E+06    0.6787579301E+00    0.1164750674E-01    0.3922264516E+00    0.1278423490E-02    0.2710122921E+00
    0.3700000000E+06    0.6788305234E+00    0.1135200485E-01    0.3924439292E+00    0.1242182467E-02    0.2713004141E+00
    0.3900000000E+06    0.6788955046E+00    0.1107875957E-01    0.3926428016E+00    0.1208787699E-02    0.2715686846E+00
    0.4100000000E+06    0.6789540111E+00    0.1082508369E-01    0.3928254289E+00    0.1177885893E-02    0.2718194138E+00
    0.4300000000E+06    0.6790069644E+00    0.1058872545E-01    0.3929937778E+00    0.1149182246E-02    0.2720545457E+00
    0.4500000000E+06    0.6790551193E+00    0.1036778156E-01    0.3931495021E+00    0.1122428551E-02    0.2722757299E+00
    0.4700000000E+06    0.6790990999E+00    0.1016063064E-01    0.3932940032E+00    0.1097414134E-02    0.2724843770E+00
    0.4900000000E+06    0.6791394263E+00    0.9965881511E-02    0.3934284774E+00    0.1073958860E-02    0.2726817021E+00
    0.1000000000E+06    0.6751975534E+00    0.2066669534E-01    0.3847951302E+00    0.2444511560E-02    0.2628712197E+00
    0.3000000000E+06    0.6785328706E+00    0.1250666915E-01    0.3915809653E+00    0.1384527164E-02    0.2701854562E+00
    0.5000000000E+06    0.6791583587E+00    0.9872775681E-02    0.3934922814E+00    0.1062766588E-02    0.2727764535E+00
    0.7000000000E+06    0.6794220307E+00    0.8440791224E-02    0.3944293015E+00    0.8924125906E-03    0.2742720092E+00
    0.9000000000E+06    0.6795674615E+00    0.7505218553E-02    0.3949880246E+00    0.7830203177E-03    0.2752961747E+00
    0.1100000000E+07    0.6796596698E+00    0.6831562759E-02    0.3953573555E+00    0.7052601521E-03    0.2760632949E+00
    0.1300000000E+07    0.6797233833E+00    0.6316165899E-02    0.3956175326E+00    0.6463757716E-03    0.2766706598E+00
    0.1500000000E+07    0.6797700618E+00    0.5905105132E-02    0.3958088386E+00    0.5998117477E-03    0.2771700471E+00
    0.1700000000E+07    0.6798057442E+00    0.5567162279E-02    0.3959538456E+00    0.5618098503E-03    0.2775920479E+00
    0.1900000000E+07    0.6798339151E+00    0.5282833017E-02    0.3960662315E+00    0.5300411946E-03    0.2779561302E+00
    0.2100000000E+07    0.6798567264E+00    0.5039214072E-02    0.3961547860E+00    0.5029759104E-03    0.2782753932E+00
    0.2300000000E+07    0.6798755791E+00    0.4827379635E-02    0.3962254226E+00    0.4795622450E-03    0.2785590422E+00
    0.2500000000E+07    0.6798914246E+00    0.4640930134E-02    0.3962822685E+00    0.4590502707E-03    0.2788137747E+00
    0.2700000000E+07    0.6799049318E+00    0.4475140304E-02    0.3963282931E+00    0.4408890134E-03    0.2790446053E+00
    0.2900000000E+07    0.6799165845E+00    0.4326434281E-02    0.3963656869E+00    0.4246634097E-03    0.2792553785E+00
    0.3100000000E+07    0.6799267417E+00    0.4192048932E-02    0.3963961007E+00    0.4100540675E-03    0.2794491024E+00
    0.3300000000E+07    0.6799356752E+00    0.4069810472E-02    0.3964208022E+00    0.3968106849E-03    0.2796281717E+00
    0.3500000000E+07    0.6799435944E+00    0.3957981880E-02    0.3964407800E+00    0.3847339675E-03    0.2797945216E+00
    0.3700000000E+07    0.6799506637E+00    0.3855156016E-02    0.3964568163E+00    0.3736630101E-03    0.2799497371E+00
    0.3900000000E+07    0.6799570135E+00    0.3760179097E-02    0.3964695373E+00    0.3634662930E-03    0.2800951311E+00
    0.4100000000E+07    0.6799627490E+00    0.3672094825E-02    0.3964794504E+00    0.3540351307E-03    0.2802318031E+00
    0.4300000000E+07    0.6799679557E+00    0.3590102882E-02    0.3964869703E+00    0.3452788201E-03    0.2803606820E+00
    0.4500000000E+07    0.6799727038E+00    0.3513527630E-02    0.3964924391E+00    0.3371209917E-03    0.2804825594E+00
    0.4700000000E+07    0.6799770518E+00    0.3441794157E-02    0.3964961413E+00    0.3294968260E-03    0.2805981150E+00
    0.4900000000E+07    0.6799810484E+00    0.3374409735E-02    0.3964983154E+00    0.3223509029E-03    0.2807079364E+00
    0.1000000000E+07    0.6796182051E+00    0.7143811355E-02    0.3951899835E+00    0.7411941460E-03    0.2757042572E+00
    0.3000000000E+07    0.6799218314E+00    0.4257599137E-02    0.3963816795E+00    0.4171737247E-03    0.2793542097E+00
    0.5000000000E+07    0.6799829281E+00    0.3342213269E-02    0.3964988935E+00    0.3189421123E-03    0.2807608592E+00
    0.7000000000E+07    0.6800093539E+00    0.2848572925E-02    0.3964655932E+00    0.2671515994E-03    0.2816135675E+00
    0.9000000000E+07    0.6800241616E+00    0.2527652133E-02    0.3963926988E+00    0.2339988895E-03    0.2822183103E+00
    0.1100000000E+08    0.6800336594E+00    0.2297366473E-02    0.3963084994E+00    0.2104890075E-03    0.2826837593E+00
    0.1300000000E+08    0.6800402829E+00    0.2121632044E-02    0.3962224576E+00    0.1927195838E-03    0.2830605329E+00
    0.1500000000E+08    0.6800451731E+00    0.1981754593E-02    0.3961381340E+00    0.1786896290E-03    0.2833761509E+00
    0.1700000000E+08    0.6800489365E+00    0.1866945617E-02    0.3960568871E+00    0.1672541522E-03    0.2836471711E+00
    0.1900000000E+08    0.6800519252E+00    0.1770482055E-02    0.3959791650E+00    0.1577047941E-03    0.2838842996E+00
    0.2100000000E+08    0.6800543584E+00    0.1687925707E-02    0.3959050197E+00    0.1495768903E-03    0.2840948431E+00
    0.2300000000E+08    0.6800563791E+00    0.1616212034E-02    0.3958343285E+00    0.1425513966E-03    0.2842840017E+00
    0.2500000000E+08    0.6800580851E+00    0.1553147286E-02    0.3957668970E+00    0.1364010798E-03    0.2844556029E+00
    0.2700000000E+08    0.6800595455E+00    0.1497113883E-02    0.3957025064E+00    0.1309591586E-03    0.2846125429E+00
