  Pressure (Pa) 22mC5-400 (mol/kg) 2mC6-400 (mol/kg) 3mC6-400 (mol/kg) 33mC5-400 (mol/kg) C7-400 (mol/kg)
    0.1000000000E+01    0.1059514898E-02    0.3933817774E-02    0.1562904309E-02    0.2562705331E-03    0.1014508223E-01
    0.3000000000E+01    0.3143086530E-02    0.1132519899E-01    0.4490061163E-02    0.7380176279E-03    0.2915164395E-01
    0.5000000000E+01    0.5181063489E-02    0.1814592011E-01    0.7180084988E-02    0.1182876229E-02    0.4662569696E-01
    0.7000000000E+01    0.7175362276E-02    0.2446230946E-01    0.9661542005E-02    0.1595143305E-02    0.6275158174E-01
    0.9000000000E+01    0.9127789429E-02    0.3033044794E-01    0.1195855367E-01    0.1978450369E-02    0.7768497769E-01
    0.1100000000E+02    0.1104004939E-01    0.3579809991E-01    0.1409163070E-01    0.2335889072E-02    0.9155827869E-01
    0.1300000000E+02    0.1291375171E-01    0.4090622168E-01    0.1607832595E-01    0.2670109294E-02    0.1044848015E+00
    0.1500000000E+02    0.1475041763E-01    0.4569015183E-01    0.1793375049E-01    0.2983396523E-02    0.1165621123E+00
    0.1700000000E+02    0.1655148616E-01    0.5018055889E-01    0.1967098512E-01    0.3277733443E-02    0.1278746805E+00
    0.1900000000E+02    0.1831831961E-01    0.5440420234E-01    0.2130141135E-01    0.3554849371E-02    0.1384960116E+00
    0.2100000000E+02    0.2005220871E-01    0.5838454851E-01    0.2283497954E-01    0.3816260257E-02    0.1484903774E+00
    0.2300000000E+02    0.2175437731E-01    0.6214227263E-01    0.2428042781E-01    0.4063301288E-02    0.1579142269E+00
    0.2500000000E+02    0.2342598672E-01    0.6569567110E-01    0.2564546189E-01    0.4297153632E-02    0.1668173462E+00
    0.2700000000E+02    0.2506813972E-01    0.6906100198E-01    0.2693690381E-01    0.4518866544E-02    0.1752438179E+00
    0.2900000000E+02    0.2668188422E-01    0.7225276815E-01    0.2816081557E-01    0.4729375722E-02    0.1832328187E+00
    0.3100000000E+02    0.2826821673E-01    0.7528395388E-01    0.2932260262E-01    0.4929518656E-02    0.1908192866E+00
    0.3300000000E+02    0.2982808549E-01    0.7816622386E-01    0.3042710077E-01    0.5120047523E-02    0.1980344822E+00
    0.3500000000E+02    0.3136239340E-01    0.8091009119E-01    0.3147864971E-01    0.5301640073E-02    0.2049064625E+00
    0.3700000000E+02    0.3287200075E-01    0.8352506005E-01    0.3248115535E-01    0.5474908877E-02    0.2114604830E+00
    0.3900000000E+02    0.3435772773E-01    0.8601974743E-01    0.3343814296E-01    0.5640409200E-02    0.2177193416E+00
    0.4100000000E+02    0.3582035681E-01    0.8840198724E-01    0.3435280275E-01    0.5798645753E-02    0.2237036716E+00
    0.4300000000E+02    0.3726063486E-01    0.9067892004E-01    0.3522802893E-01    0.5950078489E-02    0.2294321944E+00
    0.4500000000E+02    0.3867927525E-01    0.9285707035E-01    0.3606645348E-01    0.6095127613E-02    0.2349219374E+00
    0.4700000000E+02    0.4007695970E-01    0.9494241377E-01    0.3687047540E-01    0.6234177918E-02    0.2401884228E+00
    0.4900000000E+02    0.4145434005E-01    0.9694043531E-01    0.3764228606E-01    0.6367582560E-02    0.2452458312E+00
    0.1000000000E+02    0.1008883757E-01    0.3311163070E-01    0.1304442426E-01    0.2160228289E-02    0.8474665336E-01
    0.3000000000E+02    0.2747841662E-01    0.7378767570E-01    0.2874916001E-01    0.4830694096E-02    0.1870743352E+00
    0.5000000000E+02    0.4213561213E-01    0.9790829295E-01    0.3801674571E-01    0.6432270285E-02    0.2477002317E+00
    0.7000000000E+02    0.5483325520E-01    0.1137153038E+00    0.4422183815E-01    0.7496199007E-02    0.2884464188E+00
    0.9000000000E+02    0.6606780257E-01    0.1246747209E+00    0.4871506710E-01    0.8245574643E-02    0.3180586089E+00
    0.1100000000E+03    0.7617406544E-01    0.1325387555E+00    0.5214669647E-01    0.8793185394E-02    0.3407529984E+00
    0.1300000000E+03    0.8538688903E-01    0.1383023021E+00    0.5487035968E-01    0.9203141388E-02    0.3588254356E+00
    0.1500000000E+03    0.9387642626E-01    0.1425769931E+00    0.5709582590E-01    0.9514928305E-02    0.3736394977E+00
    0.1700000000E+03    0.1017693572E+00    0.1457611891E+00    0.5895591311E-01    0.9754325374E-02    0.3860596222E+00
    0.1900000000E+03    0.1091622044E+00    0.1481259798E+00    0.6053910198E-01    0.9938925726E-02    0.3966623830E+00
    0.2100000000E+03    0.1161299933E+00    0.1498623250E+00    0.6190678800E-01    0.1008116217E-01    0.4058483378E+00
    0.2300000000E+03    0.1227320605E+00    0.1511085513E+00    0.6310301947E-01    0.1019007259E-01    0.4139052075E+00
    0.2500000000E+03    0.1290160550E+00    0.1519672013E+00    0.6416029205E-01    0.1027238261E-01    0.4210454993E+00
    0.2700000000E+03    0.1350207596E+00    0.1525157860E+00    0.6510315138E-01    0.1033319698E-01    0.4274299149E+00
    0.2900000000E+03    0.1407781223E+00    0.1528138786E+00    0.6595051722E-01    0.1037645631E-01    0.4331824637E+00
    0.3100000000E+03    0.1463147456E+00    0.1529079300E+00    0.6671723123E-01    0.1040524752E-01    0.4384005333E+00
    0.3300000000E+03    0.1516529977E+00    0.1528346180E+00    0.6741511619E-01    0.1042202012E-01    0.4431617875E+00
    0.3500000000E+03    0.1568118524E+00    0.1526232275E+00    0.6805371864E-01    0.1042874004E-01    0.4475290055E+00
    0.3700000000E+03    0.1618075337E+00    0.1522973713E+00    0.6864084051E-01    0.1042700117E-01    0.4515535483E+00
    0.3900000000E+03    0.1666540167E+00    0.1518762576E+00    0.6918292699E-01    0.1041810761E-01    0.4552778905E+00
    0.4100000000E+03    0.1713634202E+00    0.1513756354E+00    0.6968535439E-01    0.1040313513E-01    0.4587374991E+00
    0.4300000000E+03    0.1759463192E+00    0.1508085097E+00    0.7015264682E-01    0.1038297777E-01    0.4619622498E+00
    0.4500000000E+03    0.1804119938E+00    0.1501856889E+00    0.7058864172E-01    0.1035838360E-01    0.4649775097E+00
    0.4700000000E+03    0.1847686319E+00    0.1495162086E+00    0.7099661783E-01    0.1032998246E-01    0.4678049742E+00
    0.4900000000E+03    0.1890234930E+00    0.1488076624E+00    0.7137939523E-01    0.1029830764E-01    0.4704633221E+00
    0.1000000000E+03    0.7124545170E-01    0.1289195848E+00    0.5053694200E-01    0.8539829468E-02    0.3300976443E+00
    0.3000000000E+03    0.1435725400E+00    0.1528839197E+00    0.6634315596E-01    0.1039249444E-01    0.4358530569E+00
    0.5000000000E+03    0.1911148057E+00    0.1484407838E+00    0.7156211008E-01    0.1028138716E-01    0.4717342194E+00
    0.7000000000E+03    0.2288521157E+00    0.1401760735E+00    0.7434343606E-01    0.9851967234E-02    0.4912621710E+00
    0.9000000000E+03    0.2608758955E+00    0.1315565374E+00    0.7612181431E-01    0.9356193161E-02    0.5039742495E+00
    0.1100000000E+04    0.2889166966E+00    0.1233728872E+00    0.7737645717E-01    0.8860242534E-02    0.5130868603E+00
    0.1300000000E+04    0.3138959144E+00    0.1158138587E+00    0.7831827235E-01    0.8385358423E-02    0.5200275326E+00
    0.1500000000E+04    0.3363826015E+00    0.1088965886E+00    0.7905621963E-01    0.7938489701E-02    0.5255394197E+00
    0.1700000000E+04    0.3567667833E+00    0.1025849277E+00    0.7965289627E-01    0.7521267998E-02    0.5300525055E+00
    0.1900000000E+04    0.3753366844E+00    0.9682753448E-01    0.8014710305E-01    0.7133166509E-02    0.5338351034E+00
    0.2100000000E+04    0.3923172544E+00    0.9157121562E-01    0.8056430725E-01    0.6772759346E-02    0.5370644471E+00
    0.2300000000E+04    0.4078911100E+00    0.8676566963E-01    0.8092198966E-01    0.6438270065E-02    0.5398629319E+00
    0.2500000000E+04    0.4222107469E+00    0.8236500914E-01    0.8123258888E-01    0.6127825566E-02    0.5423181599E+00
    0.2700000000E+04    0.4354061069E+00    0.7832802971E-01    0.8150522166E-01    0.5839577732E-02    0.5444947004E+00
    0.2900000000E+04    0.4475895301E+00    0.7461799374E-01    0.8174673778E-01    0.5571761789E-02    0.5464413314E+00
    0.3100000000E+04    0.4588591640E+00    0.7120224353E-01    0.8196239331E-01    0.5322722811E-02    0.5481956795E+00
    0.3300000000E+04    0.4693014185E+00    0.6805177414E-01    0.8215629531E-01    0.5090925609E-02    0.5497872957E+00
    0.3500000000E+04    0.4789928095E+00    0.6514081960E-01    0.8233170401E-01    0.4874955729E-02    0.5512397540E+00
    0.3700000000E+04    0.4880013905E+00    0.6244647300E-01    0.8249124355E-01    0.4673515693E-02    0.5525721202E+00
    0.3900000000E+04    0.4963878996E+00    0.5994834626E-01    0.8263705216E-01    0.4485418777E-02    0.5538000018E+00
    0.4100000000E+04    0.5042066990E+00    0.5762826924E-01    0.8277089132E-01    0.4309581604E-02    0.5549363144E+00
    0.4300000000E+04    0.5115065598E+00    0.5547002533E-01    0.8289422641E-01    0.4145016318E-02    0.5559918499E+00
    0.4500000000E+04    0.5183313275E+00    0.5345911986E-01    0.8300828740E-01    0.3990822772E-02    0.5569757047E+00
    0.4700000000E+04    0.5247204915E+00    0.5158257747E-01    0.8311411493E-01    0.3846180985E-02    0.5578956075E+00
    0.4900000000E+04    0.5307096784E+00    0.4982876484E-01    0.8321259595E-01    0.3710344013E-02    0.5587581720E+00
    0.1000000000E+04    0.2753251555E+00    0.1273919568E+00    0.7679797026E-01    0.9106396281E-02    0.5088681562E+00
    0.3000000000E+04    0.4533329190E+00    0.7287522635E-01    0.8185751858E-01    0.5444993977E-02    0.5473405329E+00
    0.5000000000E+04    0.5335644639E+00    0.4899457520E-01    0.8325932364E-01    0.3645512236E-02    0.5591697640E+00
    0.7000000000E+04    0.5760072988E+00    0.3671947361E-01    0.8394654144E-01    0.2675306813E-02    0.5654343468E+00
    0.9000000000E+04    0.6011117866E+00    0.2954580169E-01    0.8435905496E-01    0.2095505810E-02    0.5694586364E+00
    0.1100000000E+05    0.6172680177E+00    0.2493390598E-01    0.8463470565E-01    0.1719405687E-02    0.5723225192E+00
    0.1300000000E+05    0.6283528417E+00    0.2174975283E-01    0.8483162840E-01    0.1459480517E-02    0.5744950139E+00
    0.1500000000E+05    0.6363431011E+00    0.1942854269E-01    0.8497887544E-01    0.1270757593E-02    0.5762166859E+00
    0.1700000000E+05    0.6423309576E+00    0.1766330374E-01    0.8509267868E-01    0.1128273003E-02    0.5776252104E+00
    0.1900000000E+05    0.6469604292E+00    0.1627505121E-01    0.8518285730E-01    0.1017258065E-02    0.5788057814E+00
    0.2100000000E+05    0.6506321045E+00    0.1515327978E-01    0.8525571658E-01    0.9285034107E-03    0.5798143048E+00
    0.2300000000E+05    0.6536064372E+00    0.1422646243E-01    0.8531549843E-01    0.8560087083E-03    0.5806891859E+00
    0.2500000000E+05    0.6560591810E+00    0.1344643455E-01    0.8536516535E-01    0.7957171804E-03    0.5814577961E+00
    0.2700000000E+05    0.6581127382E+00    0.1277965872E-01    0.8540685083E-01    0.7447983004E-03    0.5821402403E+00
    0.2900000000E+05    0.6598546963E+00    0.1220210318E-01    0.8544213130E-01    0.7012228742E-03    0.5827516632E+00
    0.3100000000E+05    0.6613492189E+00    0.1169611536E-01    0.8547219722E-01    0.6635015396E-03    0.5833037200E+00
    0.3300000000E+05    0.6626442849E+00    0.1124844511E-01    0.8549796462E-01    0.6305183962E-03    0.5838055468E+00
    0.3500000000E+05    0.6637764256E+00    0.1084895600E-01    0.8552014991E-01    0.6014220233E-03    0.5842644204E+00
    0.3700000000E+05    0.6647739052E+00    0.1048976211E-01    0.8553932144E-01    0.5755522246E-03    0.5846862183E+00
    0.3900000000E+05    0.6656589074E+00    0.1016463586E-01    0.8555593583E-01    0.5523896426E-03    0.5850757475E+00
    0.4100000000E+05    0.6664490682E+00    0.9868592895E-02    0.8557036408E-01    0.5315203846E-03    0.5854369822E+00
    0.4300000000E+05    0.6671585720E+00    0.9597595484E-02    0.8558291068E-01    0.5126107234E-03    0.5857732416E+00
    0.4500000000E+05    0.6677989477E+00    0.9348336871E-02    0.8559382781E-01    0.4953886982E-03    0.5860873221E+00
    0.4700000000E+05    0.6683796558E+00    0.9118081987E-02    0.8560332605E-01    0.4796305285E-03    0.5863815988E+00
    0.4900000000E+05    0.6689085279E+00    0.8904548101E-02    0.8561158256E-01    0.4651504432E-03    0.5866581040E+00
    0.1000000000E+05    0.6100029220E+00    0.2700966481E-01    0.8450935846E-01    0.1888872745E-02    0.5709985504E+00
    0.3000000000E+05    0.6606295739E+00    0.1194107695E-01    0.8545775341E-01    0.6817074500E-03    0.5830344913E+00
    0.5000000000E+05    0.6691556108E+00    0.8803439110E-02    0.8561529298E-01    0.4583400845E-03    0.5867902489E+00
    0.7000000000E+05    0.6725104276E+00    0.7320279464E-02    0.8565096102E-01    0.3620905333E-03    0.5888207554E+00
    0.9000000000E+05    0.6742852799E+00    0.6413412559E-02    0.8564876394E-01    0.3068782432E-03    0.5901489534E+00
    0.1100000000E+06    0.6753797462E+00    0.5784696931E-02    0.8563167018E-01    0.2703205200E-03    0.5911089489E+00
    0.1300000000E+06    0.6761211458E+00    0.5315189340E-02    0.8560815252E-01    0.2439502775E-03    0.5918470619E+00
    0.1500000000E+06    0.6766563268E+00    0.4946924799E-02    0.8558188769E-01    0.2238200346E-03    0.5924389966E+00
    0.1700000000E+06    0.6770607688E+00    0.4647819316E-02    0.8555463480E-01    0.2078241244E-03    0.5929284416E+00
    0.1900000000E+06    0.6773771757E+00    0.4398471431E-02    0.8552728586E-01    0.1947282717E-03    0.5933426436E+00
    0.2100000000E+06    0.6776315006E+00    0.4186358871E-02    0.8550030591E-01    0.1837566957E-03    0.5936996125E+00
    0.2300000000E+06    0.6778404155E+00    0.4002984542E-02    0.8547393666E-01    0.1743948776E-03    0.5940118043E+00
    0.2500000000E+06    0.6780151162E+00    0.3842349289E-02    0.8544829784E-01    0.1662867080E-03    0.5942881522E+00
    0.2700000000E+06    0.6781633979E+00    0.3700078772E-02    0.8542344062E-01    0.1591770237E-03    0.5945352564E+00
    0.2900000000E+06    0.6782908547E+00    0.3572897005E-02    0.8539937710E-01    0.1528776648E-03    0.5947581162E+00
    0.3100000000E+06    0.6784016048E+00    0.3458294686E-02    0.8537609698E-01    0.1472464842E-03    0.5949605990E+00
    0.3300000000E+06    0.6784987470E+00    0.3354312428E-02    0.8535357747E-01    0.1421738557E-03    0.5951457510E+00
    0.3500000000E+06    0.6785846576E+00    0.3259394592E-02    0.8533178904E-01    0.1375737142E-03    0.5953160100E+00
    0.3700000000E+06    0.6786611895E+00    0.3172288021E-02    0.8531069899E-01    0.1333774334E-03    0.5954733537E+00
    0.3900000000E+06    0.6787298088E+00    0.3091970235E-02    0.8529027354E-01    0.1295295395E-03    0.5956194061E+00
    0.4100000000E+06    0.6787916905E+00    0.3017597440E-02    0.8527047915E-01    0.1259846435E-03    0.5957555156E+00
    0.4300000000E+06    0.6788477877E+00    0.2948466206E-02    0.8525128322E-01    0.1227052047E-03    0.5958828126E+00
    0.4500000000E+06    0.6788988815E+00    0.2883984742E-02    0.8523265453E-01    0.1196598704E-03    0.5960022528E+00
    0.4700000000E+06    0.6789456180E+00    0.2823651055E-02    0.8521456346E-01    0.1168222254E-03    0.5961146511E+00
    0.4900000000E+06    0.6789885365E+00    0.2767036126E-02    0.8519698209E-01    0.1141698369E-03    0.5962207069E+00
    0.1000000000E+06    0.6748906623E+00    0.6073843670E-02    0.8564137980E-01    0.2869564806E-03    0.5906634367E+00
    0.3000000000E+06    0.6783481046E+00    0.3514156784E-02    0.8538764033E-01    0.1499860440E-03    0.5948616980E+00
    0.5000000000E+06    0.6790087086E+00    0.2740005790E-02    0.8518837428E-01    0.1129070072E-03    0.5962715486E+00
    0.7000000000E+06    0.6792915263E+00    0.2327131533E-02    0.8503745430E-01    0.9390128441E-04    0.5970667708E+00
    0.9000000000E+06    0.6794496007E+00    0.2060167449E-02    0.8491637563E-01    0.8189688363E-04    0.5976034013E+00
    0.1100000000E+07    0.6795510126E+00    0.1869246800E-02    0.8481524526E-01    0.7345177492E-04    0.5980010706E+00
    0.1300000000E+07    0.6796218379E+00    0.1723900842E-02    0.8472835996E-01    0.6710297739E-04    0.5983133012E+00
    0.1500000000E+07    0.6796742394E+00    0.1608422676E-02    0.8465215618E-01    0.6210984524E-04    0.5985682740E+00
    0.1700000000E+07    0.6797146647E+00    0.1513779179E-02    0.8458426227E-01    0.5805228867E-04    0.5987824972E+00
    0.1900000000E+07    0.6797468551E+00    0.1434355795E-02    0.8452302057E-01    0.5467209595E-04    0.5989664030E+00
    0.2100000000E+07    0.6797731332E+00    0.1366453667E-02    0.8446722674E-01    0.5180073293E-04    0.5991269687E+00
    0.2300000000E+07    0.6797950187E+00    0.1307523021E-02    0.8441597801E-01    0.4932294308E-04    0.5992690720E+00
    0.2500000000E+07    0.6798135486E+00    0.1255741151E-02    0.8436858006E-01    0.4715690546E-04    0.5993962456E+00
    0.2700000000E+07    0.6798294551E+00    0.1209765675E-02    0.8432448722E-01    0.4524273048E-04    0.5995111233E+00
    0.2900000000E+07    0.6798432704E+00    0.1168583032E-02    0.8428326282E-01    0.4353544750E-04    0.5996157172E+00
    0.3100000000E+07    0.6798553908E+00    0.1131411593E-02    0.8424455183E-01    0.4200054953E-04    0.5997115961E+00
    0.3300000000E+07    0.6798661176E+00    0.1097637553E-02    0.8420806167E-01    0.4061106191E-04    0.5998000051E+00
    0.3500000000E+07    0.6798756841E+00    0.1066771228E-02    0.8417354832E-01    0.3934555519E-04    0.5998819474E+00
    0.3700000000E+07    0.6798842738E+00    0.1038416523E-02    0.8414080612E-01    0.3818676274E-04    0.5999582426E+00
    0.3900000000E+07    0.6798920331E+00    0.1012249101E-02    0.8410966009E-01    0.3712059720E-04    0.6000295679E+00
    0.4100000000E+07    0.6798990803E+00    0.9880004754E-03    0.8407996009E-01    0.3613543652E-04    0.6000964889E+00
    0.4300000000E+07    0.6799055119E+00    0.9654462149E-03    0.8405157635E-01    0.3522159649E-04    0.6001594827E+00
    0.4500000000E+07    0.6799114077E+00    0.9443970553E-03    0.8402439590E-01    0.3437093485E-04    0.6002189548E+00
    0.4700000000E+07    0.6799168340E+00    0.9246921120E-03    0.8399831979E-01    0.3357654986E-04    0.6002752528E+00
    0.4900000000E+07    0.6799218465E+00    0.9061936287E-03    0.8397326086E-01    0.3283254780E-04    0.6003286767E+00
    0.1000000000E+07    0.6795052700E+00    0.1957607118E-02    0.8486373975E-01    0.7734555749E-04    0.5978154068E+00
    0.3000000000E+07    0.6798495218E+00    0.1149537618E-02    0.8426361272E-01    0.4274828596E-04    0.5996646617E+00
    0.5000000000E+07    0.6799242126E+00    0.8973590546E-03    0.8396108837E-01    0.3247782874E-04    0.6003543936E+00
    0.7000000000E+07    0.6799581858E+00    0.7622411087E-03    0.8375621503E-01    0.2710374041E-04    0.6007662488E+00
    0.9000000000E+07    0.6799780017E+00    0.6747485321E-03    0.8360084283E-01    0.2367902336E-04    0.6010554969E+00
    0.1100000000E+08    0.6799911509E+00    0.6121442028E-03    0.8347554398E-01    0.2125803332E-04    0.6012765339E+00
    0.1300000000E+08    0.6800005976E+00    0.5644747595E-03    0.8337049506E-01    0.1943254938E-04    0.6014544611E+00
    0.1500000000E+08    0.6800077600E+00    0.5265993074E-03    0.8328002643E-01    0.1799398849E-04    0.6016028288E+00
    0.1700000000E+08    0.6800134064E+00    0.4955581016E-03    0.8320056446E-01    0.1682331986E-04    0.6017297432E+00
    0.1900000000E+08    0.6800179910E+00    0.4695103210E-03    0.8312970968E-01    0.1584706470E-04    0.6018404209E+00
    0.2100000000E+08    0.6800218005E+00    0.4472427554E-03    0.8306577216E-01    0.1501711072E-04    0.6019384070E+00
    0.2300000000E+08    0.6800250251E+00    0.4279188821E-03    0.8300751641E-01    0.1430047483E-04    0.6020262160E+00
    0.2500000000E+08    0.6800277967E+00    0.4109406218E-03    0.8295401155E-01    0.1367369730E-04    0.6021056926E+00
    0.2700000000E+08    0.6800302095E+00    0.3958674636E-03    0.8290453866E-01    0.1311958009E-04    0.6021782287E+00
