  Pressure (Pa) 22mC5-400 (mol/kg) 2mC6-400 (mol/kg) 3mC6-400 (mol/kg) 33mC5-400 (mol/kg) C7-400 (mol/kg)
    0.1000000000E+01    0.1062516765E-02    0.7900515543E-03    0.1568352691E-02    0.5146846237E-03    0.1018031427E-01
    0.3000000000E+01    0.3169505324E-02    0.2292615403E-02    0.4535005185E-02    0.1494019995E-02    0.2944232025E-01
    0.5000000000E+01    0.5252845144E-02    0.3700804062E-02    0.7294900359E-02    0.2412482597E-02    0.4736838050E-01
    0.7000000000E+01    0.7313017622E-02    0.5024116845E-02    0.9869149421E-02    0.3276225523E-02    0.6409469121E-01
    0.9000000000E+01    0.9350490803E-02    0.6270778836E-02    0.1227607635E-01    0.4090573725E-02    0.7973948107E-01
    0.1100000000E+02    0.1136571983E-01    0.7447947926E-02    0.1453166352E-01    0.4860158819E-02    0.9440588240E-01
    0.1300000000E+02    0.1335914741E-01    0.8561882881E-02    0.1664991441E-01    0.5589028497E-02    0.1081842687E+00
    0.1500000000E+02    0.1533120420E-01    0.9618080732E-02    0.1864315098E-01    0.6280735940E-02    0.1211541710E+00
    0.1700000000E+02    0.1728230925E-01    0.1062138979E-01    0.2052225897E-01    0.6938413351E-02    0.1333858580E+00
    0.1900000000E+02    0.1921287038E-01    0.1157610317E-01    0.2229689136E-01    0.7564832794E-02    0.1449416488E+00
    0.2100000000E+02    0.2112328453E-01    0.1248603667E-01    0.2397563836E-01    0.8162456823E-02    0.1558770073E+00
    0.2300000000E+02    0.2301393818E-01    0.1335459387E-01    0.2556616986E-01    0.8733480817E-02    0.1662414611E+00
    0.2500000000E+02    0.2488520764E-01    0.1418482090E-01    0.2707535565E-01    0.9279868588E-02    0.1760793766E+00
    0.2700000000E+02    0.2673745940E-01    0.1497945276E-01    0.2850936724E-01    0.9803382441E-02    0.1854306150E+00
    0.2900000000E+02    0.2857105045E-01    0.1574095256E-01    0.2987376451E-01    0.1030560869E-01    0.1943310912E+00
    0.3100000000E+02    0.3038632861E-01    0.1647154503E-01    0.3117356974E-01    0.1078797940E-01    0.2028132514E+00
    0.3300000000E+02    0.3218363277E-01    0.1717324514E-01    0.3241333119E-01    0.1125179097E-01    0.2109064825E+00
    0.3500000000E+02    0.3396329324E-01    0.1784788273E-01    0.3359717782E-01    0.1169822012E-01    0.2186374657E+00
    0.3700000000E+02    0.3572563196E-01    0.1849712372E-01    0.3472886659E-01    0.1212833767E-01    0.2260304809E+00
    0.3900000000E+02    0.3747096282E-01    0.1912248851E-01    0.3581182353E-01    0.1254312041E-01    0.2331076720E+00
    0.4100000000E+02    0.3919959187E-01    0.1972536787E-01    0.3684917946E-01    0.1294346146E-01    0.2398892771E+00
    0.4300000000E+02    0.4091181759E-01    0.2030703689E-01    0.3784380115E-01    0.1333017929E-01    0.2463938298E+00
    0.4500000000E+02    0.4260793109E-01    0.2086866705E-01    0.3879831870E-01    0.1370402554E-01    0.2526383354E+00
    0.4700000000E+02    0.4428821639E-01    0.2141133689E-01    0.3971514947E-01    0.1406569192E-01    0.2586384255E+00
    0.4900000000E+02    0.4595295059E-01    0.2193604134E-01    0.4059651921E-01    0.1441581625E-01    0.2644084945E+00
    0.1000000000E+02    0.1036085788E-01    0.6867639490E-02    0.1342186958E-01    0.4480696128E-02    0.8718905719E-01
    0.3000000000E+02    0.2948095725E-01    0.1610998167E-01    0.3053144643E-01    0.1054919198E-01    0.1986225568E+00
    0.5000000000E+02    0.4677957079E-01    0.2219194664E-01    0.4102455400E-01    0.1458673606E-01    0.2672114610E+00
    0.7000000000E+02    0.6255809802E-01    0.2655712405E-01    0.4814595454E-01    0.1752100325E-01    0.3139274593E+00
    0.9000000000E+02    0.7705281479E-01    0.2984823545E-01    0.5331144873E-01    0.1976331982E-01    0.3479323016E+00
    0.1100000000E+03    0.9045164141E-01    0.3240423097E-01    0.5723869427E-01    0.2153006077E-01    0.3738755558E+00
    0.1300000000E+03    0.1029059824E+00    0.3442600927E-01    0.6033095815E-01    0.2294935889E-01    0.3943730159E+00
    0.1500000000E+03    0.1145392479E+00    0.3604305242E-01    0.6283262702E-01    0.2410384021E-01    0.4110117735E+00
    0.1700000000E+03    0.1254530919E+00    0.3734411832E-01    0.6490062827E-01    0.2505023596E-01    0.4248121462E+00
    0.1900000000E+03    0.1357320517E+00    0.3839292991E-01    0.6664045328E-01    0.2582937624E-01    0.4364608304E+00
    0.2100000000E+03    0.1454470454E+00    0.3923688574E-01    0.6812570362E-01    0.2647172455E-01    0.4464374977E+00
    0.2300000000E+03    0.1546580437E+00    0.3991222995E-01    0.6940933777E-01    0.2700065685E-01    0.4550876901E+00
    0.2500000000E+03    0.1634161343E+00    0.4044729341E-01    0.7053046227E-01    0.2743451496E-01    0.4626668660E+00
    0.2700000000E+03    0.1717651348E+00    0.4086461952E-01    0.7151860148E-01    0.2778795273E-01    0.4693681140E+00
    0.2900000000E+03    0.1797428646E+00    0.4118241180E-01    0.7239647593E-01    0.2807285284E-01    0.4753401976E+00
    0.3100000000E+03    0.1873821580E+00    0.4141555124E-01    0.7318186455E-01    0.2829897145E-01    0.4806996593E+00
    0.3300000000E+03    0.1947116771E+00    0.4157633040E-01    0.7388888525E-01    0.2847440387E-01    0.4855391495E+00
    0.3500000000E+03    0.2017565703E+00    0.4167499528E-01    0.7452889583E-01    0.2860592866E-01    0.4899332901E+00
    0.3700000000E+03    0.2085390087E+00    0.4172015302E-01    0.7511114049E-01    0.2869926697E-01    0.4939428857E+00
    0.3900000000E+03    0.2150786267E+00    0.4171908372E-01    0.7564322221E-01    0.2875928123E-01    0.4976180023E+00
    0.4100000000E+03    0.2213928860E+00    0.4167798262E-01    0.7613145346E-01    0.2879012972E-01    0.5010002544E+00
    0.4300000000E+03    0.2274973778E+00    0.4160215031E-01    0.7658112032E-01    0.2879538826E-01    0.5041245297E+00
    0.4500000000E+03    0.2334060762E+00    0.4149614401E-01    0.7699668415E-01    0.2877814717E-01    0.5070203051E+00
    0.4700000000E+03    0.2391315504E+00    0.4136389902E-01    0.7738193723E-01    0.2874108924E-01    0.5097126651E+00
    0.4900000000E+03    0.2446851444E+00    0.4120882705E-01    0.7774012440E-01    0.2868655310E-01    0.5122230969E+00
    0.1000000000E+03    0.8387900881E-01    0.3120336926E-01    0.5539970227E-01    0.2069672739E-01    0.3617161265E+00
    0.3000000000E+03    0.1836029351E+00    0.4130874129E-01    0.7279977484E-01    0.2819271947E-01    0.4780902339E+00
    0.5000000000E+03    0.2474007341E+00    0.4112367401E-01    0.7790995662E-01    0.2865338035E-01    0.5134159779E+00
    0.7000000000E+03    0.2947368753E+00    0.3876949530E-01    0.8039549725E-01    0.2745399080E-01    0.5311092706E+00
    0.9000000000E+03    0.3323730640E+00    0.3595247872E-01    0.8187362782E-01    0.2579476803E-01    0.5419235474E+00
    0.1100000000E+04    0.3634566725E+00    0.3317722729E-01    0.8285543737E-01    0.2406122785E-01    0.5492966468E+00
    0.1300000000E+04    0.3897409889E+00    0.3060377919E-01    0.8355513888E-01    0.2239359247E-01    0.5546850877E+00
    0.1500000000E+04    0.4123269503E+00    0.2827389988E-01    0.8407875820E-01    0.2084231163E-01    0.5588172596E+00
    0.1700000000E+04    0.4319653523E+00    0.2618549578E-01    0.8448493795E-01    0.1942133861E-01    0.5621000784E+00
    0.1900000000E+04    0.4491987732E+00    0.2432043824E-01    0.8480881156E-01    0.1812910860E-01    0.5647797146E+00
    0.2100000000E+04    0.4644359127E+00    0.2265575836E-01    0.8507273921E-01    0.1695757836E-01    0.5670143365E+00
    0.2300000000E+04    0.4779940837E+00    0.2116827136E-01    0.8529164252E-01    0.1589634125E-01    0.5689104800E+00
    0.2500000000E+04    0.4901252896E+00    0.1983642450E-01    0.8547586689E-01    0.1493454533E-01    0.5705426843E+00
    0.2700000000E+04    0.5010331825E+00    0.1864092608E-01    0.8563281433E-01    0.1406177580E-01    0.5719647597E+00
    0.2900000000E+04    0.5108846245E+00    0.1756483525E-01    0.8576792254E-01    0.1326843200E-01    0.5732165843E+00
    0.3100000000E+04    0.5198178750E+00    0.1659342172E-01    0.8588527688E-01    0.1254585355E-01    0.5743283778E+00
    0.3300000000E+04    0.5279485711E+00    0.1571393923E-01    0.8598800667E-01    0.1188632317E-01    0.5753234843E+00
    0.3500000000E+04    0.5353742054E+00    0.1491537934E-01    0.8607854963E-01    0.1128301134E-01    0.5762202405E+00
    0.3700000000E+04    0.5421775483E+00    0.1418823584E-01    0.8615883301E-01    0.1072989661E-01    0.5770332626E+00
    0.3900000000E+04    0.5484293072E+00    0.1352429176E-01    0.8623040059E-01    0.1022167914E-01    0.5777743532E+00
    0.4100000000E+04    0.5541902209E+00    0.1291643255E-01    0.8629450353E-01    0.9753696138E-02    0.5784531541E+00
    0.4300000000E+04    0.5595127306E+00    0.1235848508E-01    0.8635216650E-01    0.9321843469E-02    0.5790776241E+00
    0.4500000000E+04    0.5644423240E+00    0.1184508018E-01    0.8640423666E-01    0.8922504959E-02    0.5796543943E+00
    0.4700000000E+04    0.5690186282E+00    0.1137153588E-01    0.8645142048E-01    0.8552489843E-02    0.5801890371E+00
    0.4900000000E+04    0.5732763034E+00    0.1093375858E-01    0.8649431168E-01    0.8208977938E-02    0.5806862712E+00
    0.1000000000E+04    0.3486036812E+00    0.3454540699E-01    0.8240947164E-01    0.2492539955E-01    0.5459242947E+00
    0.3000000000E+04    0.5154583247E+00    0.1706688407E-01    0.8582860455E-01    0.1289880107E-01    0.5737883902E+00
    0.5000000000E+04    0.5752953123E+00    0.1072714332E-01    0.8651430769E-01    0.8046368841E-02    0.5809221413E+00
    0.7000000000E+04    0.6046659701E+00    0.7802089254E-02    0.8677811248E-01    0.5711321779E-02    0.5844000383E+00
    0.9000000000E+04    0.6216956332E+00    0.6185317404E-02    0.8690214214E-01    0.4396767463E-02    0.5865225417E+00
    0.1100000000E+05    0.6326710265E+00    0.5177464943E-02    0.8696467318E-01    0.3572393456E-02    0.5879799000E+00
    0.1300000000E+05    0.6402774803E+00    0.4494211931E-02    0.8699567043E-01    0.3014241340E-02    0.5890563064E+00
    0.1500000000E+05    0.6458345113E+00    0.4001794576E-02    0.8700888704E-01    0.2614300549E-02    0.5898918227E+00
    0.1700000000E+05    0.6500594820E+00    0.3630122423E-02    0.8701142528E-01    0.2315017775E-02    0.5905641127E+00
    0.1900000000E+05    0.6533733325E+00    0.3339321624E-02    0.8700726983E-01    0.2083276610E-02    0.5911200038E+00
    0.2100000000E+05    0.6560382463E+00    0.3105193719E-02    0.8699879740E-01    0.1898827698E-02    0.5915895599E+00
    0.2300000000E+05    0.6582255284E+00    0.2912268486E-02    0.8698749352E-01    0.1748665195E-02    0.5919930499E+00
    0.2500000000E+05    0.6600515813E+00    0.2750223464E-02    0.8697432123E-01    0.1624089787E-02    0.5923446844E+00
    0.2700000000E+05    0.6615981304E+00    0.2611920402E-02    0.8695992311E-01    0.1519081386E-02    0.5926547521E+00
    0.2900000000E+05    0.6629241647E+00    0.2492271260E-02    0.8694473788E-01    0.1429351783E-02    0.5929309045E+00
    0.3100000000E+05    0.6640732842E+00    0.2387553976E-02    0.8692907052E-01    0.1351769511E-02    0.5931789625E+00
    0.3300000000E+05    0.6650783838E+00    0.2294983815E-02    0.8691313601E-01    0.1283997872E-02    0.5934034418E+00
    0.3500000000E+05    0.6659647316E+00    0.2212435977E-02    0.8689708747E-01    0.1224259886E-02    0.5936079054E+00
    0.3700000000E+05    0.6667520476E+00    0.2138260885E-02    0.8688103466E-01    0.1171181412E-02    0.5937952063E+00
    0.3900000000E+05    0.6674559393E+00    0.2071158089E-02    0.8686505653E-01    0.1123683884E-02    0.5939676595E+00
    0.4100000000E+05    0.6680889167E+00    0.2010088222E-02    0.8684920981E-01    0.1080909373E-02    0.5941271654E+00
    0.4300000000E+05    0.6686611202E+00    0.1954210304E-02    0.8683353501E-01    0.1042167213E-02    0.5942753001E+00
    0.4500000000E+05    0.6691808545E+00    0.1902836287E-02    0.8681806075E-01    0.1006895322E-02    0.5944133835E+00
    0.4700000000E+05    0.6696549843E+00    0.1855397552E-02    0.8680280680E-01    0.9746317238E-03    0.5945425303E+00
    0.4900000000E+05    0.6700892320E+00    0.1811419860E-02    0.8678778633E-01    0.9449932825E-03    0.5946636890E+00
    0.1000000000E+05    0.6277256757E+00    0.5628262158E-02    0.8693865224E-01    0.3941276163E-02    0.5873116277E+00
    0.3000000000E+05    0.6635185741E+00    0.2438238338E-02    0.8693694931E-01    0.1389203674E-02    0.5930581372E+00
    0.5000000000E+05    0.6702929331E+00    0.1790601746E-02    0.8678036638E-01    0.9310562832E-03    0.5947215314E+00
    0.7000000000E+05    0.6731170573E+00    0.1485654856E-02    0.8664473267E-01    0.7342695385E-03    0.5956067015E+00
    0.9000000000E+05    0.6746627114E+00    0.1299651205E-02    0.8653058463E-01    0.6215479804E-03    0.5961843699E+00
    0.1100000000E+06    0.6756375160E+00    0.1170939977E-02    0.8643291834E-01    0.5469913918E-03    0.5966030674E+00
    0.1300000000E+06    0.6763085493E+00    0.1074968219E-02    0.8634780073E-01    0.4932600417E-03    0.5969266330E+00
    0.1500000000E+06    0.6767988240E+00    0.9997867891E-03    0.8627244513E-01    0.4522757730E-03    0.5971877235E+00
    0.1700000000E+06    0.6771728409E+00    0.9387897500E-03    0.8620486605E-01    0.4197318789E-03    0.5974050509E+00
    0.1900000000E+06    0.6774676710E+00    0.8879868135E-03    0.8614361529E-01    0.3931051194E-03    0.5975902326E+00
    0.2100000000E+06    0.6777061324E+00    0.8448051061E-03    0.8608760969E-01    0.3708102771E-03    0.5977509270E+00
    0.2300000000E+06    0.6779030395E+00    0.8075003797E-03    0.8603602008E-01    0.3517964509E-03    0.5978924230E+00
    0.2500000000E+06    0.6780684290E+00    0.7748421846E-03    0.8598819857E-01    0.3353365948E-03    0.5980185116E+00
    0.2700000000E+06    0.6782093431E+00    0.7459340177E-03    0.8594362970E-01    0.3209099691E-03    0.5981319938E+00
    0.2900000000E+06    0.6783308687E+00    0.7201049544E-03    0.8590189687E-01    0.3081327248E-03    0.5982349928E+00
    0.3100000000E+06    0.6784367724E+00    0.6968414243E-03    0.8586265865E-01    0.2967149881E-03    0.5983291526E+00
    0.3300000000E+06    0.6785299029E+00    0.6757426497E-03    0.8582563182E-01    0.2864332841E-03    0.5984157696E+00
    0.3500000000E+06    0.6786124548E+00    0.6564906148E-03    0.8579057883E-01    0.2771122272E-03    0.5984958830E+00
    0.3700000000E+06    0.6786861462E+00    0.6388292747E-03    0.8575729850E-01    0.2686120156E-03    0.5985703374E+00
    0.3900000000E+06    0.6787523414E+00    0.6225498179E-03    0.8572561899E-01    0.2608196763E-03    0.5986398274E+00
    0.4100000000E+06    0.6788121377E+00    0.6074800041E-03    0.8569539233E-01    0.2536428027E-03    0.5987049310E+00
    0.4300000000E+06    0.6788664277E+00    0.5934763060E-03    0.8566649020E-01    0.2470049876E-03    0.5987661337E+00
    0.4500000000E+06    0.6789159449E+00    0.5804180241E-03    0.8563880062E-01    0.2408424366E-03    0.5988238468E+00
    0.4700000000E+06    0.6789612978E+00    0.5682028132E-03    0.8561222527E-01    0.2351014158E-03    0.5988784219E+00
    0.4900000000E+06    0.6790029952E+00    0.5567432369E-03    0.8558667732E-01    0.2297363040E-03    0.5989301612E+00
    0.1000000000E+06    0.6751996861E+00    0.1230107778E-02    0.8647996802E-01    0.5809102116E-03    0.5964085366E+00
    0.3000000000E+06    0.6783855773E+00    0.7081797829E-03    0.8588198483E-01    0.3022691920E-03    0.5982830896E+00
    0.5000000000E+06    0.6790226098E+00    0.5512728913E-03    0.8557426423E-01    0.2271822976E-03    0.5989550507E+00
    0.7000000000E+06    0.6792987404E+00    0.4677920333E-03    0.8536510352E-01    0.1887748241E-03    0.5993524190E+00
    0.9000000000E+06    0.6794540147E+00    0.4138899880E-03    0.8520627804E-01    0.1645468664E-03    0.5996304757E+00
    0.1100000000E+07    0.6795539919E+00    0.3753789913E-03    0.8507812697E-01    0.1475176339E-03    0.5998426524E+00
    0.1300000000E+07    0.6796239846E+00    0.3460819486E-03    0.8497066308E-01    0.1347240615E-03    0.6000133697E+00
    0.1500000000E+07    0.6796758599E+00    0.3228182708E-03    0.8487810758E-01    0.1246675823E-03    0.6001557319E+00
    0.1700000000E+07    0.6797159315E+00    0.3037604415E-03    0.8479681247E-01    0.1164988898E-03    0.6002775478E+00
    0.1900000000E+07    0.6797478726E+00    0.2877733878E-03    0.8472432586E-01    0.1096962859E-03    0.6003838287E+00
    0.2100000000E+07    0.6797739685E+00    0.2741097746E-03    0.8465891975E-01    0.1039194427E-03    0.6004779739E+00
    0.2300000000E+07    0.6797957168E+00    0.2622546938E-03    0.8459933021E-01    0.9893572436E-04    0.6005623907E+00
    0.2500000000E+07    0.6798141407E+00    0.2518402236E-03    0.8454460462E-01    0.9458004771E-04    0.6006388437E+00
    0.2700000000E+07    0.6798299636E+00    0.2425955010E-03    0.8449400709E-01    0.9073162056E-04    0.6007086631E+00
    0.2900000000E+07    0.6798437119E+00    0.2343160802E-03    0.8444695724E-01    0.8729976895E-04    0.6007728758E+00
    0.3100000000E+07    0.6798557777E+00    0.2268443461E-03    0.8440298925E-01    0.8421493599E-04    0.6008322903E+00
    0.3300000000E+07    0.6798664594E+00    0.2200565575E-03    0.8436172350E-01    0.8142276148E-04    0.6008875540E+00
    0.3500000000E+07    0.6798759883E+00    0.2138540207E-03    0.8432284655E-01    0.7888006985E-04    0.6009391932E+00
    0.3700000000E+07    0.6798845462E+00    0.2081569216E-03    0.8428609658E-01    0.7655207994E-04    0.6009876415E+00
    0.3900000000E+07    0.6798922785E+00    0.2028999188E-03    0.8425125262E-01    0.7441042012E-04    0.6010332597E+00
    0.4100000000E+07    0.6798993025E+00    0.1980289330E-03    0.8421812648E-01    0.7243168796E-04    0.6010763515E+00
    0.4300000000E+07    0.6799057140E+00    0.1934987662E-03    0.8418655656E-01    0.7059638628E-04    0.6011171749E+00
    0.4500000000E+07    0.6799115923E+00    0.1892713088E-03    0.8415640306E-01    0.6888812477E-04    0.6011559507E+00
    0.4700000000E+07    0.6799170033E+00    0.1853141707E-03    0.8412754423E-01    0.6729301222E-04    0.6011928693E+00
    0.4900000000E+07    0.6799220024E+00    0.1815996218E-03    0.8409987339E-01    0.6579918785E-04    0.6012280960E+00
    0.1000000000E+07    0.6795088612E+00    0.3931984495E-03    0.8513912890E-01    0.1553677055E-03    0.5997428936E+00
    0.3000000000E+07    0.6798499346E+00    0.2304876608E-03    0.8442461349E-01    0.8571767454E-04    0.6008031391E+00
    0.5000000000E+07    0.6799243624E+00    0.1798257192E-03    0.8408645365E-01    0.6508701579E-04    0.6012451207E+00
    0.7000000000E+07    0.6799582623E+00    0.1527037502E-03    0.8386251802E-01    0.5430068455E-04    0.6015239137E+00
    0.9000000000E+07    0.6799780479E+00    0.1351500413E-03    0.8369481825E-01    0.4743017306E-04    0.6017268717E+00
    0.1100000000E+08    0.6799911818E+00    0.1225937909E-03    0.8356070770E-01    0.4257483909E-04    0.6018860975E+00
    0.1300000000E+08    0.6800006196E+00    0.1130352587E-03    0.8344895506E-01    0.3891465965E-04    0.6020169192E+00
    0.1500000000E+08    0.6800077765E+00    0.1054420058E-03    0.8335316404E-01    0.3603080349E-04    0.6021278333E+00
    0.1700000000E+08    0.6800134193E+00    0.9921981594E-04    0.8326934296E-01    0.3368433019E-04    0.6022240341E+00
    0.1900000000E+08    0.6800180013E+00    0.9399920607E-04    0.8319483245E-01    0.3172777472E-04    0.6023089255E+00
    0.2100000000E+08    0.6800218088E+00    0.8953671461E-04    0.8312777143E-01    0.3006459910E-04    0.6023848577E+00
    0.2300000000E+08    0.6800250321E+00    0.8566450059E-04    0.8306680642E-01    0.2862863316E-04    0.6024535204E+00
    0.2500000000E+08    0.6800278026E+00    0.8226258225E-04    0.8301092223E-01    0.2737281902E-04    0.6025161686E+00
    0.2700000000E+08    0.6800302145E+00    0.7924259914E-04    0.8295933787E-01    0.2626266335E-04    0.6025737596E+00
