  Pressure (Pa) 22mC5-400 (mol/kg) 2mC6-400 (mol/kg) 3mC6-400 (mol/kg) 33mC5-400 (mol/kg) C7-400 (mol/kg)
    0.1000000000E+01    0.1061013678E-02    0.2368526335E-02    0.2091073665E-02    0.3857408782E-03    0.8483323422E-02
    0.3000000000E+01    0.3156228341E-02    0.6863668197E-02    0.6046321220E-02    0.1118139029E-02    0.2453370339E-01
    0.5000000000E+01    0.5216641831E-02    0.1106425269E-01    0.9726069239E-02    0.1802960689E-02    0.3947140142E-01
    0.7000000000E+01    0.7243349731E-02    0.1499978570E-01    0.1315881718E-01    0.2444984632E-02    0.5341134754E-01
    0.9000000000E+01    0.9237400528E-02    0.1869581882E-01    0.1636924170E-01    0.3048347454E-02    0.6645306724E-01
    0.1100000000E+02    0.1119979815E-01    0.2217459731E-01    0.1937881792E-01    0.3616648982E-02    0.7868318368E-01
    0.1300000000E+02    0.1313150430E-01    0.2545558444E-01    0.2220632330E-01    0.4153037559E-02    0.9017744729E-01
    0.1500000000E+02    0.1503344073E-01    0.2855588894E-01    0.2486824912E-01    0.4660279539E-02    0.1010023937E+00
    0.1700000000E+02    0.1690649125E-01    0.3149061576E-01    0.2737913896E-01    0.5140816315E-02    0.1112167068E+00
    0.1900000000E+02    0.1875150372E-01    0.3427315577E-01    0.2975186861E-01    0.5596811389E-02    0.1208723473E+00
    0.2100000000E+02    0.2056929187E-01    0.3691542637E-01    0.3199787908E-01    0.6030189473E-02    0.1300154907E+00
    0.2300000000E+02    0.2236063701E-01    0.3942807250E-01    0.3412737156E-01    0.6442669132E-02    0.1386873136E+00
    0.2500000000E+02    0.2412628964E-01    0.4182063546E-01    0.3614947142E-01    0.6835790202E-02    0.1469246541E+00
    0.2700000000E+02    0.2586697099E-01    0.4410169537E-01    0.3807236678E-01    0.7210936912E-02    0.1547605708E+00
    0.2900000000E+02    0.2758337444E-01    0.4627899198E-01    0.3990342620E-01    0.7569357491E-02    0.1622248165E+00
    0.3100000000E+02    0.2927616686E-01    0.4835952753E-01    0.4164929909E-01    0.7912180857E-02    0.1693442434E+00
    0.3300000000E+02    0.3094598987E-01    0.5034965479E-01    0.4331600160E-01    0.8240430897E-02    0.1761431492E+00
    0.3500000000E+02    0.3259346106E-01    0.5225515262E-01    0.4490899055E-01    0.8555038717E-02    0.1826435751E+00
    0.3700000000E+02    0.3421917511E-01    0.5408129115E-01    0.4643322722E-01    0.8856853208E-02    0.1888655628E+00
    0.3900000000E+02    0.3582370486E-01    0.5583288816E-01    0.4789323252E-01    0.9146650182E-02    0.1948273775E+00
    0.4100000000E+02    0.3740760227E-01    0.5751435802E-01    0.4929313504E-01    0.9425140302E-02    0.2005457009E+00
    0.4300000000E+02    0.3897139946E-01    0.5912975439E-01    0.5063671284E-01    0.9692975994E-02    0.2060358002E+00
    0.4500000000E+02    0.4051560952E-01    0.6068280746E-01    0.5192743007E-01    0.9950757481E-02    0.2113116757E+00
    0.4700000000E+02    0.4204072741E-01    0.6217695667E-01    0.5316846904E-01    0.1019903807E-01    0.2163861901E+00
    0.4900000000E+02    0.4354723077E-01    0.6361537942E-01    0.5436275845E-01    0.1043832882E-01    0.2212711822E+00
    0.1000000000E+02    0.1022249491E-01    0.2046108867E-01    0.1789790425E-01    0.3336674409E-02    0.7266460767E-01
    0.3000000000E+02    0.2843268135E-01    0.4733094356E-01    0.4078662103E-01    0.7742652523E-02    0.1658260575E+00
    0.5000000000E+02    0.4429364670E-01    0.6431462097E-01    0.5494322412E-01    0.1055475217E-01    0.2236460522E+00
    0.7000000000E+02    0.5834882755E-01    0.7598377899E-01    0.6465336170E-01    0.1250930328E-01    0.2634385500E+00
    0.9000000000E+02    0.7098038429E-01    0.8440181513E-01    0.7177729829E-01    0.1393792548E-01    0.2927278060E+00
    0.1100000000E+03    0.8246543106E-01    0.9066179734E-01    0.7725664601E-01    0.1501614339E-01    0.3153267427E+00
    0.1300000000E+03    0.9301018766E-01    0.9540754217E-01    0.8162089971E-01    0.1584736619E-01    0.3333818900E+00
    0.1500000000E+03    0.1027715627E+00    0.9904755876E-01    0.8519160395E-01    0.1649727977E-01    0.3481982156E+00
    0.1700000000E+03    0.1118712637E+00    0.1018556060E+00    0.8817583912E-01    0.1700997961E-01    0.3606170673E+00
    0.1900000000E+03    0.1204052966E+00    0.1040229327E+00    0.9071330439E-01    0.1741634006E-01    0.3712066482E+00
    0.2100000000E+03    0.1284505256E+00    0.1056875800E+00    0.9290185427E-01    0.1773870481E-01    0.3803653949E+00
    0.2300000000E+03    0.1360693069E+00    0.1069518394E+00    0.9481219743E-01    0.1799368024E-01    0.3883815209E+00
    0.2500000000E+03    0.1433128280E+00    0.1078931694E+00    0.9649678043E-01    0.1819388226E-01    0.3954690283E+00
    0.2700000000E+03    0.1502235567E+00    0.1085712981E+00    0.9799538089E-01    0.1834907305E-01    0.4017903951E+00
    0.2900000000E+03    0.1568370669E+00    0.1090329986E+00    0.9933875320E-01    0.1846692598E-01    0.4074713726E+00
    0.3100000000E+03    0.1631834195E+00    0.1093153895E+00    0.1005510768E+00    0.1855355468E-01    0.4126109295E+00
    0.3300000000E+03    0.1692882203E+00    0.1094482722E+00    0.1016516438E+00    0.1861388804E-01    0.4172881100E+00
    0.3500000000E+03    0.1751734408E+00    0.1094558187E+00    0.1026560485E+00    0.1865194146E-01    0.4215668723E+00
    0.3700000000E+03    0.1808580612E+00    0.1093578137E+00    0.1035770438E+00    0.1867101658E-01    0.4254995731E+00
    0.3900000000E+03    0.1863585807E+00    0.1091705820E+00    0.1044251683E+00    0.1867385083E-01    0.4291295202E+00
    0.4100000000E+03    0.1916894243E+00    0.1089076924E+00    0.1052092127E+00    0.1866273091E-01    0.4324928751E+00
    0.4300000000E+03    0.1968632720E+00    0.1085804966E+00    0.1059365732E+00    0.1863957995E-01    0.4356200907E+00
    0.4500000000E+03    0.2018913253E+00    0.1081985483E+00    0.1066135205E+00    0.1860602540E-01    0.4385370122E+00
    0.4700000000E+03    0.2067835267E+00    0.1077699314E+00    0.1072454096E+00    0.1856345222E-01    0.4412657304E+00
    0.4900000000E+03    0.2115487392E+00    0.1073015199E+00    0.1078368431E+00    0.1851304517E-01    0.4438252506E+00
    0.1000000000E+03    0.7685196979E-01    0.8775410906E-01    0.7468297692E-01    0.1451321475E-01    0.3047032092E+00
    0.3000000000E+03    0.1600419437E+00    0.1091945960E+00    0.9995999169E-01    0.1851381113E-01    0.4101034860E+00
    0.5000000000E+03    0.2138862368E+00    0.1070542604E+00    0.1081186540E+00    0.1848522789E-01    0.4450467895E+00
    0.7000000000E+03    0.2555208415E+00    0.1010692615E+00    0.1123633588E+00    0.1770198344E-01    0.4636270500E+00
    0.9000000000E+03    0.2900219284E+00    0.9448996294E-01    0.1150255052E+00    0.1674014093E-01    0.4755050971E+00
    0.1100000000E+04    0.3196003630E+00    0.8814798109E-01    0.1168742503E+00    0.1576318285E-01    0.4838983077E+00
    0.1300000000E+04    0.3454527366E+00    0.8227619789E-01    0.1182437786E+00    0.1482657993E-01    0.4902164477E+00
    0.1500000000E+04    0.3683257223E+00    0.7692141619E-01    0.1193047077E+00    0.1394944847E-01    0.4951849412E+00
    0.1700000000E+04    0.3887334809E+00    0.7206649440E-01    0.1201540203E+00    0.1313679710E-01    0.4992191978E+00
    0.1900000000E+04    0.4070554724E+00    0.6767262789E-01    0.1208512591E+00    0.1238773405E-01    0.5025760624E+00
    0.2100000000E+04    0.4235857809E+00    0.6369540614E-01    0.1214351696E+00    0.1169886952E-01    0.5054238021E+00
    0.2300000000E+04    0.4385603453E+00    0.6009115572E-01    0.1219321390E+00    0.1106584254E-01    0.5078777609E+00
    0.2500000000E+04    0.4521731767E+00    0.5681937605E-01    0.1223608090E+00    0.1048404047E-01    0.5100199395E+00
    0.2700000000E+04    0.4645866710E+00    0.5384351948E-01    0.1227347530E+00    0.9948944192E-02    0.5119104077E+00
    0.2900000000E+04    0.4759385483E+00    0.5113105591E-01    0.1230641072E+00    0.9456289771E-02    0.5135942883E+00
    0.3100000000E+04    0.4863467570E+00    0.4865323516E-01    0.1233566056E+00    0.9002136668E-02    0.5151062070E+00
    0.3300000000E+04    0.4959130839E+00    0.4638473585E-01    0.1236182593E+00    0.8582887408E-02    0.5164732260E+00
    0.3500000000E+04    0.5047259035E+00    0.4430328772E-01    0.1238538166E+00    0.8195281985E-02    0.5177168367E+00
    0.3700000000E+04    0.5128623282E+00    0.4238930693E-01    0.1240670814E+00    0.7836379578E-02    0.5188543472E+00
    0.3900000000E+04    0.5203899286E+00    0.4062556125E-01    0.1242611397E+00    0.7503534472E-02    0.5198998699E+00
    0.4100000000E+04    0.5273681314E+00    0.3899687047E-01    0.1244385231E+00    0.7194369981E-02    0.5208650399E+00
    0.4300000000E+04    0.5338493720E+00    0.3748984262E-01    0.1246013294E+00    0.6906752495E-02    0.5217595450E+00
    0.4500000000E+04    0.5398800545E+00    0.3609264349E-01    0.1247513128E+00    0.6638766743E-02    0.5225915237E+00
    0.4700000000E+04    0.5455013584E+00    0.3479479651E-01    0.1248899520E+00    0.6388692842E-02    0.5233678694E+00
    0.4900000000E+04    0.5507499200E+00    0.3358700935E-01    0.1250185031E+00    0.6154985338E-02    0.5240944633E+00
    0.1000000000E+04    0.3053371897E+00    0.9126792652E-01    0.1160251097E+00    0.1624879277E-01    0.4800260011E+00
    0.3000000000E+04    0.4812539064E+00    0.4986447370E-01    0.1232145536E+00    0.9224633456E-02    0.5143699012E+00
    0.5000000000E+04    0.5532447737E+00    0.3301427083E-01    0.1250793375E+00    0.6043829028E-02    0.5244407102E+00
    0.7000000000E+04    0.5898705881E+00    0.2470867940E-01    0.1259606028E+00    0.4408864381E-02    0.5296741700E+00
    0.9000000000E+04    0.6112249435E+00    0.1994595666E-01    0.1264749546E+00    0.3454731152E-02    0.5330009988E+00
    0.1100000000E+05    0.6249185354E+00    0.1690735313E-01    0.1268104273E+00    0.2843012803E-02    0.5353529443E+00
    0.1300000000E+05    0.6343262464E+00    0.1481368726E-01    0.1270447915E+00    0.2422551188E-02    0.5371291818E+00
    0.1500000000E+05    0.6411320816E+00    0.1328617566E-01    0.1272163113E+00    0.2117892188E-02    0.5385324737E+00
    0.1700000000E+05    0.6462559418E+00    0.1212189498E-01    0.1273460861E+00    0.1887900455E-02    0.5396780108E+00
    0.1900000000E+05    0.6502372817E+00    0.1120354074E-01    0.1274467331E+00    0.1708520516E-02    0.5406366609E+00
    0.2100000000E+05    0.6534109426E+00    0.1045904917E-01    0.1275262709E+00    0.1564864961E-02    0.5414547101E+00
    0.2300000000E+05    0.6559946206E+00    0.9841899217E-02    0.1275900431E+00    0.1447281703E-02    0.5421638307E+00
    0.2500000000E+05    0.6581353984E+00    0.9320799706E-02    0.1276417488E+00    0.1349265659E-02    0.5427865211E+00
    0.2700000000E+05    0.6599359186E+00    0.8873964046E-02    0.1276840299E+00    0.1266286809E-02    0.5433392600E+00
    0.2900000000E+05    0.6614698150E+00    0.8485770916E-02    0.1277188232E+00    0.1195101028E-02    0.5438344304E+00
    0.3100000000E+05    0.6627911815E+00    0.8144732847E-02    0.1277475803E+00    0.1133328235E-02    0.5442815420E+00
    0.3300000000E+05    0.6639405888E+00    0.7842214794E-02    0.1277714100E+00    0.1079185080E-02    0.5446880350E+00
    0.3500000000E+05    0.6649490221E+00    0.7571599881E-02    0.1277911736E+00    0.1031310356E-02    0.5450598260E+00
    0.3700000000E+05    0.6658405295E+00    0.7327731003E-02    0.1278075495E+00    0.9886478857E-03    0.5454016868E+00
    0.3900000000E+05    0.6666340435E+00    0.7106527799E-02    0.1278210791E+00    0.9503661042E-03    0.5457175151E+00
    0.4100000000E+05    0.6673446613E+00    0.6904718118E-02    0.1278321995E+00    0.9158016548E-03    0.5460105298E+00
    0.4300000000E+05    0.6679845618E+00    0.6719646047E-02    0.1278412670E+00    0.8844190764E-03    0.5462834163E+00
    0.4500000000E+05    0.6685636724E+00    0.6549132218E-02    0.1278485749E+00    0.8557814966E-03    0.5465384351E+00
    0.4700000000E+05    0.6690901629E+00    0.6391370548E-02    0.1278543664E+00    0.8295289945E-03    0.5467775045E+00
    0.4900000000E+05    0.6695708147E+00    0.6244850773E-02    0.1278588449E+00    0.8053623998E-03    0.5470022649E+00
    0.1000000000E+05    0.6187613815E+00    0.1827349406E-01    0.1266588294E+00    0.3118065346E-02    0.5342671811E+00
    0.3000000000E+05    0.6621542658E+00    0.8309952600E-02    0.1277338802E+00    0.1163161060E-02    0.5440634874E+00
    0.5000000000E+05    0.6697957613E+00    0.6175400742E-02    0.1278606464E+00    0.7939813522E-03    0.5471097283E+00
    0.7000000000E+05    0.6728776223E+00    0.5151288406E-02    0.1278577999E+00    0.6319987608E-03    0.5487661221E+00
    0.9000000000E+05    0.6745323107E+00    0.4520322962E-02    0.1278197303E+00    0.5379854624E-03    0.5498570496E+00
    0.1100000000E+06    0.6755627197E+00    0.4080956313E-02    0.1277704217E+00    0.4752386416E-03    0.5506509433E+00
    0.1300000000E+06    0.6762655943E+00    0.3751934964E-02    0.1277180141E+00    0.4297187940E-03    0.5512653353E+00
    0.1500000000E+06    0.6767755937E+00    0.3493377688E-02    0.1276656823E+00    0.3948225774E-03    0.5517610932E+00
    0.1700000000E+06    0.6771625396E+00    0.3283097371E-02    0.1276147327E+00    0.3670026600E-03    0.5521733978E+00
    0.1900000000E+06    0.6774662088E+00    0.3107626737E-02    0.1275656851E+00    0.3441677027E-03    0.5525242307E+00
    0.2100000000E+06    0.6777109114E+00    0.2958248699E-02    0.1275187049E+00    0.3249969589E-03    0.5528281515E+00
    0.2300000000E+06    0.6779123371E+00    0.2829034994E-02    0.1274737930E+00    0.3086109701E-03    0.5530952512E+00
    0.2500000000E+06    0.6780810629E+00    0.2715792682E-02    0.1274308740E+00    0.2943989801E-03    0.5533327827E+00
    0.2700000000E+06    0.6782244782E+00    0.2615460045E-02    0.1273898396E+00    0.2819220911E-03    0.5535461164E+00
    0.2900000000E+06    0.6783479009E+00    0.2525741420E-02    0.1273505702E+00    0.2708558421E-03    0.5537393292E+00
    0.3100000000E+06    0.6784552558E+00    0.2444876672E-02    0.1273129457E+00    0.2609545783E-03    0.5539155816E+00
    0.3300000000E+06    0.6785495027E+00    0.2371490268E-02    0.1272768510E+00    0.2520284821E-03    0.5540773684E+00
    0.3500000000E+06    0.6786329156E+00    0.2304489342E-02    0.1272421781E+00    0.2439282771E-03    0.5542266903E+00
    0.3700000000E+06    0.6787072710E+00    0.2242992999E-02    0.1272088273E+00    0.2365347536E-03    0.5543651737E+00
    0.3900000000E+06    0.6787739762E+00    0.2186282121E-02    0.1271767070E+00    0.2297514180E-03    0.5544941572E+00
    0.4100000000E+06    0.6788341613E+00    0.2133762996E-02    0.1271457334E+00    0.2234992224E-03    0.5546147542E+00
    0.4300000000E+06    0.6788887435E+00    0.2084940473E-02    0.1271158302E+00    0.2177127149E-03    0.5547278997E+00
    0.4500000000E+06    0.6789384758E+00    0.2039397845E-02    0.1270869278E+00    0.2123371773E-03    0.5548343863E+00
    0.4700000000E+06    0.6789839814E+00    0.1996781522E-02    0.1270589625E+00    0.2073264671E-03    0.5549348906E+00
    0.4900000000E+06    0.6790257811E+00    0.1956789236E-02    0.1270318764E+00    0.2026413651E-03    0.5550299946E+00
    0.1000000000E+06    0.6751012427E+00    0.4283204862E-02    0.1277957930E+00    0.5038432112E-03    0.5502818580E+00
    0.3000000000E+06    0.6784033831E+00    0.2484295915E-02    0.1273315597E+00    0.2657725512E-03    0.5538294062E+00
    0.5000000000E+06    0.6790454310E+00    0.1937694369E-02    0.1270186463E+00    0.2004102337E-03    0.5550756818E+00
    0.7000000000E+06    0.6793211183E+00    0.1645970334E-02    0.1267894709E+00    0.1667946951E-03    0.5557990572E+00
    0.9000000000E+06    0.6794752713E+00    0.1457295323E-02    0.1266085758E+00    0.1455305751E-03    0.5562977490E+00
    0.1100000000E+07    0.6795741241E+00    0.1322347681E-02    0.1264589807E+00    0.1305585774E-03    0.5566736756E+00
    0.1300000000E+07    0.6796431073E+00    0.1219606472E-02    0.1263313353E+00    0.1192969299E-03    0.5569730677E+00
    0.1500000000E+07    0.6796940973E+00    0.1137974351E-02    0.1262199485E+00    0.1104366371E-03    0.5572205540E+00
    0.1700000000E+07    0.6797333933E+00    0.1071068143E-02    0.1261210982E+00    0.1032345015E-03    0.5574307112E+00
    0.1900000000E+07    0.6797646515E+00    0.1014919971E-02    0.1260322149E+00    0.9723338338E-04    0.5576128351E+00
    0.2100000000E+07    0.6797901418E+00    0.9669156313E-03    0.1259514496E+00    0.9213474822E-04    0.5577731947E+00
    0.2300000000E+07    0.6798113490E+00    0.9252529604E-03    0.1258774269E+00    0.8773435016E-04    0.5579162057E+00
    0.2500000000E+07    0.6798292862E+00    0.8886436381E-03    0.1258090952E+00    0.8388714605E-04    0.5580450883E+00
    0.2700000000E+07    0.6798446685E+00    0.8561388218E-03    0.1257456324E+00    0.8048694123E-04    0.5581622591E+00
    0.2900000000E+07    0.6798580154E+00    0.8270220762E-03    0.1256863837E+00    0.7745397678E-04    0.5582695751E+00
    0.3100000000E+07    0.6798697136E+00    0.8007409000E-03    0.1256308183E+00    0.7472704015E-04    0.5583684923E+00
    0.3300000000E+07    0.6798800571E+00    0.7768614109E-03    0.1255785005E+00    0.7225827262E-04    0.5584601724E+00
    0.3500000000E+07    0.6798892734E+00    0.7550374638E-03    0.1255290680E+00    0.7000964838E-04    0.5585455561E+00
    0.3700000000E+07    0.6798975413E+00    0.7349890648E-03    0.1254822161E+00    0.6795052459E-04    0.5586254154E+00
    0.3900000000E+07    0.6799050035E+00    0.7164869429E-03    0.1254376862E+00    0.6605589784E-04    0.5587003911E+00
    0.4100000000E+07    0.6799117751E+00    0.6993413066E-03    0.1253952569E+00    0.6430513830E-04    0.5587710208E+00
    0.4300000000E+07    0.6799179502E+00    0.6833935047E-03    0.1253547372E+00    0.6268105443E-04    0.5588377596E+00
    0.4500000000E+07    0.6799236062E+00    0.6685097454E-03    0.1253159611E+00    0.6116919082E-04    0.5589009958E+00
    0.4700000000E+07    0.6799288078E+00    0.6545762978E-03    0.1252787834E+00    0.5975729349E-04    0.5589610637E+00
    0.4900000000E+07    0.6799336091E+00    0.6414957798E-03    0.1252430766E+00    0.5843489753E-04    0.5590182525E+00
    0.1000000000E+07    0.6795295440E+00    0.1384804437E-02    0.1265305656E+00    0.1374629188E-03    0.5564974432E+00
    0.3000000000E+07    0.6798640504E+00    0.8135565226E-03    0.1256581697E+00    0.7605551150E-04    0.5583200050E+00
    0.5000000000E+07    0.6799358742E+00    0.6352486799E-03    0.1252257389E+00    0.5780440081E-04    0.5590458473E+00
    0.7000000000E+07    0.6799682906E+00    0.5396988181E-03    0.1249345651E+00    0.4825093325E-04    0.5594937323E+00
    0.9000000000E+07    0.6799870817E+00    0.4778211662E-03    0.1247144385E+00    0.4216154547E-04    0.5598152032E+00
    0.1100000000E+08    0.6799994866E+00    0.4335412929E-03    0.1245372830E+00    0.3785619219E-04    0.5600648405E+00
    0.1300000000E+08    0.6800083588E+00    0.3998221272E-03    0.1243889761E+00    0.3460945846E-04    0.5602683359E+00
    0.1500000000E+08    0.6800150593E+00    0.3730288605E-03    0.1242613956E+00    0.3205063128E-04    0.5604397754E+00
    0.1700000000E+08    0.6800203231E+00    0.3510687461E-03    0.1241494354E+00    0.2996813317E-04    0.5605876941E+00
    0.1900000000E+08    0.6800245835E+00    0.3326401390E-03    0.1240496739E+00    0.2823134282E-04    0.5607176440E+00
    0.2100000000E+08    0.6800281133E+00    0.3168851437E-03    0.1239597054E+00    0.2675472535E-04    0.5608334340E+00
    0.2300000000E+08    0.6800310933E+00    0.3032122086E-03    0.1238777732E+00    0.2547963868E-04    0.5609377874E+00
    0.2500000000E+08    0.6800336483E+00    0.2911983831E-03    0.1238025555E+00    0.2436437014E-04    0.5610327171E+00
    0.2700000000E+08    0.6800358674E+00    0.2805321355E-03    0.1237330324E+00    0.2337833894E-04    0.5611197519E+00
