  Pressure (Pa) 22mC5-400 (mol/kg) 2mC6-400 (mol/kg) 3mC6-400 (mol/kg) 33mC5-400 (mol/kg) C7-400 (mol/kg)
    0.1000000000E+01    0.1056203694E-02    0.7120174957E-02    0.1576307799E-02    0.3220741400E-03    0.1705269220E-02
    0.3000000000E+01    0.3114389786E-02    0.2071070084E-01    0.4602516493E-02    0.9368725189E-03    0.4979619331E-02
    0.5000000000E+01    0.5104241651E-02    0.3349644546E-01    0.7472096931E-02    0.1515322374E-02    0.8085205451E-02
    0.7000000000E+01    0.7030140827E-02    0.4554425118E-01    0.1019794524E-01    0.2060442804E-02    0.1103590554E-01
    0.9000000000E+01    0.8896086665E-02    0.5691378807E-01    0.1279155389E-01    0.2574928881E-02    0.1384408805E-01
    0.1100000000E+02    0.1070573773E-01    0.6765849161E-01    0.1526319883E-01    0.3061194027E-02    0.1652081307E-01
    0.1300000000E+02    0.1246244790E-01    0.7782635668E-01    0.1762209740E-01    0.3521405886E-02    0.1907600212E-01
    0.1500000000E+02    0.1416929792E-01    0.8746061303E-01    0.1987654218E-01    0.3957516844E-02    0.2151858197E-01
    0.1700000000E+02    0.1582912314E-01    0.9660030227E-01    0.2203401496E-01    0.4371290107E-02    0.2385660728E-01
    0.1900000000E+02    0.1744453781E-01    0.1052807730E+00    0.2410128420E-01    0.4764322062E-02    0.2609736531E-01
    0.2100000000E+02    0.1901795664E-01    0.1135341071E+00    0.2608448877E-01    0.5138061542E-02    0.2824746595E-01
    0.2300000000E+02    0.2055161378E-01    0.1213894882E+00    0.2798921001E-01    0.5493826478E-02    0.3031291930E-01
    0.2500000000E+02    0.2204757970E-01    0.1288735218E+00    0.2982053421E-01    0.5832818339E-02    0.3229920275E-01
    0.2700000000E+02    0.2350777618E-01    0.1360105128E+00    0.3158310672E-01    0.6156134704E-02    0.3421131926E-01
    0.2900000000E+02    0.2493398966E-01    0.1428227090E+00    0.3328117919E-01    0.6464780236E-02    0.3605384810E-01
    0.3100000000E+02    0.2632788318E-01    0.1493305140E+00    0.3491865076E-01    0.6759676295E-02    0.3783098917E-01
    0.3300000000E+02    0.2769100705E-01    0.1555526734E+00    0.3649910418E-01    0.7041669381E-02    0.3954660191E-01
    0.3500000000E+02    0.2902480846E-01    0.1615064400E+00    0.3802583763E-01    0.7311538568E-02    0.4120423941E-01
    0.3700000000E+02    0.3033064004E-01    0.1672077192E+00    0.3950189264E-01    0.7570002071E-02    0.4280717855E-01
    0.3900000000E+02    0.3160976765E-01    0.1726711974E+00    0.4093007886E-01    0.7817723061E-02    0.4435844661E-01
    0.4100000000E+02    0.3286337737E-01    0.1779104561E+00    0.4231299596E-01    0.8055314824E-02    0.4586084483E-01
    0.4300000000E+02    0.3409258182E-01    0.1829380743E+00    0.4365305314E-01    0.8283345351E-02    0.4731696935E-01
    0.4500000000E+02    0.3529842586E-01    0.1877657182E+00    0.4495248637E-01    0.8502341433E-02    0.4872922989E-01
    0.4700000000E+02    0.3648189182E-01    0.1924042228E+00    0.4621337394E-01    0.8712792313E-02    0.5009986631E-01
    0.4900000000E+02    0.3764390419E-01    0.1968636641E+00    0.4743765023E-01    0.8915152967E-02    0.5143096358E-01
    0.1000000000E+02    0.9807732675E-02    0.6236112525E-01    0.1404202260E-01    0.2821448214E-02    0.1519823777E-01
    0.3000000000E+02    0.2563487700E-01    0.1461134520E+00    0.3410725914E-01    0.6613892380E-02    0.3695034333E-01
    0.5000000000E+02    0.3821713943E-01    0.1990291934E+00    0.4803662736E-01    0.9013432998E-02    0.5208229752E-01
    0.7000000000E+02    0.4874248791E-01    0.2349050342E+00    0.5847278613E-01    0.1064307268E-01    0.6344144636E-01
    0.9000000000E+02    0.5786176793E-01    0.2604260717E+00    0.6670773491E-01    0.1180467087E-01    0.7242087318E-01
    0.1100000000E+03    0.6596510215E-01    0.2792159767E+00    0.7345283223E-01    0.1266185624E-01    0.7978811712E-01
    0.1300000000E+03    0.7330255516E-01    0.2934041701E+00    0.7913454763E-01    0.1331079274E-01    0.8600362926E-01
    0.1500000000E+03    0.8004297313E-01    0.3043209070E+00    0.8402550256E-01    0.1381156315E-01    0.9136193868E-01
    0.1700000000E+03    0.8630519692E-01    0.3128380831E+00    0.8830894018E-01    0.1420355570E-01    0.9606113396E-01
    0.1900000000E+03    0.9217575792E-01    0.3195497502E+00    0.9211309903E-01    0.1451361369E-01    0.1002399245E+00
    0.2100000000E+03    0.9771946589E-01    0.3248737971E+00    0.9553074941E-01    0.1476062589E-01    0.1039987129E+00
    0.2300000000E+03    0.1029860331E+00    0.3291121761E+00    0.9863089026E-01    0.1495824555E-01    0.1074122162E+00
    0.2500000000E+03    0.1080143770E+00    0.3324881018E+00    0.1014660623E+00    0.1511656975E-01    0.1105373603E+00
    0.2700000000E+03    0.1128355071E+00    0.3351698569E+00    0.1040770912E+00    0.1524321428E-01    0.1134184017E+00
    0.2900000000E+03    0.1174745148E+00    0.3372864983E+00    0.1064962610E+00    0.1534402271E-01    0.1160903557E+00
    0.3100000000E+03    0.1219519805E+00    0.3389384968E+00    0.1087494974E+00    0.1542354685E-01    0.1185813555E+00
    0.3300000000E+03    0.1262849886E+00    0.3402051145E+00    0.1108579045E+00    0.1548537994E-01    0.1209143134E+00
    0.3500000000E+03    0.1304878740E+00    0.3411496254E+00    0.1128388703E+00    0.1553239237E-01    0.1231081165E+00
    0.3700000000E+03    0.1345727817E+00    0.3418230785E+00    0.1147068766E+00    0.1556690169E-01    0.1251785026E+00
    0.3900000000E+03    0.1385500902E+00    0.3422670543E+00    0.1164741029E+00    0.1559079713E-01    0.1271387135E+00
    0.4100000000E+03    0.1424287393E+00    0.3425157150E+00    0.1181508826E+00    0.1560563222E-01    0.1289999890E+00
    0.4300000000E+03    0.1462164844E+00    0.3425973488E+00    0.1197460533E+00    0.1561269460E-01    0.1307719463E+00
    0.4500000000E+03    0.1499200980E+00    0.3425355480E+00    0.1212672285E+00    0.1561305923E-01    0.1324628741E+00
    0.4700000000E+03    0.1535455295E+00    0.3423501182E+00    0.1227210112E+00    0.1560762953E-01    0.1340799639E+00
    0.4900000000E+03    0.1570980349E+00    0.3420577862E+00    0.1241131631E+00    0.1559716936E-01    0.1356294937E+00
    0.1000000000E+03    0.6202239244E-01    0.2705049115E+00    0.7023518192E-01    0.1226420258E-01    0.7627219492E-01
    0.3000000000E+03    0.1197323006E+00    0.3381651966E+00    0.1076422035E+00    0.1538620142E-01    0.1173569363E+00
    0.5000000000E+03    0.1588484192E+00    0.3418760565E+00    0.1247877319E+00    0.1559025970E-01    0.1363806724E+00
    0.7000000000E+03    0.1909285478E+00    0.3351518282E+00    0.1359994560E+00    0.1530362309E-01    0.1489001868E+00
    0.9000000000E+03    0.2189101788E+00    0.3258660243E+00    0.1443606157E+00    0.1488793517E-01    0.1582803455E+00
    0.1100000000E+04    0.2440162096E+00    0.3160789438E+00    0.1510372029E+00    0.1444003669E-01    0.1657984173E+00
    0.1300000000E+04    0.2668897860E+00    0.3064685875E+00    0.1565966578E+00    0.1399311659E-01    0.1720778844E+00
    0.1500000000E+04    0.2879217606E+00    0.2972763349E+00    0.1613588008E+00    0.1355991412E-01    0.1774710549E+00
    0.1700000000E+04    0.3073751281E+00    0.2885816957E+00    0.1655221746E+00    0.1314538528E-01    0.1821971271E+00
    0.1900000000E+04    0.3254409526E+00    0.2803983650E+00    0.1692187736E+00    0.1275118861E-01    0.1864021149E+00
    0.2100000000E+04    0.3422665167E+00    0.2727121656E+00    0.1725409531E+00    0.1237748969E-01    0.1901883644E+00
    0.2300000000E+04    0.3579706915E+00    0.2654973367E+00    0.1755559453E+00    0.1202375633E-01    0.1936305007E+00
    0.2500000000E+04    0.3726528622E+00    0.2587239218E+00    0.1783142647E+00    0.1168913321E-01    0.1967846765E+00
    0.2700000000E+04    0.3863983728E+00    0.2523612244E+00    0.1808548574E+00    0.1137262729E-01    0.1996942440E+00
    0.2900000000E+04    0.3992819887E+00    0.2463794280E+00    0.1832084013E+00    0.1107320278E-01    0.2023933957E+00
    0.3100000000E+04    0.4113701814E+00    0.2407503270E+00    0.1853995039E+00    0.1078983066E-01    0.2049095911E+00
    0.3300000000E+04    0.4227226918E+00    0.2354476134E+00    0.1874482122E+00    0.1052151450E-01    0.2072652260E+00
    0.3500000000E+04    0.4333936356E+00    0.2304469422E+00    0.1893710789E+00    0.1026730358E-01    0.2094788120E+00
    0.3700000000E+04    0.4434323145E+00    0.2257258841E+00    0.1911819330E+00    0.1002629885E-01    0.2115658306E+00
    0.3900000000E+04    0.4528838307E+00    0.2212638258E+00    0.1928924484E+00    0.9797654967E-02    0.2135393628E+00
    0.4100000000E+04    0.4617895694E+00    0.2170418473E+00    0.1945125711E+00    0.9580580080E-02    0.2154105640E+00
    0.4300000000E+04    0.4701875890E+00    0.2130425928E+00    0.1960508448E+00    0.9374334326E-02    0.2171890247E+00
    0.4500000000E+04    0.4781129454E+00    0.2092501426E+00    0.1975146633E+00    0.9178227610E-02    0.2188830520E+00
    0.4700000000E+04    0.4855979692E+00    0.2056498919E+00    0.1989104685E+00    0.8991617033E-02    0.2204998889E+00
    0.4900000000E+04    0.4926725057E+00    0.2022284362E+00    0.2002439072E+00    0.8813904142E-02    0.2220458893E+00
    0.1000000000E+04    0.2317742668E+00    0.3209769850E+00    0.1478658665E+00    0.1466520382E-01    0.1622242579E+00
    0.3000000000E+04    0.4054216361E+00    0.2435224808E+00    0.1843229122E+00    0.1092957341E-01    0.2036728602E+00
    0.5000000000E+04    0.4960645410E+00    0.2005808700E+00    0.2008888178E+00    0.8728208783E-02    0.2227941034E+00
    0.7000000000E+04    0.5480183861E+00    0.1745179131E+00    0.2114615124E+00    0.7365782118E-02    0.2351092011E+00
    0.9000000000E+04    0.5800333113E+00    0.1571330958E+00    0.2191124350E+00    0.6457311850E-02    0.2440836058E+00
    0.1100000000E+05    0.6010484971E+00    0.1446488366E+00    0.2250407209E+00    0.5811565638E-02    0.2510782767E+00
    0.1300000000E+05    0.6155874883E+00    0.1351668913E+00    0.2298387229E+00    0.5328370999E-02    0.2567684334E+00
    0.1500000000E+05    0.6260879902E+00    0.1276522230E+00    0.2338416889E+00    0.4951801879E-02    0.2615375856E+00
    0.1700000000E+05    0.6339437572E+00    0.1214989780E+00    0.2372572478E+00    0.4648699738E-02    0.2656239861E+00
    0.1900000000E+05    0.6399945112E+00    0.1163305974E+00    0.2402225664E+00    0.4398335417E-02    0.2691854688E+00
    0.2100000000E+05    0.6447696309E+00    0.1119009467E+00    0.2428327869E+00    0.4187145344E-02    0.2723317885E+00
    0.2300000000E+05    0.6486161225E+00    0.1080421841E+00    0.2451564708E+00    0.4005901205E-02    0.2751422218E+00
    0.2500000000E+05    0.6517692260E+00    0.1046356876E+00    0.2472445682E+00    0.3848110568E-02    0.2776758108E+00
    0.2700000000E+05    0.6543931278E+00    0.1015950311E+00    0.2491359140E+00    0.3709072193E-02    0.2799776511E+00
    0.2900000000E+05    0.6566053695E+00    0.9885558309E-01    0.2508607451E+00    0.3585295786E-02    0.2820829226E+00
    0.3100000000E+05    0.6584919943E+00    0.9636791134E-01    0.2524430339E+00    0.3474133068E-02    0.2840195687E+00
    0.3300000000E+05    0.6601172390E+00    0.9409346294E-01    0.2539020857E+00    0.3373535930E-02    0.2858101320E+00
    0.3500000000E+05    0.6615299046E+00    0.9200165179E-01    0.2552536597E+00    0.3281893530E-02    0.2874730462E+00
    0.3700000000E+05    0.6627676486E+00    0.9006784481E-01    0.2565107757E+00    0.3197919882E-02    0.2890235650E+00
    0.3900000000E+05    0.6638599388E+00    0.8827193765E-01    0.2576843047E+00    0.3120574580E-02    0.2904744448E+00
    0.4100000000E+05    0.6648301276E+00    0.8659732659E-01    0.2587834100E+00    0.3049005803E-02    0.2918364544E+00
    0.4300000000E+05    0.6656969341E+00    0.8503015305E-01    0.2598158816E+00    0.2982508604E-02    0.2931187620E+00
    0.4500000000E+05    0.6664755204E+00    0.8355873902E-01    0.2607883926E+00    0.2920493891E-02    0.2943292325E+00
    0.4700000000E+05    0.6671782852E+00    0.8217315897E-01    0.2617067001E+00    0.2862465034E-02    0.2954746604E+00
    0.4900000000E+05    0.6678154558E+00    0.8086491090E-01    0.2625758020E+00    0.2807999976E-02    0.2965609522E+00
    0.1000000000E+05    0.5915659891E+00    0.1504249857E+00    0.2222464785E+00    0.6109268854E-02    0.2477766804E+00
    0.3000000000E+05    0.6575849453E+00    0.9758290023E-01    0.2516684063E+00    0.3528277579E-02    0.2830708056E+00
    0.5000000000E+05    0.6681121583E+00    0.8023745450E-01    0.2629932867E+00    0.2781988898E-02    0.2970835616E+00
    0.7000000000E+05    0.6720697986E+00    0.7039950897E-01    0.2695774994E+00    0.2383305877E-02    0.3054011180E+00
    0.9000000000E+05    0.6740984087E+00    0.6374666998E-01    0.2740457600E+00    0.2122967100E-02    0.3111402582E+00
    0.1100000000E+06    0.6753204800E+00    0.5882470759E-01    0.2773438161E+00    0.1934858375E-02    0.3154370561E+00
    0.1300000000E+06    0.6761334269E+00    0.5497622667E-01    0.2799114144E+00    0.1790319135E-02    0.3188246688E+00
    0.1500000000E+06    0.6767117127E+00    0.5185144890E-01    0.2819856735E+00    0.1674551334E-02    0.3215928761E+00
    0.1700000000E+06    0.6771434325E+00    0.4924364506E-01    0.2837076648E+00    0.1579005826E-02    0.3239153011E+00
    0.1900000000E+06    0.6774776926E+00    0.4702124570E-01    0.2851674506E+00    0.1498338739E-02    0.3259034996E+00
    0.2100000000E+06    0.6777439613E+00    0.4509576366E-01    0.2864256719E+00    0.1429008502E-02    0.3276330296E+00
    0.2300000000E+06    0.6779609621E+00    0.4340508041E-01    0.2875248989E+00    0.1368559329E-02    0.3291572248E+00
    0.2500000000E+06    0.6781411480E+00    0.4190406615E-01    0.2884960366E+00    0.1315225736E-02    0.3305150049E+00
    0.2700000000E+06    0.6782931157E+00    0.4055899849E-01    0.2893621507E+00    0.1267700499E-02    0.3317355593E+00
    0.2900000000E+06    0.6784229876E+00    0.3934408019E-01    0.2901408605E+00    0.1224991618E-02    0.3328412881E+00
    0.3100000000E+06    0.6785352396E+00    0.3823917949E-01    0.2908458928E+00    0.1186330484E-02    0.3338497204E+00
    0.3300000000E+06    0.6786332187E+00    0.3722831455E-01    0.2914881252E+00    0.1151110848E-02    0.3347748058E+00
    0.3500000000E+06    0.6787194768E+00    0.3629860782E-01    0.2920763063E+00    0.1118847064E-02    0.3356278092E+00
    0.3700000000E+06    0.6787959932E+00    0.3543954670E-01    0.2926175645E+00    0.1089144790E-02    0.3364179455E+00
    0.3900000000E+06    0.6788643265E+00    0.3464244958E-01    0.2931177752E+00    0.1061679960E-02    0.3371528384E+00
    0.4100000000E+06    0.6789257200E+00    0.3390007273E-01    0.2935818312E+00    0.1036183407E-02    0.3378388602E+00
    0.4300000000E+06    0.6789811781E+00    0.3320631618E-01    0.2940138449E+00    0.1012429418E-02    0.3384813858E+00
    0.4500000000E+06    0.6790315204E+00    0.3255600015E-01    0.2944173016E+00    0.9902270835E-03    0.3390849861E+00
    0.4700000000E+06    0.6790774227E+00    0.3194469293E-01    0.2947951775E+00    0.9694136658E-03    0.3396535776E+00
    0.4900000000E+06    0.6791194469E+00    0.3136857667E-01    0.2951500319E+00    0.9498494547E-03    0.3401905391E+00
    0.1000000000E+06    0.6747774071E+00    0.6112075123E-01    0.2758068316E+00    0.2022146820E-02    0.3134275440E+00
    0.3000000000E+06    0.6784810850E+00    0.3877895971E-01    0.2905018494E+00    0.1205196216E-02    0.3333567226E+00
    0.5000000000E+06    0.6791391549E+00    0.3109266344E-01    0.2953195298E+00    0.9404974267E-03    0.3404480904E+00
    0.7000000000E+06    0.6794121708E+00    0.2680934340E-01    0.2979093100E+00    0.7968193116E-03    0.3444826430E+00
    0.9000000000E+06    0.6795615494E+00    0.2397007668E-01    0.2995752226E+00    0.7032083170E-03    0.3472018504E+00
    0.1100000000E+07    0.6796557970E+00    0.2190540529E-01    0.3007550073E+00    0.6360074836E-03    0.3492076316E+00
    0.1300000000E+07    0.6797207036E+00    0.2031421020E-01    0.3016426115E+00    0.5847482645E-03    0.3507731307E+00
    0.1500000000E+07    0.6797681422E+00    0.1903789761E-01    0.3023388392E+00    0.5439844291E-03    0.3520433048E+00
    0.1700000000E+07    0.6798043397E+00    0.1798377769E-01    0.3029019052E+00    0.5105642718E-03    0.3531034522E+00
    0.1900000000E+07    0.6798328767E+00    0.1709350037E-01    0.3033680557E+00    0.4825201112E-03    0.3540076049E+00
    0.2100000000E+07    0.6798559580E+00    0.1632822195E-01    0.3037611741E+00    0.4585513802E-03    0.3547919401E+00
    0.2300000000E+07    0.6798750161E+00    0.1566093049E-01    0.3040977094E+00    0.4377593202E-03    0.3554817521E+00
    0.2500000000E+07    0.6798910217E+00    0.1507217126E-01    0.3043894011E+00    0.4195002336E-03    0.3560953515E+00
    0.2700000000E+07    0.6799046563E+00    0.1454752258E-01    0.3046448759E+00    0.4032993572E-03    0.3566463778E+00
    0.2900000000E+07    0.6799164124E+00    0.1407603272E-01    0.3048706306E+00    0.3887978151E-03    0.3571452367E+00
    0.3100000000E+07    0.6799266548E+00    0.1364921277E-01    0.3050716605E+00    0.3757186100E-03    0.3576000293E+00
    0.3300000000E+07    0.6799356593E+00    0.1326036573E-01    0.3052518762E+00    0.3638440699E-03    0.3580171740E+00
    0.3500000000E+07    0.6799436386E+00    0.1290412669E-01    0.3054143870E+00    0.3530004522E-03    0.3584018335E+00
    0.3700000000E+07    0.6799507592E+00    0.1257613954E-01    0.3055616989E+00    0.3430471654E-03    0.3587582163E+00
    0.3900000000E+07    0.6799571533E+00    0.1227282500E-01    0.3056958570E+00    0.3338690568E-03    0.3590897933E+00
    0.4100000000E+07    0.6799629273E+00    0.1199121063E-01    0.3058185474E+00    0.3253707855E-03    0.3593994579E+00
    0.4300000000E+07    0.6799681677E+00    0.1172880436E-01    0.3059311747E+00    0.3174726458E-03    0.3596896443E+00
    0.4500000000E+07    0.6799729456E+00    0.1148349885E-01    0.3060349185E+00    0.3101074185E-03    0.3599624183E+00
    0.4700000000E+07    0.6799773201E+00    0.1125349816E-01    0.3061307777E+00    0.3032179642E-03    0.3602195461E+00
    0.4900000000E+07    0.6799813405E+00    0.1103726082E-01    0.3062196045E+00    0.2967553598E-03    0.3604625489E+00
    0.1000000000E+07    0.6796134605E+00    0.2286453092E-01    0.3002106129E+00    0.6671306657E-03    0.3482725462E+00
    0.3000000000E+07    0.6799217039E+00    0.1385749337E-01    0.3049739701E+00    0.3820952075E-03    0.3573777064E+00
    0.5000000000E+07    0.6799832311E+00    0.1093388009E-01    0.3062616134E+00    0.2936707190E-03    0.3605791724E+00
    0.7000000000E+07    0.6800097972E+00    0.9343829790E-02    0.3068656556E+00    0.2466606520E-03    0.3624140281E+00
    0.9000000000E+07    0.6800246749E+00    0.8305102617E-02    0.3072089937E+00    0.2164251161E-03    0.3636630059E+00
    0.1100000000E+08    0.6800342162E+00    0.7557316481E-02    0.3074242020E+00    0.1949160164E-03    0.3645936853E+00
    0.1300000000E+08    0.6800408706E+00    0.6985321132E-02    0.3075669528E+00    0.1786214094E-03    0.3653272193E+00
    0.1500000000E+08    0.6800457845E+00    0.6529208459E-02    0.3076648726E+00    0.1657331511E-03    0.3659279261E+00
    0.1700000000E+08    0.6800495671E+00    0.6154295301E-02    0.3077332593E+00    0.1552134159E-03    0.3664337158E+00
    0.1900000000E+08    0.6800525722E+00    0.5838913738E-02    0.3077812719E+00    0.1464185812E-03    0.3668686594E+00
    0.2100000000E+08    0.6800550195E+00    0.5568730320E-02    0.3078147246E+00    0.1389256094E-03    0.3672489190E+00
    0.2300000000E+08    0.6800570528E+00    0.5333830829E-02    0.3078374803E+00    0.1324435545E-03    0.3675858287E+00
    0.2500000000E+08    0.6800587702E+00    0.5127107720E-02    0.3078522009E+00    0.1267649020E-03    0.3678876191E+00
    0.2700000000E+08    0.6800602409E+00    0.4943313487E-02    0.3078607764E+00    0.1217371558E-03    0.3681604411E+00
