  Pressure (Pa) 22mC5-400 (mol/kg) 2mC6-400 (mol/kg) 3mC6-400 (mol/kg) 33mC5-400 (mol/kg) C7-400 (mol/kg)
    0.1000000000E+01    0.1057279533E-02    0.6292058208E-02    0.2606948661E-02    0.6404436281E-04    0.6768815383E-02
    0.3000000000E+01    0.3123663863E-02    0.1810136110E-01    0.7501182650E-02    0.1842901656E-03    0.1948012233E-01
    0.5000000000E+01    0.5128941443E-02    0.2897989542E-01    0.1201305787E-01    0.2951155486E-03    0.3120288415E-01
    0.7000000000E+01    0.7076602878E-02    0.3903365076E-01    0.1618784350E-01    0.3975942945E-03    0.4205397440E-01
    0.9000000000E+01    0.8969867149E-02    0.4835272608E-01    0.2006385529E-01    0.4926389607E-03    0.5213232767E-01
    0.1100000000E+02    0.1081170790E-01    0.5701424647E-01    0.2367374597E-01    0.5810305076E-03    0.6152226710E-01
    0.1300000000E+02    0.1260487672E-01    0.6508465479E-01    0.2704551823E-01    0.6634415721E-03    0.7029611676E-01
    0.1500000000E+02    0.1435192380E-01    0.7262152983E-01    0.3020332737E-01    0.7404549275E-03    0.7851627193E-01
    0.1700000000E+02    0.1605521630E-01    0.7967504175E-01    0.3316812307E-01    0.8125782577E-03    0.8623685432E-01
    0.1900000000E+02    0.1771695478E-01    0.8628912702E-01    0.3595816654E-01    0.8802560805E-03    0.9350504623E-01
    0.2100000000E+02    0.1933918776E-01    0.9250244430E-01    0.3858945056E-01    0.9438794462E-03    0.1003621740E+00
    0.2300000000E+02    0.2092382493E-01    0.9834915764E-01    0.4107604292E-01    0.1003793883E-02    0.1068445945E+00
    0.2500000000E+02    0.2247264886E-01    0.1038595828E+00    0.4343036924E-01    0.1060305949E-02    0.1129844241E+00
    0.2700000000E+02    0.2398732559E-01    0.1090607235E+00    0.4566344718E-01    0.1113688674E-02    0.1188101440E+00
    0.2900000000E+02    0.2546941417E-01    0.1139767202E+00    0.4778508161E-01    0.1164186104E-02    0.1243471032E+00
    0.3100000000E+02    0.2692037529E-01    0.1186292257E+00    0.4980402808E-01    0.1212017109E-02    0.1296179405E+00
    0.3300000000E+02    0.2834157902E-01    0.1230377233E+00    0.5172813049E-01    0.1257378611E-02    0.1346429402E+00
    0.3500000000E+02    0.2973431187E-01    0.1272197967E+00    0.5356443757E-01    0.1300448312E-02    0.1394403323E+00
    0.3700000000E+02    0.3109978320E-01    0.1311913595E+00    0.5531930188E-01    0.1341387023E-02    0.1440265485E+00
    0.3900000000E+02    0.3243913102E-01    0.1349668524E+00    0.5699846437E-01    0.1380340658E-02    0.1484164401E+00
    0.4100000000E+02    0.3375342728E-01    0.1385594122E+00    0.5860712680E-01    0.1417441948E-02    0.1526234652E+00
    0.4300000000E+02    0.3504368269E-01    0.1419810183E+00    0.6015001416E-01    0.1452811923E-02    0.1566598499E+00
    0.4500000000E+02    0.3631085110E-01    0.1452426190E+00    0.6163142847E-01    0.1486561190E-02    0.1605367272E+00
    0.4700000000E+02    0.3755583357E-01    0.1483542423E+00    0.6305529556E-01    0.1518791052E-02    0.1642642577E+00
    0.4900000000E+02    0.3877948199E-01    0.1513250912E+00    0.6442520563E-01    0.1549594478E-02    0.1678517345E+00
    0.1000000000E+02    0.9897038539E-02    0.5276130091E-01    0.2190021691E-01    0.5376220321E-03    0.5690857419E-01
    0.3000000000E+02    0.2619869800E-01    0.1163346442E+00    0.4880688069E-01    0.1188422121E-02    0.1270144679E+00
    0.5000000000E+02    0.3938355957E-01    0.1527603968E+00    0.6509096577E-01    0.1564488264E-02    0.1695956424E+00
    0.7000000000E+02    0.5051968211E-01    0.1758082168E+00    0.7624247296E-01    0.1804975355E-02    0.1988534057E+00
    0.9000000000E+02    0.6022013413E-01    0.1912662959E+00    0.8448598007E-01    0.1968356366E-02    0.2205493588E+00
    0.1100000000E+03    0.6886481598E-01    0.2020184030E+00    0.9090352147E-01    0.2083774458E-02    0.2374892536E+00
    0.1300000000E+03    0.7670331184E-01    0.2096674715E+00    0.9608893248E-01    0.2167443490E-02    0.2512146776E+00
    0.1500000000E+03    0.8390733349E-01    0.2151757343E+00    0.1003974629E+00    0.2229109417E-02    0.2626488722E+00
    0.1700000000E+03    0.9059951289E-01    0.2191548860E+00    0.1040558620E+00    0.2274978074E-02    0.2723817586E+00
    0.1900000000E+03    0.9687017477E-01    0.2220114780E+00    0.1072163617E+00    0.2309182170E-02    0.2808098059E+00
    0.2100000000E+03    0.1027875945E+00    0.2240255208E+00    0.1099853921E+00    0.2334574491E-02    0.2882104828E+00
    0.2300000000E+03    0.1084045317E+00    0.2253955892E+00    0.1124398750E+00    0.2353183252E-02    0.2947845293E+00
    0.2500000000E+03    0.1137625392E+00    0.2262659878E+00    0.1146369679E+00    0.2366486466E-02    0.3006812534E+00
    0.2700000000E+03    0.1188948885E+00    0.2267437769E+00    0.1166201501E+00    0.2375584042E-02    0.3060143429E+00
    0.2900000000E+03    0.1238286104E+00    0.2269098111E+00    0.1184231690E+00    0.2381309421E-02    0.3108721208E+00
    0.3100000000E+03    0.1285859490E+00    0.2268261028E+00    0.1200726785E+00    0.2384304134E-02    0.3153244103E+00
    0.3300000000E+03    0.1331854201E+00    0.2265408598E+00    0.1215900534E+00    0.2385068852E-02    0.3194272565E+00
    0.3500000000E+03    0.1376425944E+00    0.2260920070E+00    0.1229926676E+00    0.2383999106E-02    0.3232262531E+00
    0.3700000000E+03    0.1419706878E+00    0.2255096961E+00    0.1242948117E+00    0.2381410787E-02    0.3267589363E+00
    0.3900000000E+03    0.1461810112E+00    0.2248181254E+00    0.1255083669E+00    0.2377558642E-02    0.3300565396E+00
    0.4100000000E+03    0.1502833190E+00    0.2240368789E+00    0.1266433058E+00    0.2372649921E-02    0.3331453017E+00
    0.4300000000E+03    0.1542860823E+00    0.2231819266E+00    0.1277080725E+00    0.2366854575E-02    0.3360474570E+00
    0.4500000000E+03    0.1581967037E+00    0.2222663803E+00    0.1287098726E+00    0.2360312972E-02    0.3387819949E+00
    0.4700000000E+03    0.1620216912E+00    0.2213010709E+00    0.1296548993E+00    0.2353141809E-02    0.3413652496E+00
    0.4900000000E+03    0.1657667961E+00    0.2202949951E+00    0.1305485108E+00    0.2345438685E-02    0.3438113637E+00
    0.1000000000E+03    0.6465656470E-01    0.1971104101E+00    0.8787837735E-01    0.2030845504E-02    0.2294980214E+00
    0.3000000000E+03    0.1262280933E+00    0.2268958854E+00    0.1192656698E+00    0.2383113996E-02    0.3131451703E+00
    0.5000000000E+03    0.1676110116E+00    0.2197790669E+00    0.1309775171E+00    0.2341413811E-02    0.3449869056E+00
    0.7000000000E+03    0.2012883473E+00    0.2086097821E+00    0.1377273379E+00    0.2247300802E-02    0.3635965469E+00
    0.9000000000E+03    0.2304763003E+00    0.1973494862E+00    0.1422996685E+00    0.2145152787E-02    0.3763450833E+00
    0.1100000000E+04    0.2565149400E+00    0.1867810968E+00    0.1456760557E+00    0.2045215423E-02    0.3858496097E+00
    0.1300000000E+04    0.2801100093E+00    0.1770427323E+00    0.1483079022E+00    0.1950298993E-02    0.3933209968E+00
    0.1500000000E+04    0.3016920321E+00    0.1681095957E+00    0.1504372476E+00    0.1861081885E-02    0.3994119552E+00
    0.1700000000E+04    0.3215524024E+00    0.1599156169E+00    0.1522076887E+00    0.1777541047E-02    0.4045115754E+00
    0.1900000000E+04    0.3399042689E+00    0.1523886407E+00    0.1537107868E+00    0.1699412248E-02    0.4088690400E+00
    0.2100000000E+04    0.3569130220E+00    0.1454608728E+00    0.1550081718E+00    0.1626355073E-02    0.4126527575E+00
    0.2300000000E+04    0.3727128603E+00    0.1390715210E+00    0.1561431167E+00    0.1558015770E-02    0.4159814255E+00
    0.2500000000E+04    0.3874163784E+00    0.1331669029E+00    0.1571470529E+00    0.1494051597E-02    0.4189415722E+00
    0.2700000000E+04    0.4011204097E+00    0.1276997837E+00    0.1580434555E+00    0.1434139789E-02    0.4215980442E+00
    0.2900000000E+04    0.4139097513E+00    0.1226285530E+00    0.1588502706E+00    0.1377980187E-02    0.4240005776E+00
    0.3100000000E+04    0.4258596390E+00    0.1179164461E+00    0.1595814916E+00    0.1325295246E-02    0.4261880756E+00
    0.3300000000E+04    0.4370374597E+00    0.1135308636E+00    0.1602482173E+00    0.1275828998E-02    0.4281914866E+00
    0.3500000000E+04    0.4475039836E+00    0.1094427972E+00    0.1608593818E+00    0.1229345631E-02    0.4300357954E+00
    0.3700000000E+04    0.4573142848E+00    0.1056263478E+00    0.1614222708E+00    0.1185627997E-02    0.4317414336E+00
    0.3900000000E+04    0.4665184551E+00    0.1020583231E+00    0.1619428946E+00    0.1144476148E-02    0.4333253015E+00
    0.4100000000E+04    0.4751621756E+00    0.9871789811E-01    0.1624262621E+00    0.1105705960E-02    0.4348015207E+00
    0.4300000000E+04    0.4832871880E+00    0.9558632808E-01    0.1628765870E+00    0.1069147862E-02    0.4361819995E+00
    0.4500000000E+04    0.4909316929E+00    0.9264670408E-01    0.1632974427E+00    0.1034645645E-02    0.4374768624E+00
    0.4700000000E+04    0.4981306928E+00    0.8988374285E-01    0.1636918831E+00    0.1002055383E-02    0.4386947818E+00
    0.4900000000E+04    0.5049162922E+00    0.8728360548E-01    0.1640625359E+00    0.9712444287E-03    0.4398432369E+00
    0.1000000000E+04    0.2438362407E+00    0.1919637462E+00    0.1441021448E+00    0.2094652417E-02    0.3814085444E+00
    0.3000000000E+04    0.4199852475E+00    0.1202297370E+00    0.1592245787E+00    0.1351219872E-02    0.4251191121E+00
    0.5000000000E+04    0.5081633728E+00    0.8604062683E-01    0.1642396651E+00    0.9564675950E-03    0.4403934775E+00
    0.7000000000E+04    0.5573809358E+00    0.6723543936E-01    0.1669535529E+00    0.7293565474E-03    0.4489546182E+00
    0.9000000000E+04    0.5872464315E+00    0.5572668243E-01    0.1687080912E+00    0.5876334333E-03    0.4546512625E+00
    0.1100000000E+05    0.6066818909E+00    0.4807883581E-01    0.1699560329E+00    0.4928905422E-03    0.4588070763E+00
    0.1300000000E+05    0.6200651947E+00    0.4266309017E-01    0.1708986589E+00    0.4259261044E-03    0.4620192915E+00
    0.1500000000E+05    0.6297087455E+00    0.3863356697E-01    0.1716408470E+00    0.3764331893E-03    0.4646030255E+00
    0.1700000000E+05    0.6369172502E+00    0.3551631875E-01    0.1722432851E+00    0.3385109189E-03    0.4667426748E+00
    0.1900000000E+05    0.6424697947E+00    0.3302850641E-01    0.1727438234E+00    0.3085873913E-03    0.4685544346E+00
    0.2100000000E+05    0.6468545509E+00    0.3099223692E-01    0.1731674385E+00    0.2843953675E-03    0.4701157227E+00
    0.2300000000E+05    0.6503901821E+00    0.2929058308E-01    0.1735313558E+00    0.2644363823E-03    0.4714804193E+00
    0.2500000000E+05    0.6532921026E+00    0.2784376956E-01    0.1738478838E+00    0.2476852319E-03    0.4726873610E+00
    0.2700000000E+05    0.6557103777E+00    0.2659560705E-01    0.1741260782E+00    0.2334193079E-03    0.4737653596E+00
    0.2900000000E+05    0.6577523102E+00    0.2550541806E-01    0.1743727662E+00    0.2211159589E-03    0.4747363116E+00
    0.3100000000E+05    0.6594963943E+00    0.2454304467E-01    0.1745932031E+00    0.2103885321E-03    0.4756172029E+00
    0.3300000000E+05    0.6610012121E+00    0.2368565712E-01    0.1747915071E+00    0.2009452501E-03    0.4764214439E+00
    0.3500000000E+05    0.6623112676E+00    0.2291565287E-01    0.1749709559E+00    0.1925620254E-03    0.4771597862E+00
    0.3700000000E+05    0.6634609090E+00    0.2221923707E-01    0.1751341942E+00    0.1850640416E-03    0.4778409666E+00
    0.3900000000E+05    0.6644770241E+00    0.2158544093E-01    0.1752833820E+00    0.1783129936E-03    0.4784721692E+00
    0.4100000000E+05    0.6653809311E+00    0.2100542866E-01    0.1754203024E+00    0.1721980724E-03    0.4790593649E+00
    0.4300000000E+05    0.6661897286E+00    0.2047199887E-01    0.1755464415E+00    0.1666294790E-03    0.4796075634E+00
    0.4500000000E+05    0.6669172754E+00    0.1997921980E-01    0.1756630492E+00    0.1615336827E-03    0.4801210045E+00
    0.4700000000E+05    0.6675749123E+00    0.1952215826E-01    0.1757711848E+00    0.1568499019E-03    0.4806033039E+00
    0.4900000000E+05    0.6681720015E+00    0.1909667549E-01    0.1758717525E+00    0.1525274570E-03    0.4810575677E+00
    0.1000000000E+05    0.5979270242E+00    0.5154776877E-01    0.1693795533E+00    0.5358775075E-03    0.4568749648E+00
    0.3000000000E+05    0.6586575351E+00    0.2500982432E-01    0.1744859860E+00    0.2155753438E-03    0.4751871052E+00
    0.5000000000E+05    0.6684503279E+00    0.1889466086E-01    0.1759194457E+00    0.1504881543E-03    0.4812750398E+00
    0.7000000000E+05    0.6721843656E+00    0.1588979507E-01    0.1766176211E+00    0.1211843224E-03    0.4846473728E+00
    0.9000000000E+05    0.6741191974E+00    0.1401337705E-01    0.1770309544E+00    0.1039065479E-03    0.4868848315E+00
    0.1100000000E+06    0.6752947220E+00    0.1269510562E-01    0.1773020985E+00    0.9224789854E-04    0.4885177021E+00
    0.1300000000E+06    0.6760821294E+00    0.1170160114E-01    0.1774915492E+00    0.8372097243E-04    0.4897821353E+00
    0.1500000000E+06    0.6766455014E+00    0.1091707777E-01    0.1776296211E+00    0.7714266020E-04    0.4908017778E+00
    0.1700000000E+06    0.6770681820E+00    0.1027658894E-01    0.1777332672E+00    0.7187166959E-04    0.4916486395E+00
    0.1900000000E+06    0.6773968681E+00    0.9740454362E-02    0.1778127390E+00    0.6752711657E-04    0.4923679585E+00
    0.2100000000E+06    0.6776597079E+00    0.9282852048E-02    0.1778746109E+00    0.6386695489E-04    0.4929898180E+00
    0.2300000000E+06    0.6778746582E+00    0.8886142355E-02    0.1779232966E+00    0.6072914654E-04    0.4935351299E+00
    0.2500000000E+06    0.6780537043E+00    0.8537801513E-02    0.1779618699E+00    0.5800063767E-04    0.4940189575E+00
    0.2700000000E+06    0.6782051474E+00    0.8228654429E-02    0.1779925377E+00    0.5559985473E-04    0.4944524730E+00
    0.2900000000E+06    0.6783349166E+00    0.7951801856E-02    0.1780169241E+00    0.5346627567E-04    0.4948441670E+00
    0.3100000000E+06    0.6784473584E+00    0.7701940546E-02    0.1780362508E+00    0.5155393061E-04    0.4952006275E+00
    0.3300000000E+06    0.6785457311E+00    0.7474916654E-02    0.1780514535E+00    0.4982719584E-04    0.4955270581E+00
    0.3500000000E+06    0.6786325249E+00    0.7267423238E-02    0.1780632605E+00    0.4825798294E-04    0.4958276326E+00
    0.3700000000E+06    0.6787096752E+00    0.7076789865E-02    0.1780722466E+00    0.4682380760E-04    0.4961057449E+00
    0.3900000000E+06    0.6787787092E+00    0.6900832889E-02    0.1780788710E+00    0.4550643052E-04    0.4963641879E+00
    0.4100000000E+06    0.6788408476E+00    0.6737746705E-02    0.1780835046E+00    0.4429088033E-04    0.4966052845E+00
    0.4300000000E+06    0.6788970780E+00    0.6586023356E-02    0.1780864501E+00    0.4316473786E-04    0.4968309854E+00
    0.4500000000E+06    0.6789482081E+00    0.6444392121E-02    0.1780879565E+00    0.4211760311E-04    0.4970429428E+00
    0.4700000000E+06    0.6789949045E+00    0.6311773477E-02    0.1780882305E+00    0.4114069213E-04    0.4972425674E+00
    0.4900000000E+06    0.6790377227E+00    0.6187243540E-02    0.1780874445E+00    0.4022652806E-04    0.4974310717E+00
    0.1000000000E+06    0.6747712433E+00    0.1330312599E-01    0.1771794871E+00    0.9757606718E-04    0.4877582844E+00
    0.3000000000E+06    0.6783930787E+00    0.7823779754E-02    0.1780271558E+00    0.5248487965E-04    0.4950264486E+00
    0.5000000000E+06    0.6790578262E+00    0.6127758720E-02    0.1780867004E+00    0.3979093690E-04    0.4975214874E+00
    0.7000000000E+06    0.6793380869E+00    0.5216868264E-02    0.1780415862E+00    0.3320866036E-04    0.4989397267E+00
    0.9000000000E+06    0.6794932194E+00    0.4625647641E-02    0.1779713466E+00    0.2902624822E-04    0.4999008480E+00
    0.1100000000E+07    0.6795920239E+00    0.4201777145E-02    0.1778955288E+00    0.2607281074E-04    0.5006150312E+00
    0.1300000000E+07    0.6796606223E+00    0.3878503352E-02    0.1778203320E+00    0.2384662027E-04    0.5011768466E+00
    0.1500000000E+07    0.6797111215E+00    0.3621300489E-02    0.1777478892E+00    0.2209231219E-04    0.5016362851E+00
    0.1700000000E+07    0.6797499072E+00    0.3410264296E-02    0.1776788720E+00    0.2066448691E-04    0.5020227179E+00
    0.1900000000E+07    0.6797806694E+00    0.3232999798E-02    0.1776133794E+00    0.1947351076E-04    0.5023547485E+00
    0.2100000000E+07    0.6798056907E+00    0.3081328692E-02    0.1775512810E+00    0.1846074367E-04    0.5026448430E+00
    0.2300000000E+07    0.6798264600E+00    0.2949606132E-02    0.1774923601E+00    0.1758600656E-04    0.5029017294E+00
    0.2500000000E+07    0.6798439900E+00    0.2833792515E-02    0.1774363758E+00    0.1682073071E-04    0.5031317374E+00
    0.2700000000E+07    0.6798589942E+00    0.2730909964E-02    0.1773830906E+00    0.1614397647E-04    0.5033395917E+00
    0.2900000000E+07    0.6798719900E+00    0.2638708182E-02    0.1773322817E+00    0.1554000193E-04    0.5035289046E+00
    0.3100000000E+07    0.6798833616E+00    0.2555450538E-02    0.1772837449E+00    0.1499671546E-04    0.5037024956E+00
    0.3300000000E+07    0.6798934007E+00    0.2479772364E-02    0.1772372959E+00    0.1450465622E-04    0.5038626037E+00
    0.3500000000E+07    0.6799023326E+00    0.2410584313E-02    0.1771927686E+00    0.1405630207E-04    0.5040110344E+00
    0.3700000000E+07    0.6799103342E+00    0.2347004753E-02    0.1771500141E+00    0.1364558768E-04    0.5041492632E+00
    0.3900000000E+07    0.6799175466E+00    0.2288311412E-02    0.1771088991E+00    0.1326756115E-04    0.5042785104E+00
    0.4100000000E+07    0.6799240832E+00    0.2233906122E-02    0.1770693036E+00    0.1291813472E-04    0.5043997957E+00
    0.4300000000E+07    0.6799300368E+00    0.2183288653E-02    0.1770311198E+00    0.1259390029E-04    0.5045139790E+00
    0.4500000000E+07    0.6799354837E+00    0.2136036993E-02    0.1769942506E+00    0.1229199094E-04    0.5046217921E+00
    0.4700000000E+07    0.6799404874E+00    0.2091792279E-02    0.1769586082E+00    0.1200997536E-04    0.5047238624E+00
    0.4900000000E+07    0.6799451010E+00    0.2050247129E-02    0.1769241132E+00    0.1174577643E-04    0.5048207312E+00
    0.1000000000E+07    0.6795475356E+00    0.4398058192E-02    0.1779335991E+00    0.2743567132E-04    0.5002813961E+00
    0.3000000000E+07    0.6798778587E+00    0.2596054048E-02    0.1773077412E+00    0.1526141629E-04    0.5036175138E+00
    0.5000000000E+07    0.6799472758E+00    0.2030402622E-02    0.1769072732E+00    0.1161979002E-04    0.5048673646E+00
    0.7000000000E+07    0.6799782635E+00    0.1726631568E-02    0.1766162859E+00    0.9709149942E-05    0.5056144258E+00
    0.9000000000E+07    0.6799960829E+00    0.1529657128E-02    0.1763872413E+00    0.8489644466E-05    0.5061392694E+00
    0.1100000000E+08    0.6800077703E+00    0.1388575054E-02    0.1761980663E+00    0.7626613053E-05    0.5065403873E+00
    0.1300000000E+08    0.6800160835E+00    0.1281068172E-02    0.1760367501E+00    0.6975329438E-05    0.5068632776E+00
    0.1500000000E+08    0.6800223318E+00    0.1195597182E-02    0.1758960270E+00    0.6461751703E-05    0.5071325161E+00
    0.1700000000E+08    0.6800272195E+00    0.1125512996E-02    0.1757711620E+00    0.6043586199E-05    0.5073628107E+00
    0.1900000000E+08    0.6800311602E+00    0.1066677353E-02    0.1756588944E+00    0.5694704526E-05    0.5075636288E+00
    0.2100000000E+08    0.6800344137E+00    0.1016361318E-02    0.1755568814E+00    0.5397987433E-05    0.5077414059E+00
    0.2300000000E+08    0.6800371516E+00    0.9726823261E-03    0.1754633821E+00    0.5141692518E-05    0.5079007067E+00
    0.2500000000E+08    0.6800394919E+00    0.9342938368E-03    0.1753770669E+00    0.4917463875E-05    0.5080448803E+00
    0.2700000000E+08    0.6800415189E+00    0.9002036851E-03    0.1752968968E+00    0.4719173338E-05    0.5081764540E+00
