  Pressure (Pa) 22mC5-400 (mol/kg) 2mC6-400 (mol/kg) 3mC6-400 (mol/kg) 33mC5-400 (mol/kg) C7-400 (mol/kg)
    0.1000000000E+01    0.1059719536E-02    0.3944037618E-02    0.4703065173E-02    0.6423223013E-04    0.5087993007E-02
    0.3000000000E+01    0.3144875785E-02    0.1140956687E-01    0.1358912124E-01    0.1858624947E-03    0.1470388738E-01
    0.5000000000E+01    0.5185894194E-02    0.1836164253E-01    0.2184551197E-01    0.2991898138E-03    0.2364156900E-01
    0.7000000000E+01    0.7184568882E-02    0.2485277392E-01    0.2953917909E-01    0.4050648651E-03    0.3197303548E-01
    0.9000000000E+01    0.9142594403E-02    0.3092831276E-01    0.3672782234E-01    0.5042221169E-03    0.3976035184E-01
    0.1100000000E+02    0.1106157264E-01    0.3662765043E-01    0.4346144525E-01    0.5972992976E-03    0.4705731094E-01
    0.1300000000E+02    0.1294301915E-01    0.4198518146E-01    0.4978360039E-01    0.6848530584E-03    0.5391077131E-01
    0.1500000000E+02    0.1478836893E-01    0.4703108492E-01    0.5573240018E-01    0.7673716726E-03    0.6036174321E-01
    0.1700000000E+02    0.1659898182E-01    0.5179196254E-01    0.6134134326E-01    0.8452854045E-03    0.6644627648E-01
    0.1900000000E+02    0.1837614737E-01    0.5629136359E-01    0.6663999446E-01    0.9189750356E-03    0.7219619127E-01
    0.2100000000E+02    0.2012108942E-01    0.6055021911E-01    0.7165454782E-01    0.9887789169E-03    0.7763968307E-01
    0.2300000000E+02    0.2183497027E-01    0.6458720353E-01    0.7640829552E-01    0.1054998840E-02    0.8280182660E-01
    0.2500000000E+02    0.2351889457E-01    0.6841903731E-01    0.8092202041E-01    0.1117904948E-02    0.8770499785E-01
    0.2700000000E+02    0.2517391287E-01    0.7206074169E-01    0.8521432656E-01    0.1177739873E-02    0.9236922926E-01
    0.2900000000E+02    0.2680102497E-01    0.7552585417E-01    0.8930191868E-01    0.1234722229E-02    0.9681251016E-01
    0.3100000000E+02    0.2840118296E-01    0.7882661157E-01    0.9319983962E-01    0.1289049581E-02    0.1010510420E+00
    0.3300000000E+02    0.2997529410E-01    0.8197410641E-01    0.9692167303E-01    0.1340900982E-02    0.1050994564E+00
    0.3500000000E+02    0.3152422346E-01    0.8497842090E-01    0.1004797169E+00    0.1390439145E-02    0.1089710016E+00
    0.3700000000E+02    0.3304879638E-01    0.8784874227E-01    0.1038851331E+00    0.1437812311E-02    0.1126777032E+00
    0.3900000000E+02    0.3454980073E-01    0.9059346248E-01    0.1071480762E+00    0.1483155866E-02    0.1162305028E+00
    0.4100000000E+02    0.3602798911E-01    0.9322026466E-01    0.1102778053E+00    0.1526593740E-02    0.1196393783E+00
    0.4300000000E+02    0.3748408076E-01    0.9573619836E-01    0.1132827811E+00    0.1568239626E-02    0.1229134483E+00
    0.4500000000E+02    0.3891876349E-01    0.9814774529E-01    0.1161707507E+00    0.1608198043E-02    0.1260610631E+00
    0.4700000000E+02    0.4033269533E-01    0.1004608768E+00    0.1189488219E+00    0.1646565270E-02    0.1290898849E+00
    0.4900000000E+02    0.4172650621E-01    0.1026811046E+00    0.1216235280E+00    0.1683430164E-02    0.1320069573E+00
    0.1000000000E+02    0.1010686776E-01    0.3382274991E-01    0.4014865096E-01    0.5514841867E-03    0.4346704867E-01
    0.3000000000E+02    0.2760441550E-01    0.7719605882E-01    0.9127370703E-01    0.1262206182E-02    0.9895642079E-01
    0.5000000000E+02    0.4241605583E-01    0.1037579874E+00    0.1229240180E+00    0.1701325152E-02    0.1334256349E+00
    0.7000000000E+02    0.5528468106E-01    0.1214731072E+00    0.1447416392E+00    0.1997354263E-02    0.1572637128E+00
    0.9000000000E+02    0.6669292551E-01    0.1339007982E+00    0.1608572489E+00    0.2207656477E-02    0.1749265095E+00
    0.1100000000E+03    0.7696916050E-01    0.1429024269E+00    0.1733470488E+00    0.2362224061E-02    0.1886561871E+00
    0.1300000000E+03    0.8634534168E-01    0.1495568184E+00    0.1833742916E+00    0.2478450481E-02    0.1997103600E+00
    0.1500000000E+03    0.9499049230E-01    0.1545361352E+00    0.1916442634E+00    0.2567185591E-02    0.2088523465E+00
    0.1700000000E+03    0.1030310452E+00    0.1582822252E+00    0.1986110774E+00    0.2635573330E-02    0.2165741440E+00
    0.1900000000E+03    0.1105637131E+00    0.1610978002E+00    0.2045813002E+00    0.2688517967E-02    0.2232082402E+00
    0.2100000000E+03    0.1176639171E+00    0.1631971906E+00    0.2097699653E+00    0.2729500069E-02    0.2289880889E+00
    0.2300000000E+03    0.1243914733E+00    0.1647362847E+00    0.2143327418E+00    0.2761057834E-02    0.2340828648E+00
    0.2500000000E+03    0.1307945301E+00    0.1658310315E+00    0.2183853489E+00    0.2785084658E-02    0.2386184518E+00
    0.2700000000E+03    0.1369123568E+00    0.1665693251E+00    0.2220157705E+00    0.2803020350E-02    0.2426906561E+00
    0.2900000000E+03    0.1427773587E+00    0.1670188864E+00    0.2252922143E+00    0.2815978045E-02    0.2463738211E+00
    0.3100000000E+03    0.1484165605E+00    0.1672326359E+00    0.2282684580E+00    0.2824830781E-02    0.2497266180E+00
    0.3300000000E+03    0.1538527149E+00    0.1672524445E+00    0.2309875349E+00    0.2830272002E-02    0.2527960403E+00
    0.3500000000E+03    0.1591051442E+00    0.1671118050E+00    0.2334843361E+00    0.2832858703E-02    0.2556202249E+00
    0.3700000000E+03    0.1641903872E+00    0.1668377710E+00    0.2357874826E+00    0.2833042772E-02    0.2582304842E+00
    0.3900000000E+03    0.1691227021E+00    0.1664523860E+00    0.2379206998E+00    0.2831194134E-02    0.2606527980E+00
    0.4100000000E+03    0.1739144634E+00    0.1659737526E+00    0.2399038410E+00    0.2827618079E-02    0.2629089252E+00
    0.4300000000E+03    0.1785764759E+00    0.1654168427E+00    0.2417536618E+00    0.2822568419E-02    0.2650172463E+00
    0.4500000000E+03    0.1831182275E+00    0.1647941184E+00    0.2434844144E+00    0.2816257585E-02    0.2669934085E+00
    0.4700000000E+03    0.1875480937E+00    0.1641160135E+00    0.2451083071E+00    0.2808864472E-02    0.2688508272E+00
    0.4900000000E+03    0.1918735037E+00    0.1633913095E+00    0.2466358667E+00    0.2800540576E-02    0.2706010792E+00
    0.1000000000E+03    0.7195626294E-01    0.1387499265E+00    0.1674683858E+00    0.2290618569E-02    0.1821889730E+00
    0.3000000000E+03    0.1456236734E+00    0.1671523973E+00    0.2268149545E+00    0.2820870557E-02    0.2480883425E+00
    0.5000000000E+03    0.1939991349E+00    0.1630138501E+00    0.2473664227E+00    0.2796070655E-02    0.2714392108E+00
    0.7000000000E+03    0.2323128714E+00    0.1543234874E+00    0.2586102751E+00    0.2680779144E-02    0.2844389010E+00
    0.9000000000E+03    0.2647571748E+00    0.1451120808E+00    0.2659425338E+00    0.2546552289E-02    0.2930405900E+00
    0.1100000000E+04    0.2931093329E+00    0.1363191785E+00    0.2711996854E+00    0.2412148599E-02    0.2992870363E+00
    0.1300000000E+04    0.3183171248E+00    0.1281800328E+00    0.2752011792E+00    0.2283557013E-02    0.3040962474E+00
    0.1500000000E+04    0.3409669083E+00    0.1207259833E+00    0.2783751778E+00    0.2162714988E-02    0.3079509805E+00
    0.1700000000E+04    0.3614612938E+00    0.1139234429E+00    0.2809700771E+00    0.2050060405E-02    0.3111329725E+00
    0.1900000000E+04    0.3800982783E+00    0.1077192147E+00    0.2831411867E+00    0.1945427432E-02    0.3138193605E+00
    0.2100000000E+04    0.3971106982E+00    0.1020566446E+00    0.2849912484E+00    0.1848402334E-02    0.3161279404E+00
    0.2300000000E+04    0.4126876733E+00    0.9688153284E-01    0.2865912910E+00    0.1758477543E-02    0.3181405555E+00
    0.2500000000E+04    0.4269871196E+00    0.9214415397E-01    0.2879921914E+00    0.1675122382E-02    0.3199161073E+00
    0.2700000000E+04    0.4401435176E+00    0.8779973106E-01    0.2892314690E+00    0.1597816493E-02    0.3214982314E+00
    0.2900000000E+04    0.4522730117E+00    0.8380829229E-01    0.2903374765E+00    0.1526065535E-02    0.3229200459E+00
    0.3100000000E+04    0.4634769341E+00    0.8013429538E-01    0.2913320878E+00    0.1459408027E-02    0.3242072090E+00
    0.3300000000E+04    0.4738443553E+00    0.7674618395E-01    0.2922324823E+00    0.1397417609E-02    0.3253799539E+00
    0.3500000000E+04    0.4834540060E+00    0.7361594565E-01    0.2930523639E+00    0.1339702911E-02    0.3264544830E+00
    0.3700000000E+04    0.4923757775E+00    0.7071870042E-01    0.2938028134E+00    0.1285906160E-02    0.3274439471E+00
    0.3900000000E+04    0.5006719259E+00    0.6803232859E-01    0.2944928998E+00    0.1235701155E-02    0.3283591483E+00
    0.4100000000E+04    0.5083980619E+00    0.6553714041E-01    0.2951301255E+00    0.1188790984E-02    0.3292090542E+00
    0.4300000000E+04    0.5156039779E+00    0.6321558478E-01    0.2957207574E+00    0.1144905656E-02    0.3300011810E+00
    0.4500000000E+04    0.5223343499E+00    0.6105199381E-01    0.2962700758E+00    0.1103799779E-02    0.3307418826E+00
    0.4700000000E+04    0.5286293385E+00    0.5903235913E-01    0.2967825651E+00    0.1065250352E-02    0.3314365723E+00
    0.4900000000E+04    0.5345251073E+00    0.5714413640E-01    0.2972620613E+00    0.1029054689E-02    0.3320898952E+00
    0.1000000000E+04    0.2793738174E+00    0.1406409656E+00    0.2687660897E+00    0.2478851819E-02    0.2963861966E+00
    0.3000000000E+04    0.4579848400E+00    0.8193367401E-01    0.2908475394E+00    0.1492127577E-02    0.3235790860E+00
    0.5000000000E+04    0.5373336049E+00    0.5624574220E-01    0.2974904874E+00    0.1011781259E-02    0.3324023193E+00
    0.7000000000E+04    0.5789528548E+00    0.4299008090E-01    0.3009310416E+00    0.7532388303E-03    0.3372167551E+00
    0.9000000000E+04    0.6034517886E+00    0.3518259939E-01    0.3030938832E+00    0.5983065764E-03    0.3403771134E+00
    0.1100000000E+05    0.6191747726E+00    0.3011495683E-01    0.3046010288E+00    0.4973053961E-03    0.3426650996E+00
    0.1300000000E+05    0.6299449854E+00    0.2658052724E-01    0.3057212107E+00    0.4270791110E-03    0.3444257420E+00
    0.1500000000E+05    0.6377011941E+00    0.2397792440E-01    0.3065915069E+00    0.3757561104E-03    0.3458383333E+00
    0.1700000000E+05    0.6435105795E+00    0.2197946367E-01    0.3072899153E+00    0.3367478541E-03    0.3470066196E+00
    0.1900000000E+05    0.6480008314E+00    0.2039338764E-01    0.3078644131E+00    0.3061524430E-03    0.3479954162E+00
    0.2100000000E+05    0.6515616851E+00    0.1910079359E-01    0.3083462911E+00    0.2815322573E-03    0.3488476173E+00
    0.2300000000E+05    0.6544462147E+00    0.1802435521E-01    0.3087569114E+00    0.2612953139E-03    0.3495929147E+00
    0.2500000000E+05    0.6568250383E+00    0.1711174471E-01    0.3091114031E+00    0.2443623673E-03    0.3502526160E+00
    0.2700000000E+05    0.6588169030E+00    0.1632634118E-01    0.3094208092E+00    0.2299781847E-03    0.3508424716E+00
    0.2900000000E+05    0.6605067409E+00    0.1564176979E-01    0.3096933955E+00    0.2175996704E-03    0.3513744158E+00
    0.3100000000E+05    0.6619567500E+00    0.1503855876E-01    0.3099354835E+00    0.2068269422E-03    0.3518576830E+00
    0.3300000000E+05    0.6632134290E+00    0.1450201955E-01    0.3101519977E+00    0.1973594207E-03    0.3522995488E+00
    0.3500000000E+05    0.6643121770E+00    0.1402086039E-01    0.3103468358E+00    0.1889670197E-03    0.3527058360E+00
    0.3700000000E+05    0.6652803800E+00    0.1358625465E-01    0.3105231268E+00    0.1814707478E-03    0.3530812693E+00
    0.3900000000E+05    0.6661395318E+00    0.1319119951E-01    0.3106834140E+00    0.1747293405E-03    0.3534297289E+00
    0.4100000000E+05    0.6669067200E+00    0.1283006489E-01    0.3108297875E+00    0.1686298573E-03    0.3537544364E+00
    0.4300000000E+05    0.6675956884E+00    0.1249827015E-01    0.3109639825E+00    0.1630809429E-03    0.3540580927E+00
    0.4500000000E+05    0.6682176083E+00    0.1219204807E-01    0.3110874520E+00    0.1580079162E-03    0.3543429819E+00
    0.4700000000E+05    0.6687816475E+00    0.1190827008E-01    0.3112014229E+00    0.1533491364E-03    0.3546110507E+00
    0.4900000000E+05    0.6692953960E+00    0.1164431478E-01    0.3113069391E+00    0.1490532767E-03    0.3548639709E+00
    0.1000000000E+05    0.6121084553E+00    0.3240210022E-01    0.3039081420E+00    0.5428863668E-03    0.3416029815E+00
    0.3000000000E+05    0.6612585129E+00    0.1533100538E-01    0.3098179163E+00    0.2120333024E-03    0.3516216402E+00
    0.5000000000E+05    0.6695354325E+00    0.1151906499E-01    0.3113568111E+00    0.1470277022E-03    0.3549852094E+00
    0.7000000000E+05    0.6727957700E+00    0.9661706362E-02    0.3120723366E+00    0.1180091780E-03    0.3568807835E+00
    0.9000000000E+05    0.6745213307E+00    0.8507362592E-02    0.3124789048E+00    0.1009827572E-03    0.3581590601E+00
    0.1100000000E+06    0.6755853479E+00    0.7698954073E-02    0.3127349327E+00    0.8953201892E-04    0.3591057925E+00
    0.1300000000E+06    0.6763058842E+00    0.7091105546E-02    0.3129062501E+00    0.8117785885E-04    0.3598487747E+00
    0.1500000000E+06    0.6768257426E+00    0.6611960153E-02    0.3130252977E+00    0.7474520200E-04    0.3604552667E+00
    0.1700000000E+06    0.6772183622E+00    0.6221328155E-02    0.3131099534E+00    0.6959885083E-04    0.3609646560E+00
    0.1900000000E+06    0.6775253071E+00    0.5894712141E-02    0.3131708843E+00    0.6536238924E-04    0.3614018242E+00
    0.2100000000E+06    0.6777718431E+00    0.5616201189E-02    0.3132148459E+00    0.6179706441E-04    0.3617834086E+00
    0.2300000000E+06    0.6779742028E+00    0.5374943916E-02    0.3132463193E+00    0.5874330400E-04    0.3621210364E+00
    0.2500000000E+06    0.6781432868E+00    0.5163246884E-02    0.3132683894E+00    0.5608993271E-04    0.3624231269E+00
    0.2700000000E+06    0.6782866849E+00    0.4975480644E-02    0.3132832453E+00    0.5375683287E-04    0.3626959558E+00
    0.2900000000E+06    0.6784098432E+00    0.4807416649E-02    0.3132924806E+00    0.5168462864E-04    0.3629443163E+00
    0.3100000000E+06    0.6785167704E+00    0.4655807626E-02    0.3132972803E+00    0.4982826561E-04    0.3631719450E+00
    0.3300000000E+06    0.6786104824E+00    0.4518112265E-02    0.3132985417E+00    0.4815286074E-04    0.3633818067E+00
    0.3500000000E+06    0.6786932915E+00    0.4392308928E-02    0.3132969553E+00    0.4663093191E-04    0.3635762902E+00
    0.3700000000E+06    0.6787670005E+00    0.4276766230E-02    0.3132930599E+00    0.4524049641E-04    0.3637573464E+00
    0.3900000000E+06    0.6788330351E+00    0.4170151000E-02    0.3132872810E+00    0.4396373386E-04    0.3639265874E+00
    0.4100000000E+06    0.6788925381E+00    0.4071361510E-02    0.3132799581E+00    0.4278602578E-04    0.3640853592E+00
    0.4300000000E+06    0.6789464359E+00    0.3979478129E-02    0.3132713647E+00    0.4169525270E-04    0.3642347969E+00
    0.4500000000E+06    0.6789954876E+00    0.3893726285E-02    0.3132617234E+00    0.4068127092E-04    0.3643758656E+00
    0.4700000000E+06    0.6790403210E+00    0.3813448246E-02    0.3132512160E+00    0.3973551716E-04    0.3645093920E+00
    0.4900000000E+06    0.6790814600E+00    0.3738081344E-02    0.3132399928E+00    0.3885070574E-04    0.3646360898E+00
    0.1000000000E+06    0.6751098997E+00    0.8071548464E-02    0.3126204738E+00    0.9476119282E-04    0.3586638415E+00
    0.3000000000E+06    0.6784651279E+00    0.4729728122E-02    0.3132953732E+00    0.5073184788E-04    0.3630605214E+00
    0.5000000000E+06    0.6791007844E+00    0.3702085468E-02    0.3132341526E+00    0.3842916707E-04    0.3646970747E+00
    0.7000000000E+06    0.6793707760E+00    0.3151266048E-02    0.3131009816E+00    0.3206423619E-04    0.3656733829E+00
    0.9000000000E+06    0.6795206206E+00    0.2794108921E-02    0.3129615395E+00    0.2802445250E-04    0.3663586497E+00
    0.1100000000E+07    0.6796161413E+00    0.2538199528E-02    0.3128286839E+00    0.2517360375E-04    0.3668821035E+00
    0.1300000000E+07    0.6796824630E+00    0.2343099490E-02    0.3127049411E+00    0.2302564405E-04    0.3673033410E+00
    0.1500000000E+07    0.6797312672E+00    0.2187914673E-02    0.3125902179E+00    0.2133346532E-04    0.3676545181E+00
    0.1700000000E+07    0.6797687269E+00    0.2060608238E-02    0.3124837355E+00    0.1995648047E-04    0.3679548639E+00
    0.1900000000E+07    0.6797984140E+00    0.1953688571E-02    0.3123845956E+00    0.1880807391E-04    0.3682167484E+00
    0.2100000000E+07    0.6798225395E+00    0.1862214748E-02    0.3122919525E+00    0.1783160602E-04    0.3684485766E+00
    0.2300000000E+07    0.6798425464E+00    0.1782777593E-02    0.3122050585E+00    0.1698828263E-04    0.3686563076E+00
    0.2500000000E+07    0.6798594167E+00    0.1712938084E-02    0.3121232681E+00    0.1625052784E-04    0.3688443129E+00
    0.2700000000E+07    0.6798738419E+00    0.1650898660E-02    0.3120460280E+00    0.1559813467E-04    0.3690158898E+00
    0.2900000000E+07    0.6798863238E+00    0.1595301215E-02    0.3119728642E+00    0.1501591509E-04    0.3691735847E+00
    0.3100000000E+07    0.6798972349E+00    0.1545097826E-02    0.3119033696E+00    0.1449220493E-04    0.3693194024E+00
    0.3300000000E+07    0.6799068580E+00    0.1499465136E-02    0.3118371933E+00    0.1401787912E-04    0.3694549492E+00
    0.3500000000E+07    0.6799154113E+00    0.1457745977E-02    0.3117740309E+00    0.1358568343E-04    0.3695815306E+00
    0.3700000000E+07    0.6799230663E+00    0.1419408546E-02    0.3117136176E+00    0.1318976912E-04    0.3697002214E+00
    0.3900000000E+07    0.6799299596E+00    0.1384017205E-02    0.3116557214E+00    0.1282536162E-04    0.3698119170E+00
    0.4100000000E+07    0.6799362011E+00    0.1351211199E-02    0.3116001382E+00    0.1248851986E-04    0.3699173706E+00
    0.4300000000E+07    0.6799418806E+00    0.1320688859E-02    0.3115466877E+00    0.1217595827E-04    0.3700172215E+00
    0.4500000000E+07    0.6799470719E+00    0.1292195702E-02    0.3114952096E+00    0.1188491315E-04    0.3701120170E+00
    0.4700000000E+07    0.6799518363E+00    0.1265515339E-02    0.3114455613E+00    0.1161304090E-04    0.3702022290E+00
    0.4900000000E+07    0.6799562255E+00    0.1240462429E-02    0.3113976148E+00    0.1135833939E-04    0.3702882673E+00
    0.1000000000E+07    0.6795731275E+00    0.2656688481E-02    0.3128940278E+00    0.2648894551E-04    0.3666359614E+00
    0.3000000000E+07    0.6798919563E+00    0.1569581199E-02    0.3119376814E+00    0.1474736712E-04    0.3692478698E+00
    0.5000000000E+07    0.6799582931E+00    0.1228495461E-02    0.3113742434E+00    0.1123688001E-04    0.3703298349E+00
    0.7000000000E+07    0.6799876359E+00    0.1045291678E-02    0.3109735530E+00    0.9394683731E-05    0.3710092141E+00
    0.9000000000E+07    0.6800043774E+00    0.9264691636E-03    0.3106615182E+00    0.8218561698E-05    0.3715022035E+00
    0.1100000000E+08    0.6800152823E+00    0.8413433360E-03    0.3104054914E+00    0.7386021743E-05    0.3718880316E+00
    0.1300000000E+08    0.6800229910E+00    0.7764618590E-03    0.3101881537E+00    0.6757599633E-05    0.3722044300E+00
    0.1500000000E+08    0.6800287525E+00    0.7248687676E-03    0.3099991900E+00    0.6261941007E-05    0.3724722674E+00
    0.1700000000E+08    0.6800332361E+00    0.6825556632E-03    0.3098319495E+00    0.5858283778E-05    0.3727042768E+00
    0.1900000000E+08    0.6800368336E+00    0.6470275865E-03    0.3096818881E+00    0.5521443224E-05    0.3729087887E+00
    0.2100000000E+08    0.6800397905E+00    0.6166391155E-03    0.3095457608E+00    0.5234916688E-05    0.3730915458E+00
    0.2300000000E+08    0.6800422683E+00    0.5902550453E-03    0.3094211680E+00    0.4987383523E-05    0.3732566717E+00
    0.2500000000E+08    0.6800443779E+00    0.5670633255E-03    0.3093062841E+00    0.4770787116E-05    0.3734072252E+00
    0.2700000000E+08    0.6800461981E+00    0.5464655626E-03    0.3091996877E+00    0.4579218207E-05    0.3735455370E+00
