  Pressure (Pa) 22mC5-400 (mol/kg) 2mC6-400 (mol/kg) 3mC6-400 (mol/kg) 33mC5-400 (mol/kg) C7-400 (mol/kg)
    0.1000000000E+01    0.1060198916E-02    0.3174259471E-02    0.3683956488E-02    0.3876919820E-03    0.1708002286E-02
    0.3000000000E+01    0.3149072147E-02    0.9287913884E-02    0.1078910936E-01    0.1134525563E-02    0.5002720448E-02
    0.5000000000E+01    0.5197236358E-02    0.1510678612E-01    0.1756526986E-01    0.1845526913E-02    0.8145566764E-02
    0.7000000000E+01    0.7206208411E-02    0.2065111799E-01    0.2403590472E-01    0.2523158347E-02    0.1114735898E-01
    0.9000000000E+01    0.9177427994E-02    0.2593930603E-01    0.3022227554E-01    0.3169657413E-02    0.1401789904E-01
    0.1100000000E+02    0.1111226252E-01    0.3098811030E-01    0.3614369274E-01    0.3787062359E-02    0.1676609006E-01
    0.1300000000E+02    0.1301201166E-01    0.3581283528E-01    0.4181773525E-01    0.4377234180E-02    0.1940003741E-01
    0.1500000000E+02    0.1487791152E-01    0.4042748698E-01    0.4726044106E-01    0.4941875781E-02    0.2192713652E-01
    0.1700000000E+02    0.1671113855E-01    0.4484490996E-01    0.5248647313E-01    0.5482548669E-02    0.2435414927E-01
    0.1900000000E+02    0.1851281312E-01    0.4907690712E-01    0.5750926429E-01    0.6000687562E-02    0.2668727070E-01
    0.2100000000E+02    0.2028400287E-01    0.5313434491E-01    0.6234114413E-01    0.6497613202E-02    0.2893218749E-01
    0.2300000000E+02    0.2202572581E-01    0.5702724573E-01    0.6699345057E-01    0.6974543623E-02    0.3109412930E-01
    0.2500000000E+02    0.2373895323E-01    0.6076486970E-01    0.7147662801E-01    0.7432604103E-02    0.3317791399E-01
    0.2700000000E+02    0.2542461235E-01    0.6435578678E-01    0.7580031408E-01    0.7872835956E-02    0.3518798762E-01
    0.2900000000E+02    0.2708358883E-01    0.6780794093E-01    0.7997341652E-01    0.8296204347E-02    0.3712845979E-01
    0.3100000000E+02    0.2871672913E-01    0.7112870705E-01    0.8400418128E-01    0.8703605224E-02    0.3900313510E-01
    0.3300000000E+02    0.3032484266E-01    0.7432494182E-01    0.8790025325E-01    0.9095871508E-02    0.4081554104E-01
    0.3500000000E+02    0.3190870381E-01    0.7740302907E-01    0.9166873033E-01    0.9473778623E-02    0.4256895296E-01
    0.3700000000E+02    0.3346905388E-01    0.8036892042E-01    0.9531621179E-01    0.9838049438E-02    0.4426641632E-01
    0.3900000000E+02    0.3500660280E-01    0.8322817180E-01    0.9884884151E-01    0.1018935871E-01    0.4591076664E-01
    0.4100000000E+02    0.3652203086E-01    0.8598597621E-01    0.1022723469E+00    0.1052833709E-01    0.4750464740E-01
    0.4300000000E+02    0.3801599021E-01    0.8864719329E-01    0.1055920738E+00    0.1085557470E-01    0.4905052616E-01
    0.4500000000E+02    0.3948910635E-01    0.9121637598E-01    0.1088130180E+00    0.1117162437E-01    0.5055070901E-01
    0.4700000000E+02    0.4094197949E-01    0.9369779469E-01    0.1119398534E+00    0.1147700462E-01    0.5200735369E-01
    0.4900000000E+02    0.4237518584E-01    0.9609545911E-01    0.1149769580E+00    0.1177220227E-01    0.5342248141E-01
    0.1000000000E+02    0.1014931062E-01    0.2849264244E-01    0.3321496644E-01    0.3481876422E-02    0.1540676399E-01
    0.3000000000E+02    0.2790333707E-01    0.6948430736E-01    0.8200609988E-01    0.8501847257E-02    0.3807379540E-01
    0.5000000000E+02    0.4308458777E-01    0.9726407013E-01    0.1164631542E+00    0.1191612669E-01    0.5411507336E-01
    0.7000000000E+02    0.5636375118E-01    0.1170442343E+00    0.1423488031E+00    0.1435775719E-01    0.6619021754E-01
    0.9000000000E+02    0.6818906446E-01    0.1316122882E+00    0.1626703545E+00    0.1616510570E-01    0.7568816472E-01
    0.1100000000E+03    0.7887240902E-01    0.1426011753E+00    0.1791567590E+00    0.1753634998E-01    0.8340798674E-01
    0.1300000000E+03    0.8863811495E-01    0.1510330282E+00    0.1928759803E+00    0.1859554409E-01    0.8984359663E-01
    0.1500000000E+03    0.9765209224E-01    0.1575807471E+00    0.2045252974E+00    0.1942437784E-01    0.9531768386E-01
    0.1700000000E+03    0.1060399838E+00    0.1627052873E+00    0.2145805206E+00    0.2007883590E-01    0.1000505873E+00
    0.1900000000E+03    0.1138988977E+00    0.1667327443E+00    0.2233782428E+00    0.2059854791E-01    0.1041982752E+00
    0.2100000000E+03    0.1213052300E+00    0.1699000338E+00    0.2311638135E+00    0.2101232753E-01    0.1078745068E+00
    0.2300000000E+03    0.1283200257E+00    0.1723831817E+00    0.2381206545E+00    0.2134160224E-01    0.1111643801E+00
    0.2500000000E+03    0.1349927395E+00    0.1743155007E+00    0.2443888932E+00    0.2160261683E-01    0.1141329458E+00
    0.2700000000E+03    0.1413639315E+00    0.1757996387E+00    0.2500776058E+00    0.2180789398E-01    0.1168308705E+00
    0.2900000000E+03    0.1474672350E+00    0.1769157827E+00    0.2552731003E+00    0.2196722879E-01    0.1192982680E+00
    0.3100000000E+03    0.1533308175E+00    0.1777273751E+00    0.2600446610E+00    0.2208838195E-01    0.1215673591E+00
    0.3300000000E+03    0.1589784827E+00    0.1782851804E+00    0.2644486232E+00    0.2217757287E-01    0.1236643573E+00
    0.3500000000E+03    0.1644305115E+00    0.1786302302E+00    0.2685313206E+00    0.2223983690E-01    0.1256108348E+00
    0.3700000000E+03    0.1697043139E+00    0.1787959908E+00    0.2723312544E+00    0.2227928843E-01    0.1274247272E+00
    0.3900000000E+03    0.1748149381E+00    0.1788099821E+00    0.2758807161E+00    0.2229931728E-01    0.1291210855E+00
    0.4100000000E+03    0.1797754742E+00    0.1786950022E+00    0.2792070184E+00    0.2230273751E-01    0.1307126472E+00
    0.4300000000E+03    0.1845973755E+00    0.1784700653E+00    0.2823334406E+00    0.2229190130E-01    0.1322102747E+00
    0.4500000000E+03    0.1892907181E+00    0.1781511276E+00    0.2852799647E+00    0.2226878719E-01    0.1336232968E+00
    0.4700000000E+03    0.1938644115E+00    0.1777516546E+00    0.2880638532E+00    0.2223506906E-01    0.1349597770E+00
    0.4900000000E+03    0.1983263708E+00    0.1772830686E+00    0.2907001084E+00    0.2219217060E-01    0.1362267267E+00
    0.1000000000E+03    0.7365782039E-01    0.1374798353E+00    0.1713150748E+00    0.1689622466E-01    0.7973433293E-01
    0.3000000000E+03    0.1504274123E+00    0.1773562169E+00    0.2577080870E+00    0.2203215797E-01    0.1204558408E+00
    0.5000000000E+03    0.2005176872E+00    0.1770259582E+00    0.2919670357E+00    0.2216766609E-01    0.1368360737E+00
    0.7000000000E+03    0.2398520057E+00    0.1699904367E+00    0.3120121123E+00    0.2141379705E-01    0.1465228067E+00
    0.9000000000E+03    0.2729164845E+00    0.1616341173E+00    0.3257178376E+00    0.2045053092E-01    0.1532037874E+00
    0.1100000000E+04    0.3016284211E+00    0.1533413113E+00    0.3359164540E+00    0.1946188795E-01    0.1582121665E+00
    0.1300000000E+04    0.3270147778E+00    0.1455248889E+00    0.3439205437E+00    0.1850830384E-01    0.1621685397E+00
    0.1500000000E+04    0.3497124974E+00    0.1382962904E+00    0.3504369497E+00    0.1761029474E-01    0.1654084464E+00
    0.1700000000E+04    0.3701592056E+00    0.1316611218E+00    0.3558863901E+00    0.1677343354E-01    0.1681323343E+00
    0.1900000000E+04    0.3886783900E+00    0.1255865393E+00    0.3605379042E+00    0.1599723485E-01    0.1704688196E+00
    0.2100000000E+04    0.4055220173E+00    0.1200269856E+00    0.3645730863E+00    0.1527871055E-01    0.1725049890E+00
    0.2300000000E+04    0.4208938145E+00    0.1149346005E+00    0.3681197894E+00    0.1461391202E-01    0.1743023388E+00
    0.2500000000E+04    0.4349629507E+00    0.1102634733E+00    0.3712711321E+00    0.1399863388E-01    0.1759057837E+00
    0.2700000000E+04    0.4478726015E+00    0.1059712713E+00    0.3740968481E+00    0.1342874207E-01    0.1773490478E+00
    0.2900000000E+04    0.4597456239E+00    0.1020197091E+00    0.3766503879E+00    0.1290032396E-01    0.1786580458E+00
    0.3100000000E+04    0.4706885102E+00    0.9837450452E-01    0.3789735379E+00    0.1240975067E-01    0.1798530860E+00
    0.3300000000E+04    0.4807942689E+00    0.9500511594E-01    0.3810995252E+00    0.1195369511E-01    0.1809503535E+00
    0.3500000000E+04    0.4901446049E+00    0.9188439878E-01    0.3830551630E+00    0.1152912763E-01    0.1819629380E+00
    0.3700000000E+04    0.4988116230E+00    0.8898824725E-01    0.3848623711E+00    0.1113330058E-01    0.1829015629E+00
    0.3900000000E+04    0.5068591943E+00    0.8629525095E-01    0.3865392745E+00    0.1076372794E-01    0.1837751129E+00
    0.4100000000E+04    0.5143440735E+00    0.8378637931E-01    0.3881010144E+00    0.1041816320E-01    0.1845910246E+00
    0.4300000000E+04    0.5213168293E+00    0.8144469785E-01    0.3895603556E+00    0.1009457732E-01    0.1853555790E+00
    0.4500000000E+04    0.5278226273E+00    0.7925511653E-01    0.3909281483E+00    0.9791137685E-02    0.1860741248E+00
    0.4700000000E+04    0.5339018956E+00    0.7720416811E-01    0.3922136847E+00    0.9506188485E-02    0.1867512507E+00
    0.4900000000E+04    0.5395908958E+00    0.7527981381E-01    0.3934249770E+00    0.9238232708E-02    0.1873909197E+00
    0.1000000000E+04    0.2877397131E+00    0.1574429454E+00    0.3311532947E+00    0.1995416805E-01    0.1558687691E+00
    0.3000000000E+04    0.4653272333E+00    0.1001608048E+00    0.3778385132E+00    0.1265052175E-01    0.1792687162E+00
    0.5000000000E+04    0.5422993602E+00    0.7436169566E-01    0.3940049903E+00    0.9110198908E-02    0.1876978021E+00
    0.7000000000E+04    0.5823425035E+00    0.6055535020E-01    0.4029958199E+00    0.7174421125E-02    0.1925091735E+00
    0.9000000000E+04    0.6058688036E+00    0.5206754057E-01    0.4089319953E+00    0.5983523817E-02    0.1957530899E+00
    0.1100000000E+05    0.6209756311E+00    0.4631562636E-01    0.4132291728E+00    0.5183711975E-02    0.1981440350E+00
    0.1300000000E+05    0.6313389621E+00    0.4213749610E-01    0.4165255007E+00    0.4610536628E-02    0.2000077501E+00
    0.1500000000E+05    0.6388154422E+00    0.3894422169E-01    0.4191573123E+00    0.4179175038E-02    0.2015175902E+00
    0.1700000000E+05    0.6444255495E+00    0.3640840744E-01    0.4213211466E+00    0.3842050290E-02    0.2027757384E+00
    0.1900000000E+05    0.6487694126E+00    0.3433427758E-01    0.4231406470E+00    0.3570617327E-02    0.2038469890E+00
    0.2100000000E+05    0.6522198571E+00    0.3259771815E-01    0.4246980417E+00    0.3346786881E-02    0.2047747506E+00
    0.2300000000E+05    0.6550191990E+00    0.3111621176E-01    0.4260504440E+00    0.3158567682E-02    0.2055893814E+00
    0.2500000000E+05    0.6573309847E+00    0.2983269623E-01    0.4272389338E+00    0.2997706555E-02    0.2063128594E+00
    0.2700000000E+05    0.6592691765E+00    0.2870639076E-01    0.4282939201E+00    0.2858340055E-02    0.2069615538E+00
    0.2900000000E+05    0.6609153837E+00    0.2770732536E-01    0.4292384612E+00    0.2736188134E-02    0.2075479499E+00
    0.3100000000E+05    0.6623294443E+00    0.2681294203E-01    0.4300904030E+00    0.2628052706E-02    0.2080817654E+00
    0.3300000000E+05    0.6635561459E+00    0.2600590707E-01    0.4308638027E+00    0.2531495056E-02    0.2085706959E+00
    0.3500000000E+05    0.6646296243E+00    0.2527265899E-01    0.4315699042E+00    0.2444622078E-02    0.2090209292E+00
    0.3700000000E+05    0.6655763176E+00    0.2460241827E-01    0.4322178229E+00    0.2365940877E-02    0.2094375068E+00
    0.3900000000E+05    0.6664169973E+00    0.2398649595E-01    0.4328150373E+00    0.2294257560E-02    0.2098245848E+00
    0.4100000000E+05    0.6671681936E+00    0.2341780033E-01    0.4333677483E+00    0.2228605318E-02    0.2101856257E+00
    0.4300000000E+05    0.6678432150E+00    0.2289047848E-01    0.4338811468E+00    0.2168192370E-02    0.2105235413E+00
    0.4500000000E+05    0.6684528884E+00    0.2239965119E-01    0.4343596159E+00    0.2112363648E-02    0.2108408010E+00
    0.4700000000E+05    0.6690061069E+00    0.2194121389E-01    0.4348068852E+00    0.2060572169E-02    0.2111395151E+00
    0.4900000000E+05    0.6695102392E+00    0.2151168515E-01    0.4352261513E+00    0.2012357341E-02    0.2114215001E+00
    0.1000000000E+05    0.6141840179E+00    0.4894149364E-01    0.4112354298E+00    0.5547657179E-02    0.1970297191E+00
    0.3000000000E+05    0.6616483406E+00    0.2724823445E-01    0.4296750528E+00    0.2680535661E-02    0.2078209088E+00
    0.5000000000E+05    0.6697458616E+00    0.2130681463E-01    0.4354261598E+00    0.1989466684E-02    0.2115567192E+00
    0.7000000000E+05    0.6729512382E+00    0.1818882642E-01    0.4384621381E+00    0.1649578093E-02    0.2136736477E+00
    0.9000000000E+05    0.6746512449E+00    0.1617668164E-01    0.4403964302E+00    0.1438652142E-02    0.2151019033E+00
    0.1100000000E+06    0.6757004026E+00    0.1473524517E-01    0.4417584828E+00    0.1291537167E-02    0.2161584329E+00
    0.1300000000E+06    0.6764110423E+00    0.1363488315E-01    0.4427795917E+00    0.1181431655E-02    0.2169860043E+00
    0.1500000000E+06    0.6769237019E+00    0.1275804260E-01    0.4435787891E+00    0.1095036726E-02    0.2176600666E+00
    0.1700000000E+06    0.6773107604E+00    0.1203731095E-01    0.4442243086E+00    0.1024907761E-02    0.2182249099E+00
    0.1900000000E+06    0.6776132218E+00    0.1143082033E-01    0.4447583895E+00    0.9665097396E-03    0.2187085524E+00
    0.2100000000E+06    0.6778560278E+00    0.1091097920E-01    0.4452087354E+00    0.9169013070E-03    0.2191297430E+00
    0.2300000000E+06    0.6780552096E+00    0.1045874973E-01    0.4455943540E+00    0.8740800586E-03    0.2195015890E+00
    0.2500000000E+06    0.6782215359E+00    0.1006050545E-01    0.4459287678E+00    0.8366291828E-03    0.2198335814E+00
    0.2700000000E+06    0.6783625054E+00    0.9706196203E-02    0.4462218879E+00    0.8035141530E-03    0.2201327938E+00
    0.2900000000E+06    0.6784834992E+00    0.9388221990E-02    0.4464811610E+00    0.7739595425E-03    0.2204046265E+00
    0.3100000000E+06    0.6785884783E+00    0.9100712752E-02    0.4467123023E+00    0.7473711318E-03    0.2206532875E+00
    0.3300000000E+06    0.6786804224E+00    0.8839051556E-02    0.4469197782E+00    0.7232848529E-03    0.2208821138E+00
    0.3500000000E+06    0.6787616160E+00    0.8599549451E-02    0.4471071350E+00    0.7013322864E-03    0.2210937924E+00
    0.3700000000E+06    0.6788338396E+00    0.8379218019E-02    0.4472772275E+00    0.6812167181E-03    0.2212905161E+00
    0.3900000000E+06    0.6788985014E+00    0.8175606670E-02    0.4474323826E+00    0.6626961380E-03    0.2214740958E+00
    0.4100000000E+06    0.6789567298E+00    0.7986683942E-02    0.4475745176E+00    0.6455709204E-03    0.2216460423E+00
    0.4300000000E+06    0.6790094393E+00    0.7810749389E-02    0.4477052277E+00    0.6296747338E-03    0.2218076287E+00
    0.4500000000E+06    0.6790573792E+00    0.7646367133E-02    0.4478258522E+00    0.6148677265E-03    0.2219599366E+00
    0.4700000000E+06    0.6791011689E+00    0.7492315054E-02    0.4479375245E+00    0.6010313419E-03    0.2221038917E+00
    0.4900000000E+06    0.6791413253E+00    0.7347545443E-02    0.4480412106E+00    0.5880643240E-03    0.2222402926E+00
    0.1000000000E+06    0.6752315350E+00    0.1540280030E-01    0.4411307222E+00    0.1359259592E-02    0.2156654466E+00
    0.3000000000E+06    0.6785377853E+00    0.9240972787E-02    0.4465999442E+00    0.7603261496E-03    0.2205316275E+00
    0.5000000000E+06    0.6791601795E+00    0.7278354118E-02    0.4480903227E+00    0.5818791345E-03    0.2223058804E+00
    0.7000000000E+06    0.6794228738E+00    0.6215784604E-02    0.4488040531E+00    0.4879174648E-03    0.2233495532E+00
    0.9000000000E+06    0.6795678603E+00    0.5523128714E-02    0.4492204119E+00    0.4277508053E-03    0.2240744896E+00
    0.1100000000E+07    0.6796598244E+00    0.5025109443E-02    0.4494895844E+00    0.3850579830E-03    0.2246236964E+00
    0.1300000000E+07    0.6797233868E+00    0.4644481215E-02    0.4496747991E+00    0.3527685098E-03    0.2250626730E+00
    0.1500000000E+07    0.6797699639E+00    0.4341143331E-02    0.4498075563E+00    0.3272583647E-03    0.2254265501E+00
    0.1700000000E+07    0.6798055739E+00    0.4091914856E-02    0.4499053836E+00    0.3064538030E-03    0.2257362257E+00
    0.1900000000E+07    0.6798336907E+00    0.3882329868E-02    0.4499788321E+00    0.2890716195E-03    0.2260050807E+00
    0.2100000000E+07    0.6798564602E+00    0.3702827306E-02    0.4500346394E+00    0.2742698222E-03    0.2262421688E+00
    0.2300000000E+07    0.6798752795E+00    0.3546798467E-02    0.4500773104E+00    0.2614700984E-03    0.2264538840E+00
    0.2500000000E+07    0.6798910978E+00    0.3409508191E-02    0.4501099703E+00    0.2502604158E-03    0.2266449007E+00
    0.2700000000E+07    0.6799045822E+00    0.3287462139E-02    0.4501348538E+00    0.2403382529E-03    0.2268187332E+00
    0.2900000000E+07    0.6799162157E+00    0.3178017245E-02    0.4501535998E+00    0.2314758419E-03    0.2269780872E+00
    0.3100000000E+07    0.6799263563E+00    0.3079132046E-02    0.4501674359E+00    0.2234980021E-03    0.2271250874E+00
    0.3300000000E+07    0.6799352752E+00    0.2989201114E-02    0.4501772991E+00    0.2162675077E-03    0.2272614312E+00
    0.3500000000E+07    0.6799431816E+00    0.2906942027E-02    0.4501839156E+00    0.2096751397E-03    0.2273884950E+00
    0.3700000000E+07    0.6799502395E+00    0.2831316230E-02    0.4501878563E+00    0.2036327484E-03    0.2275074095E+00
    0.3900000000E+07    0.6799565790E+00    0.2761472401E-02    0.4501895758E+00    0.1980683053E-03    0.2276191143E+00
    0.4100000000E+07    0.6799623052E+00    0.2696705107E-02    0.4501894397E+00    0.1929223041E-03    0.2277243984E+00
    0.4300000000E+07    0.6799675034E+00    0.2636424120E-02    0.4501877448E+00    0.1881450972E-03    0.2278239301E+00
    0.4500000000E+07    0.6799722437E+00    0.2580131265E-02    0.4501847347E+00    0.1836948925E-03    0.2279182805E+00
    0.4700000000E+07    0.6799765844E+00    0.2527402724E-02    0.4501806103E+00    0.1795362265E-03    0.2280079412E+00
    0.4900000000E+07    0.6799805744E+00    0.2477875328E-02    0.4501755388E+00    0.1756387841E-03    0.2280933381E+00
    0.1000000000E+07    0.6796184658E+00    0.5255874455E-02    0.4493683575E+00    0.4047792880E-03    0.2243659487E+00
    0.3000000000E+07    0.6799214539E+00    0.3127363717E-02    0.4501610673E+00    0.2273856823E-03    0.2270530169E+00
    0.5000000000E+07    0.6799824509E+00    0.2454212463E-02    0.4501726926E+00    0.1737797251E-03    0.2281345556E+00
    0.7000000000E+07    0.6800088289E+00    0.2091524062E-02    0.4500903376E+00    0.1455439256E-03    0.2288045723E+00
    0.9000000000E+07    0.6800236053E+00    0.1855843213E-02    0.4499897358E+00    0.1274778327E-03    0.2292866204E+00
    0.1100000000E+08    0.6800330795E+00    0.1686770164E-02    0.4498882497E+00    0.1146700462E-03    0.2296615811E+00
    0.1300000000E+08    0.6800396838E+00    0.1557771387E-02    0.4497907835E+00    0.1049913306E-03    0.2299676305E+00
    0.1500000000E+08    0.6800445578E+00    0.1455106636E-02    0.4496986472E+00    0.9735040381E-04    0.2302257401E+00
    0.1700000000E+08    0.6800483069E+00    0.1370848949E-02    0.4496119579E+00    0.9112302915E-04    0.2304486354E+00
    0.1900000000E+08    0.6800512830E+00    0.1300059705E-02    0.4495304234E+00    0.8592311314E-04    0.2306446040E+00
    0.2100000000E+08    0.6800537046E+00    0.1239479326E-02    0.4494536270E+00    0.8149743858E-04    0.2308193370E+00
    0.2300000000E+08    0.6800557149E+00    0.1186857448E-02    0.4493811358E+00    0.7767217033E-04    0.2309769070E+00
    0.2500000000E+08    0.6800574112E+00    0.1140583358E-02    0.4493125416E+00    0.7432351359E-04    0.2311203262E+00
    0.2700000000E+08    0.6800588626E+00    0.1099469509E-02    0.4492474747E+00    0.7136061662E-04    0.2312518838E+00
