  Pressure (Pa) 22mC5-400 (mol/kg) 2mC6-400 (mol/kg) 3mC6-400 (mol/kg) 33mC5-400 (mol/kg) C7-400 (mol/kg)
    0.1000000000E+01    0.1057278874E-02    0.6283274896E-02    0.2082004082E-02    0.6395608608E-04    0.8446668114E-02
    0.3000000000E+01    0.3123658160E-02    0.1802946568E-01    0.5971670457E-02    0.1835680694E-03    0.2423195170E-01
    0.5000000000E+01    0.5128926183E-02    0.2879750242E-01    0.9535731800E-02    0.2932848719E-03    0.3870190947E-01
    0.7000000000E+01    0.7076574047E-02    0.3870591082E-01    0.1281523305E-01    0.3943069425E-03    0.5202211195E-01
    0.9000000000E+01    0.8969821171E-02    0.4785429568E-01    0.1584452799E-01    0.4876427773E-03    0.6433115795E-01
    0.1100000000E+02    0.1081164159E-01    0.5632703030E-01    0.1865259379E-01    0.5741463976E-03    0.7574597103E-01
    0.1300000000E+02    0.1260478723E-01    0.6419610851E-01    0.2126404699E-01    0.6545463131E-03    0.8636589336E-01
    0.1500000000E+02    0.1435180861E-01    0.7152337364E-01    0.2369993717E-01    0.7294681523E-03    0.9627588412E-01
    0.1700000000E+02    0.1605507316E-01    0.7836227824E-01    0.2597837311E-01    0.7994525237E-03    0.1055490431E+00
    0.1900000000E+02    0.1771678166E-01    0.8475928657E-01    0.2811502133E-01    0.8649692463E-03    0.1142486200E+00
    0.2100000000E+02    0.1933898289E-01    0.9075500180E-01    0.3012350632E-01    0.9264287854E-03    0.1224296278E+00
    0.2300000000E+02    0.2092358672E-01    0.9638507967E-01    0.3201573440E-01    0.9841915175E-03    0.1301401485E+00
    0.2500000000E+02    0.2247237589E-01    0.1016809743E+00    0.3380215780E-01    0.1038575293E-02    0.1374223974E+00
    0.2700000000E+02    0.2398701660E-01    0.1066705513E+00    0.3549199125E-01    0.1089861651E-02    0.1443135969E+00
    0.2900000000E+02    0.2546906805E-01    0.1113785959E+00    0.3709339099E-01    0.1138300966E-02    0.1508466980E+00
    0.3100000000E+02    0.2691999105E-01    0.1158272348E+00    0.3861360345E-01    0.1184116727E-02    0.1570509799E+00
    0.3300000000E+02    0.2834115579E-01    0.1200362910E+00    0.4005908949E-01    0.1227509126E-02    0.1629525513E+00
    0.3500000000E+02    0.2973384889E-01    0.1240235814E+00    0.4143562879E-01    0.1268658075E-02    0.1685747711E+00
    0.3700000000E+02    0.3109927980E-01    0.1278051695E+00    0.4274840796E-01    0.1307725761E-02    0.1739386042E+00
    0.3900000000E+02    0.3243858662E-01    0.1313955797E+00    0.4400209524E-01    0.1344858823E-02    0.1790629226E+00
    0.4100000000E+02    0.3375284137E-01    0.1348079813E+00    0.4520090423E-01    0.1380190203E-02    0.1839647625E+00
    0.4300000000E+02    0.3504305481E-01    0.1380543454E+00    0.4634864835E-01    0.1413840740E-02    0.1886595441E+00
    0.4500000000E+02    0.3631018089E-01    0.1411455811E+00    0.4744878762E-01    0.1445920547E-02    0.1931612605E+00
    0.4700000000E+02    0.3755512070E-01    0.1440916522E+00    0.4850446907E-01    0.1476530190E-02    0.1974826405E+00
    0.4900000000E+02    0.3877872620E-01    0.1469016798E+00    0.4951856162E-01    0.1505761728E-02    0.2016352896E+00
    0.1000000000E+02    0.9896982770E-02    0.5217035824E-01    0.1727458403E-01    0.5317004325E-03    0.7014376390E-01
    0.3000000000E+02    0.2619833293E-01    0.1136340519E+00    0.3786322472E-01    0.1161523771E-02    0.1539882405E+00
    0.5000000000E+02    0.3938278222E-01    0.1482583192E+00    0.5001084011E-01    0.1519887371E-02    0.2036516902E+00
    0.7000000000E+02    0.5051846864E-01    0.1699539135E+00    0.5820304347E-01    0.1747258203E-02    0.2372663522E+00
    0.9000000000E+02    0.6021848929E-01    0.1844012215E+00    0.6419531478E-01    0.1900970899E-02    0.2619380520E+00
    0.1100000000E+03    0.6886275456E-01    0.1943865030E+00    0.6882338799E-01    0.2009163152E-02    0.2810540339E+00
    0.1300000000E+03    0.7670085128E-01    0.2014439863E+00    0.7253925709E-01    0.2087347007E-02    0.2964485168E+00
    0.1500000000E+03    0.8390449099E-01    0.2064889749E+00    0.7561045023E-01    0.2144792269E-02    0.3092084573E+00
    0.1700000000E+03    0.9059630422E-01    0.2101007856E+00    0.7820634173E-01    0.2187378207E-02    0.3200228266E+00
    0.1900000000E+03    0.9686661397E-01    0.2126631826E+00    0.8043991402E-01    0.2219008976E-02    0.3293517362E+00
    0.2100000000E+03    0.1027836938E+00    0.2144397899E+00    0.8238974325E-01    0.2242373909E-02    0.3375155402E+00
    0.2300000000E+03    0.1084003017E+00    0.2156171545E+00    0.8411237149E-01    0.2259381887E-02    0.3447450131E+00
    0.2500000000E+03    0.1137579889E+00    0.2163305840E+00    0.8564965580E-01    0.2271422157E-02    0.3512111769E+00
    0.2700000000E+03    0.1188900258E+00    0.2166802944E+00    0.8703333350E-01    0.2279527462E-02    0.3570438420E+00
    0.2900000000E+03    0.1238234418E+00    0.2167418532E+00    0.8828796729E-01    0.2284479654E-02    0.3623435772E+00
    0.3100000000E+03    0.1285804802E+00    0.2165731327E+00    0.8943290727E-01    0.2286880093E-02    0.3671896889E+00
    0.3300000000E+03    0.1331796556E+00    0.2162190590E+00    0.9048363507E-01    0.2287197789E-02    0.3716456915E+00
    0.3500000000E+03    0.1376365382E+00    0.2157149266E+00    0.9145270732E-01    0.2285803045E-02    0.3757631492E+00
    0.3700000000E+03    0.1419643432E+00    0.2150887581E+00    0.9235043224E-01    0.2282991451E-02    0.3795844334E+00
    0.3900000000E+03    0.1461743808E+00    0.2143630121E+00    0.9318536408E-01    0.2279001272E-02    0.3831447387E+00
    0.4100000000E+03    0.1502764050E+00    0.2135558406E+00    0.9396467081E-01    0.2274026269E-02    0.3864735833E+00
    0.4300000000E+03    0.1542788863E+00    0.2126820251E+00    0.9469441154E-01    0.2268225271E-02    0.3895959412E+00
    0.4500000000E+03    0.1581892271E+00    0.2117536844E+00    0.9537974890E-01    0.2261729413E-02    0.3925331103E+00
    0.4700000000E+03    0.1620139349E+00    0.2107808150E+00    0.9602511363E-01    0.2254647685E-02    0.3953033851E+00
    0.4900000000E+03    0.1657587608E+00    0.2097717080E+00    0.9663433358E-01    0.2247071214E-02    0.3979225841E+00
    0.1000000000E+03    0.6465470945E-01    0.1898363332E+00    0.6664579331E-01    0.1959592016E-02    0.2720522475E+00
    0.3000000000E+03    0.1262227739E+00    0.2166832110E+00    0.8887310336E-01    0.2285966879E-02    0.3648190476E+00
    0.5000000000E+03    0.1676028369E+00    0.2092557715E+00    0.9692644620E-01    0.2243121882E-02    0.3991799012E+00
    0.7000000000E+03    0.2012773691E+00    0.1982175308E+00    0.1014895595E+00    0.2151516030E-02    0.4189566516E+00
    0.9000000000E+03    0.2304624185E+00    0.1871981026E+00    0.1045422204E+00    0.2052564042E-02    0.4323565056E+00
    0.1100000000E+04    0.2564980212E+00    0.1768943905E+00    0.1067741433E+00    0.1955817925E-02    0.4422614750E+00
    0.1300000000E+04    0.2800899292E+00    0.1674170710E+00    0.1084996139E+00    0.1863901260E-02    0.4499936156E+00
    0.1500000000E+04    0.3016686925E+00    0.1587321405E+00    0.1098858434E+00    0.1777450917E-02    0.4562604567E+00
    0.1700000000E+04    0.3215257374E+00    0.1507708717E+00    0.1110313627E+00    0.1696448428E-02    0.4614811423E+00
    0.1900000000E+04    0.3398742454E+00    0.1434609719E+00    0.1119986205E+00    0.1620648403E-02    0.4659226295E+00
    0.2100000000E+04    0.3568796380E+00    0.1367354770E+00    0.1128294237E+00    0.1549732393E-02    0.4697644559E+00
    0.2300000000E+04    0.3726761419E+00    0.1305347554E+00    0.1135529827E+00    0.1483367797E-02    0.4731326056E+00
    0.2500000000E+04    0.3873763759E+00    0.1248063447E+00    0.1141904196E+00    0.1421230925E-02    0.4761185511E+00
    0.2700000000E+04    0.4010771938E+00    0.1195041765E+00    0.1147574447E+00    0.1363015706E-02    0.4787905946E+00
    0.2900000000E+04    0.4138634092E+00    0.1145877107E+00    0.1152660224E+00    0.1308436450E-02    0.4812009467E+00
    0.3100000000E+04    0.4258102707E+00    0.1100211451E+00    0.1157254488E+00    0.1257228105E-02    0.4833903202E+00
    0.3300000000E+04    0.4369851754E+00    0.1057727374E+00    0.1161430725E+00    0.1209145490E-02    0.4853910105E+00
    0.3500000000E+04    0.4474489003E+00    0.1018142396E+00    0.1165247907E+00    0.1163962127E-02    0.4872290200E+00
    0.3700000000E+04    0.4572565241E+00    0.9812042620E-01    0.1168753985E+00    0.1121468976E-02    0.4889255600E+00
    0.3900000000E+04    0.4664581413E+00    0.9466870190E-01    0.1171988406E+00    0.1081473153E-02    0.4904981345E+00
    0.4100000000E+04    0.4750994336E+00    0.9143877171E-01    0.1174983961E+00    0.1043796723E-02    0.4919613380E+00
    0.4300000000E+04    0.4832221424E+00    0.8841236266E-01    0.1177768164E+00    0.1008275545E-02    0.4933274517E+00
    0.4500000000E+04    0.4908644666E+00    0.8557298657E-01    0.1180364296E+00    0.9747582116E-03    0.4946068969E+00
    0.4700000000E+04    0.4980614062E+00    0.8290573661E-01    0.1182792209E+00    0.9431050445E-03    0.4958085840E+00
    0.4900000000E+04    0.5048450623E+00    0.8039711149E-01    0.1185068947E+00    0.9131871759E-03    0.4969401835E+00
    0.1000000000E+04    0.2438208571E+00    0.1819441044E+00    0.1057362027E+00    0.2003677020E-02    0.4376426672E+00
    0.3000000000E+04    0.4199373791E+00    0.1122627623E+00    0.1155013813E+00    0.1282426691E-02    0.4823210687E+00
    0.5000000000E+04    0.5080912140E+00    0.7919841045E-01    0.1186155308E+00    0.8988414504E-03    0.4974818123E+00
    0.7000000000E+04    0.5572953125E+00    0.6111802457E-01    0.1202655945E+00    0.6786969143E-03    0.5058632157E+00
    0.9000000000E+04    0.5871542512E+00    0.5012836048E-01    0.1213161349E+00    0.5418609351E-03    0.5113910364E+00
    0.1100000000E+05    0.6065869947E+00    0.4287722138E-01    0.1220540866E+00    0.4507959719E-03    0.5153978257E+00
    0.1300000000E+05    0.6199696647E+00    0.3777820675E-01    0.1226055272E+00    0.3867322525E-03    0.5184794390E+00
    0.1500000000E+05    0.6296137086E+00    0.3400963621E-01    0.1230355478E+00    0.3396050717E-03    0.5209481265E+00
    0.1700000000E+05    0.6368233116E+00    0.3111253573E-01    0.1233815264E+00    0.3036614028E-03    0.5229856105E+00
    0.1900000000E+05    0.6423772697E+00    0.2881390945E-01    0.1236666222E+00    0.2754254469E-03    0.5247058833E+00
    0.2100000000E+05    0.6467635904E+00    0.2694264570E-01    0.1239060286E+00    0.2526955387E-03    0.5261846044E+00
    0.2300000000E+05    0.6503008425E+00    0.2538666734E-01    0.1241101693E+00    0.2340197184E-03    0.5274742558E+00
    0.2500000000E+05    0.6532043857E+00    0.2406977534E-01    0.1242864569E+00    0.2184068199E-03    0.5286125567E+00
    0.2700000000E+05    0.6556242540E+00    0.2293848533E-01    0.1244403210E+00    0.2051598076E-03    0.5296274177E+00
    0.2900000000E+05    0.6576677328E+00    0.2195421009E-01    0.1245758384E+00    0.1937756733E-03    0.5305400018E+00
    0.3100000000E+05    0.6594133073E+00    0.2108843691E-01    0.1246961351E+00    0.1838831399E-03    0.5313666911E+00
    0.3300000000E+05    0.6609195553E+00    0.2031965176E-01    0.1248036516E+00    0.1752026642E-03    0.5321203954E+00
    0.3500000000E+05    0.6622309800E+00    0.1963131902E-01    0.1249003238E+00    0.1675200338E-03    0.5328114466E+00
    0.3700000000E+05    0.6633819302E+00    0.1901051973E-01    0.1249877085E+00    0.1606685037E-03    0.5334482267E+00
    0.3900000000E+05    0.6643992958E+00    0.1844701203E-01    0.1250670730E+00    0.1545164407E-03    0.5340376185E+00
    0.4100000000E+05    0.6653043974E+00    0.1793256932E-01    0.1251394605E+00    0.1489586058E-03    0.5345853339E+00
    0.4300000000E+05    0.6661143363E+00    0.1746050526E-01    0.1252057378E+00    0.1439098930E-03    0.5350961594E+00
    0.4500000000E+05    0.6668429743E+00    0.1702532701E-01    0.1252666318E+00    0.1393007570E-03    0.5355741410E+00
    0.4700000000E+05    0.6675016550E+00    0.1662247814E-01    0.1253227569E+00    0.1350738266E-03    0.5360227252E+00
    0.4900000000E+05    0.6680997436E+00    0.1624814542E-01    0.1253746362E+00    0.1311813600E-03    0.5364448694E+00
    0.1000000000E+05    0.5978331404E+00    0.4615985918E-01    0.1217142395E+00    0.4920619374E-03    0.5135377622E+00
    0.3000000000E+05    0.6585737103E+00    0.2150799176E-01    0.1246377232E+00    0.1886622173E-03    0.5309632071E+00
    0.5000000000E+05    0.6683785538E+00    0.1607064721E-01    0.1253991262E+00    0.1293477786E-03    0.5366468384E+00
    0.7000000000E+05    0.6721204958E+00    0.1344792152E-01    0.1257473472E+00    0.1032186134E-03    0.5397679236E+00
    0.9000000000E+05    0.6740609244E+00    0.1182627948E-01    0.1259406295E+00    0.8802226772E-04    0.5418267592E+00
    0.1100000000E+06    0.6752406714E+00    0.1069393710E-01    0.1260587746E+00    0.7786346349E-04    0.5433227362E+00
    0.1300000000E+06    0.6760314124E+00    0.9844075055E-02    0.1261349287E+00    0.7048350117E-04    0.5444770938E+00
    0.1500000000E+06    0.6765975055E+00    0.9174977284E-02    0.1261853880E+00    0.6481900241E-04    0.5454052181E+00
    0.1700000000E+06    0.6770224641E+00    0.8629953592E-02    0.1262191022E+00    0.6029826432E-04    0.5461740962E+00
    0.1900000000E+06    0.6773530953E+00    0.8174537053E-02    0.1262413882E+00    0.5658398869E-04    0.5468256998E+00
    0.2100000000E+06    0.6776176224E+00    0.7786384412E-02    0.1262555968E+00    0.5346300935E-04    0.5473878761E+00
    0.2300000000E+06    0.6778340556E+00    0.7450279760E-02    0.1262639383E+00    0.5079328543E-04    0.5478799442E+00
    0.2500000000E+06    0.6780144191E+00    0.7155447722E-02    0.1262679256E+00    0.4847610840E-04    0.5483157948E+00
    0.2700000000E+06    0.6781670434E+00    0.6894011000E-02    0.1262686251E+00    0.4644049955E-04    0.5487057140E+00
    0.2900000000E+06    0.6782978799E+00    0.6660057006E-02    0.1262668079E+00    0.4463395475E-04    0.5490575074E+00
    0.3100000000E+06    0.6784112928E+00    0.6449048032E-02    0.1262630432E+00    0.4301669891E-04    0.5493772230E+00
    0.3300000000E+06    0.6785105543E+00    0.6257434695E-02    0.1262577585E+00    0.4155798055E-04    0.5496696319E+00
    0.3500000000E+06    0.6785981658E+00    0.6082394660E-02    0.1262512803E+00    0.4023360318E-04    0.5499385567E+00
    0.3700000000E+06    0.6786760720E+00    0.5921651244E-02    0.1262438609E+00    0.3902423399E-04    0.5501871020E+00
    0.3900000000E+06    0.6787458075E+00    0.5773344538E-02    0.1262356977E+00    0.3791421649E-04    0.5504178203E+00
    0.4100000000E+06    0.6788085995E+00    0.5635937936E-02    0.1262269467E+00    0.3689071893E-04    0.5506328321E+00
    0.4300000000E+06    0.6788654410E+00    0.5508149122E-02    0.1262177324E+00    0.3594311181E-04    0.5508339167E+00
    0.4500000000E+06    0.6789171441E+00    0.5388898274E-02    0.1262081545E+00    0.3506250507E-04    0.5510225799E+00
    0.4700000000E+06    0.6789643795E+00    0.5277268628E-02    0.1261982939E+00    0.3424139887E-04    0.5512001058E+00
    0.4900000000E+06    0.6790077057E+00    0.5172476055E-02    0.1261882164E+00    0.3347341621E-04    0.5513675979E+00
    0.1000000000E+06    0.6747152162E+00    0.1121551976E-01    0.1260064432E+00    0.8249644147E-04    0.5426277002E+00
    0.3000000000E+06    0.6783565386E+00    0.6551925854E-02    0.1262651395E+00    0.4380376558E-04    0.5492210512E+00
    0.5000000000E+06    0.6790280525E+00    0.5122428945E-02    0.1261831135E+00    0.3310760850E-04    0.5514478844E+00
    0.7000000000E+06    0.6793120995E+00    0.4356816942E-02    0.1260785704E+00    0.2758964816E-04    0.5527027212E+00
    0.9000000000E+06    0.6794697532E+00    0.3860626099E-02    0.1259786989E+00    0.2409258779E-04    0.5535478848E+00
    0.1100000000E+07    0.6795703995E+00    0.3505230304E-02    0.1258872257E+00    0.2162709769E-04    0.5541728850E+00
    0.1300000000E+07    0.6796404237E+00    0.3234370238E-02    0.1258039146E+00    0.1977078898E-04    0.5546625973E+00
    0.1500000000E+07    0.6796920714E+00    0.3018985577E-02    0.1257277995E+00    0.1830918442E-04    0.5550617210E+00
    0.1700000000E+07    0.6797318096E+00    0.2842338765E-02    0.1256578854E+00    0.1712036969E-04    0.5553964371E+00
    0.1900000000E+07    0.6797633794E+00    0.2694014461E-02    0.1255933031E+00    0.1612928424E-04    0.5556832832E+00
    0.2100000000E+07    0.6797890975E+00    0.2567144596E-02    0.1255333257E+00    0.1528687105E-04    0.5559333149E+00
    0.2300000000E+07    0.6798104764E+00    0.2456991004E-02    0.1254773524E+00    0.1455954453E-04    0.5561542557E+00
    0.2500000000E+07    0.6798285461E+00    0.2360164338E-02    0.1254248865E+00    0.1392344031E-04    0.5563516962E+00
    0.2700000000E+07    0.6798440328E+00    0.2274166974E-02    0.1253755147E+00    0.1336107691E-04    0.5565298016E+00
    0.2900000000E+07    0.6798574635E+00    0.2197112126E-02    0.1253288910E+00    0.1285931867E-04    0.5566917515E+00
    0.3100000000E+07    0.6798692300E+00    0.2127544104E-02    0.1252847234E+00    0.1240808028E-04    0.5568400235E+00
    0.3300000000E+07    0.6798796298E+00    0.2064319298E-02    0.1252427635E+00    0.1199947372E-04    0.5569765825E+00
    0.3500000000E+07    0.6798888931E+00    0.2006525030E-02    0.1252027985E+00    0.1162722951E-04    0.5571030107E+00
    0.3700000000E+07    0.6798972007E+00    0.1953422800E-02    0.1251646448E+00    0.1128629391E-04    0.5572205997E+00
    0.3900000000E+07    0.6799046967E+00    0.1904407715E-02    0.1251281429E+00    0.1097254212E-04    0.5573304160E+00
    0.4100000000E+07    0.6799114973E+00    0.1858978905E-02    0.1250931536E+00    0.1068256994E-04    0.5574333499E+00
    0.4300000000E+07    0.6799176975E+00    0.1816717574E-02    0.1250595546E+00    0.1041353990E-04    0.5575301517E+00
    0.4500000000E+07    0.6799233753E+00    0.1777270465E-02    0.1250272377E+00    0.1016306556E-04    0.5576214588E+00
    0.4700000000E+07    0.6799285961E+00    0.1740337225E-02    0.1249961072E+00    0.9929123514E-05    0.5577078174E+00
    0.4900000000E+07    0.6799334142E+00    0.1705660623E-02    0.1249660774E+00    0.9709985447E-05    0.5577896982E+00
    0.1000000000E+07    0.6795250545E+00    0.3669767568E-02    0.1259318941E+00    0.2276439701E-04    0.5538812469E+00
    0.3000000000E+07    0.6798635343E+00    0.2161469956E-02    0.1253065167E+00    0.1262792117E-04    0.5567674642E+00
    0.5000000000E+07    0.6799356870E+00    0.1689098049E-02    0.1249514511E+00    0.9605495195E-05    0.5578290894E+00
    0.7000000000E+07    0.6799681949E+00    0.1435656038E-02    0.1247017498E+00    0.8021526035E-05    0.5584577023E+00
    0.9000000000E+07    0.6799870239E+00    0.1271411560E-02    0.1245084782E+00    0.7011205212E-05    0.5588965267E+00
    0.1100000000E+08    0.6799994479E+00    0.1153821220E-02    0.1243505360E+00    0.6296548781E-05    0.5592303029E+00
    0.1300000000E+08    0.6800083311E+00    0.1064244461E-02    0.1242168562E+00    0.5757429957E-05    0.5594979644E+00
    0.1500000000E+08    0.6800150386E+00    0.9930472169E-03    0.1241008953E+00    0.5332424244E-05    0.5597204508E+00
    0.1700000000E+08    0.6800203070E+00    0.9346801242E-03    0.1239984561E+00    0.4986459393E-05    0.5599102497E+00
    0.1900000000E+08    0.6800245706E+00    0.8856903428E-03    0.1239066825E+00    0.4697875344E-05    0.5600753747E+00
    0.2100000000E+08    0.6800281028E+00    0.8438014761E-03    0.1238235411E+00    0.4452484351E-05    0.5602212588E+00
    0.2300000000E+08    0.6800310846E+00    0.8074434675E-03    0.1237475326E+00    0.4240557048E-05    0.5603517465E+00
    0.2500000000E+08    0.6800336409E+00    0.7754935088E-03    0.1236775185E+00    0.4055171414E-05    0.5604696527E+00
    0.2700000000E+08    0.6800358611E+00    0.7471244204E-03    0.1236126142E+00    0.3891251795E-05    0.5605770976E+00
