  Pressure (Pa) 22mC5-400 (mol/kg) 2mC6-400 (mol/kg) 3mC6-400 (mol/kg) 33mC5-400 (mol/kg) C7-400 (mol/kg)
    0.1000000000E+01    0.1055661557E-02    0.7857131279E-02    0.1563609768E-02    0.6397857570E-04    0.6766392403E-02
    0.3000000000E+01    0.3109735894E-02    0.2256012363E-01    0.4496234093E-02    0.1837380731E-03    0.1946072936E-01
    0.5000000000E+01    0.5091896188E-02    0.3605210376E-01    0.7196742823E-02    0.2936814535E-03    0.3115479912E-01
    0.7000000000E+01    0.7007006350E-02    0.4847490739E-01    0.9693244131E-02    0.3949590140E-03    0.4196956417E-01
    0.9000000000E+01    0.8859483099E-02    0.5994869662E-01    0.1200942499E-01    0.4885451008E-03    0.5200697399E-01
    0.1100000000E+02    0.1065334698E-01    0.7057600294E-01    0.1416539128E-01    0.5752709598E-03    0.6135357633E-01
    0.1300000000E+02    0.1239226651E-01    0.8044488969E-01    0.1617832305E-01    0.6558504288E-03    0.7008333395E-01
    0.1500000000E+02    0.1407959646E-01    0.8963145112E-01    0.1806299067E-01    0.7309002353E-03    0.7825984377E-01
    0.1700000000E+02    0.1571841131E-01    0.9820180588E-01    0.1983216523E-01    0.8009561853E-03    0.8593810144E-01
    0.1900000000E+02    0.1731153435E-01    0.1062137012E+00    0.2149694767E-01    0.8664861875E-03    0.9316591645E-01
    0.2100000000E+02    0.1886156329E-01    0.1137178138E+00    0.2306703474E-01    0.9279008158E-03    0.9998505609E-01
    0.2300000000E+02    0.2037089277E-01    0.1207588138E+00    0.2455093565E-01    0.9855619404E-03    0.1064321770E+00
    0.2500000000E+02    0.2184173413E-01    0.1273762394E+00    0.2595614964E-01    0.1039789830E-02    0.1125395890E+00
    0.2700000000E+02    0.2327613300E-01    0.1336052222E+00    0.2728931260E-01    0.1090869036E-02    0.1183358858E+00
    0.2900000000E+02    0.2467598479E-01    0.1394770914E+00    0.2855631869E-01    0.1139053290E-02    0.1238464680E+00
    0.3100000000E+02    0.2604304852E-01    0.1450198803E+00    0.2976242196E-01    0.1184569617E-02    0.1290939806E+00
    0.3300000000E+02    0.2737895910E-01    0.1502587530E+00    0.3091232168E-01    0.1227621795E-02    0.1340986798E+00
    0.3500000000E+02    0.2868523831E-01    0.1552163663E+00    0.3201023425E-01    0.1268393287E-02    0.1388787426E+00
    0.3700000000E+02    0.2996330465E-01    0.1599131770E+00    0.3305995422E-01    0.1307049735E-02    0.1434505294E+00
    0.3900000000E+02    0.3121448210E-01    0.1643677054E+00    0.3406490624E-01    0.1343741096E-02    0.1478288074E+00
    0.4100000000E+02    0.3244000803E-01    0.1685967608E+00    0.3502818947E-01    0.1378603467E-02    0.1520269419E+00
    0.4300000000E+02    0.3364104037E-01    0.1726156361E+00    0.3595261573E-01    0.1411760667E-02    0.1560570606E+00
    0.4500000000E+02    0.3481866399E-01    0.1764382769E+00    0.3684074240E-01    0.1443325603E-02    0.1599301948E+00
    0.4700000000E+02    0.3597389649E-01    0.1800774270E+00    0.3769490082E-01    0.1473401452E-02    0.1636564021E+00
    0.4900000000E+02    0.3710769351E-01    0.1835447565E+00    0.3851722103E-01    0.1502082696E-02    0.1672448728E+00
    0.1000000000E+02    0.9763504592E-02    0.6536234918E-01    0.1310629926E-01    0.5327184528E-03    0.5676173699E-01
    0.3000000000E+02    0.2536351021E-01    0.1422879854E+00    0.2916667737E-01    0.1162131700E-02    0.1265017899E+00
    0.5000000000E+02    0.3766683657E-01    0.1852173694E+00    0.3891705775E-01    0.1515927713E-02    0.1689901146E+00
    0.7000000000E+02    0.4791637216E-01    0.2118309532E+00    0.4563825414E-01    0.1737276748E-02    0.1983728076E+00
    0.9000000000E+02    0.5677806633E-01    0.2293890599E+00    0.5064564635E-01    0.1884965626E-02    0.2203284011E+00
    0.1100000000E+03    0.6464495824E-01    0.2414345205E+00    0.5457581747E-01    0.1987693118E-02    0.2376081965E+00
    0.1300000000E+03    0.7176616152E-01    0.2499008477E+00    0.5777736620E-01    0.2061134296E-02    0.2517204838E+00
    0.1500000000E+03    0.7830846803E-01    0.2559302348E+00    0.6045872153E-01    0.2114559206E-02    0.2635680316E+00
    0.1700000000E+03    0.8438851738E-01    0.2602386475E+00    0.6275298659E-01    0.2153786579E-02    0.2737279398E+00
    0.1900000000E+03    0.9009081246E-01    0.2632961085E+00    0.6474962947E-01    0.2182642505E-02    0.2825885043E+00
    0.2100000000E+03    0.9547839361E-01    0.2654228433E+00    0.6651130526E-01    0.2203738514E-02    0.2904219144E+00
    0.2300000000E+03    0.1005994636E+00    0.2668437664E+00    0.6808338909E-01    0.2218912673E-02    0.2974254766E+00
    0.2500000000E+03    0.1054916632E+00    0.2677209218E+00    0.6949967362E-01    0.2229492327E-02    0.3037462680E+00
    0.2700000000E+03    0.1101849233E+00    0.2681736036E+00    0.7078592777E-01    0.2236457148E-02    0.3094965441E+00
    0.2900000000E+03    0.1147034232E+00    0.2682912757E+00    0.7196220381E-01    0.2240543903E-02    0.3147637337E+00
    0.3100000000E+03    0.1190669683E+00    0.2681421162E+00    0.7304438142E-01    0.2242315787E-02    0.3196171320E+00
    0.3300000000E+03    0.1232919823E+00    0.2677788156E+00    0.7404523002E-01    0.2242209515E-02    0.3241125080E+00
    0.3500000000E+03    0.1273922336E+00    0.2672426008E+00    0.7497515731E-01    0.2240568024E-02    0.3282953534E+00
    0.3700000000E+03    0.1313793789E+00    0.2665660830E+00    0.7584274820E-01    0.2237663648E-02    0.3322032223E+00
    0.3900000000E+03    0.1352633740E+00    0.2657753100E+00    0.7665516003E-01    0.2233714838E-02    0.3358674483E+00
    0.4100000000E+03    0.1390527905E+00    0.2648912687E+00    0.7741841751E-01    0.2228898405E-02    0.3393144266E+00
    0.4300000000E+03    0.1427550618E+00    0.2639309999E+00    0.7813763598E-01    0.2223358624E-02    0.3425665850E+00
    0.4500000000E+03    0.1463766774E+00    0.2629084368E+00    0.7881719293E-01    0.2217214092E-02    0.3456431303E+00
    0.4700000000E+03    0.1499233370E+00    0.2618350441E+00    0.7946086128E-01    0.2210562951E-02    0.3485606284E+00
    0.4900000000E+03    0.1534000749E+00    0.2607203076E+00    0.8007191420E-01    0.2203486910E-02    0.3513334608E+00
    0.1000000000E+03    0.6081784148E-01    0.2359551637E+00    0.5271918322E-01    0.1940768634E-02    0.2294394438E+00
    0.3000000000E+03    0.1169034690E+00    0.2682464478E+00    0.7251419393E-01    0.2241689384E-02    0.3172383975E+00
    0.5000000000E+03    0.1551136395E+00    0.2601499547E+00    0.8036611693E-01    0.2199811377E-02    0.3526696153E+00
    0.7000000000E+03    0.1865769233E+00    0.2479180486E+00    0.8507290581E-01    0.2115828136E-02    0.3741532224E+00
    0.9000000000E+03    0.2141066881E+00    0.2356816402E+00    0.8835379147E-01    0.2026375210E-02    0.3892628022E+00
    0.1100000000E+04    0.2388738633E+00    0.2242178534E+00    0.9083107196E-01    0.1939464826E-02    0.4007570378E+00
    0.1300000000E+04    0.2614938816E+00    0.2136459796E+00    0.9279735710E-01    0.1857114077E-02    0.4099397813E+00
    0.1500000000E+04    0.2823401680E+00    0.2039261539E+00    0.9441254826E-01    0.1779697424E-02    0.4175267054E+00
    0.1700000000E+04    0.3016634227E+00    0.1949818464E+00    0.9577308948E-01    0.1707084433E-02    0.4239511641E+00
    0.1900000000E+04    0.3196453288E+00    0.1867339410E+00    0.9694137678E-01    0.1638991732E-02    0.4294945202E+00
    0.2100000000E+04    0.3364256324E+00    0.1791101072E+00    0.9795995667E-01    0.1575102109E-02    0.4343492568E+00
    0.2300000000E+04    0.3521169498E+00    0.1720466476E+00    0.9885905279E-01    0.1515105786E-02    0.4386525231E+00
    0.2500000000E+04    0.3668133723E+00    0.1654880501E+00    0.9966085137E-01    0.1458713732E-02    0.4425052830E+00
    0.2700000000E+04    0.3805957132E+00    0.1593859455E+00    0.1003820831E+00    0.1405660641E-02    0.4459838790E+00
    0.2900000000E+04    0.3935348381E+00    0.1536980267E+00    0.1010356520E+00    0.1355704169E-02    0.4491473422E+00
    0.3100000000E+04    0.4056938549E+00    0.1483870942E+00    0.1016317025E+00    0.1308622989E-02    0.4520421933E+00
    0.3300000000E+04    0.4171296031E+00    0.1434202601E+00    0.1021783416E+00    0.1264214625E-02    0.4547056969E+00
    0.3500000000E+04    0.4278937001E+00    0.1387682968E+00    0.1026821417E+00    0.1222293437E-02    0.4571681297E+00
    0.3700000000E+04    0.4380333016E+00    0.1344051070E+00    0.1031484977E+00    0.1182688842E-02    0.4594543994E+00
    0.3900000000E+04    0.4475916730E+00    0.1303072907E+00    0.1035818880E+00    0.1145243780E-02    0.4615852233E+00
    0.4100000000E+04    0.4566086325E+00    0.1264537898E+00    0.1039860665E+00    0.1109813393E-02    0.4635780034E+00
    0.4300000000E+04    0.4651209081E+00    0.1228255928E+00    0.1043642085E+00    0.1076263892E-02    0.4654474863E+00
    0.4500000000E+04    0.4731624313E+00    0.1194054876E+00    0.1047190209E+00    0.1044471567E-02    0.4672062676E+00
    0.4700000000E+04    0.4807645874E+00    0.1161778532E+00    0.1050528285E+00    0.1014321917E-02    0.4688651841E+00
    0.4900000000E+04    0.4879564316E+00    0.1131284815E+00    0.1053676409E+00    0.9857088815E-03    0.4704336200E+00
    0.1000000000E+04    0.2267892905E+00    0.2298393301E+00    0.8967018700E-01    0.1982413679E-02    0.3953608423E+00
    0.3000000000E+04    0.3997081746E+00    0.1509975854E+00    0.1013403193E+00    0.1331817240E-02    0.4506258287E+00
    0.5000000000E+04    0.4914069769E+00    0.1116665524E+00    0.1055184792E+00    0.9719475871E-03    0.4711865043E+00
    0.7000000000E+04    0.5444346445E+00    0.8918762831E-01    0.1078632456E+00    0.7570603718E-03    0.4830198530E+00
    0.9000000000E+04    0.5772625900E+00    0.7505367589E-01    0.1094159511E+00    0.6194127731E-03    0.4910175642E+00
    0.1100000000E+05    0.5988602181E+00    0.6547737869E-01    0.1105403337E+00    0.5256761743E-03    0.4969130569E+00
    0.1300000000E+05    0.6138168126E+00    0.5859624309E-01    0.1114019462E+00    0.4585077752E-03    0.5015039793E+00
    0.1500000000E+05    0.6246219415E+00    0.5341708700E-01    0.1120885947E+00    0.4083304635E-03    0.5052172789E+00
    0.1700000000E+05    0.6327047472E+00    0.4937250887E-01    0.1126518148E+00    0.3695479600E-03    0.5083055762E+00
    0.1900000000E+05    0.6389283906E+00    0.4611886745E-01    0.1131241302E+00    0.3387208079E-03    0.5109294772E+00
    0.2100000000E+05    0.6438378364E+00    0.4343750582E-01    0.1135272203E+00    0.3136400843E-03    0.5131967748E+00
    0.2300000000E+05    0.6477906153E+00    0.4118334131E-01    0.1138761682E+00    0.2928321685E-03    0.5151829514E+00
    0.2500000000E+05    0.6510292132E+00    0.3925660499E-01    0.1141818360E+00    0.2752811046E-03    0.5169427005E+00
    0.2700000000E+05    0.6537229050E+00    0.3758654820E-01    0.1144522713E+00    0.2602661755E-03    0.5185167816E+00
    0.2900000000E+05    0.6559928750E+00    0.3612164943E-01    0.1146935796E+00    0.2472632019E-03    0.5199362946E+00
    0.3100000000E+05    0.6579278219E+00    0.3482350948E-01    0.1149104880E+00    0.2358825140E-03    0.5212254484E+00
    0.3300000000E+05    0.6595939509E+00    0.3366292157E-01    0.1151067206E+00    0.2258287832E-03    0.5224034161E+00
    0.3500000000E+05    0.6610415452E+00    0.3261726863E-01    0.1152852561E+00    0.2168743082E-03    0.5234856118E+00
    0.3700000000E+05    0.6623093937E+00    0.3166875527E-01    0.1154485092E+00    0.2088408185E-03    0.5244845919E+00
    0.3900000000E+05    0.6634278394E+00    0.3080317948E-01    0.1155984603E+00    0.2015868125E-03    0.5254107052E+00
    0.4100000000E+05    0.6644209201E+00    0.3000906153E-01    0.1157367510E+00    0.1949985728E-03    0.5262725698E+00
    0.4300000000E+05    0.6653078974E+00    0.2927701502E-01    0.1158647550E+00    0.1889836801E-03    0.5270774306E+00
    0.4500000000E+05    0.6661043672E+00    0.2859928493E-01    0.1159836317E+00    0.1834662538E-03    0.5278314287E+00
    0.4700000000E+05    0.6668230782E+00    0.2796940332E-01    0.1160943669E+00    0.1783834102E-03    0.5285398103E+00
    0.4900000000E+05    0.6674745430E+00    0.2738192910E-01    0.1161978052E+00    0.1736825899E-03    0.5292070880E+00
    0.1000000000E+05    0.5891110411E+00    0.6984052706E-01    0.1100187302E+00    0.5683871245E-03    0.4941658501E+00
    0.3000000000E+05    0.6569976512E+00    0.3545373996E-01    0.1148048310E+00    0.2413903773E-03    0.5205958672E+00
    0.5000000000E+05    0.6677778478E+00    0.2710262519E-01    0.1162470195E+00    0.1714613247E-03    0.5295265544E+00
    0.7000000000E+05    0.6718202911E+00    0.2291903911E-01    0.1169816279E+00    0.1392790739E-03    0.5344792282E+00
    0.9000000000E+05    0.6738903571E+00    0.2027878000E-01    0.1174336267E+00    0.1200490973E-03    0.5377590365E+00
    0.1100000000E+06    0.6751372093E+00    0.1841130441E-01    0.1177411945E+00    0.1069548506E-03    0.5401457217E+00
    0.1300000000E+06    0.6759668895E+00    0.1699723673E-01    0.1179640861E+00    0.9731464678E-04    0.5419878913E+00
    0.1500000000E+06    0.6765574136E+00    0.1587669314E-01    0.1181327351E+00    0.8984012057E-04    0.5434684360E+00
    0.1700000000E+06    0.6769985926E+00    0.1495938513E-01    0.1182644060E+00    0.8382736639E-04    0.5446939668E+00
    0.1900000000E+06    0.6773404618E+00    0.1418985880E-01    0.1183696758E+00    0.7885560453E-04    0.5457314788E+00
    0.2100000000E+06    0.6776130369E+00    0.1353187474E-01    0.1184554106E+00    0.7465599688E-04    0.5466255173E+00
    0.2300000000E+06    0.6778353861E+00    0.1296059079E-01    0.1185262735E+00    0.7104775172E-04    0.5474070355E+00
    0.2500000000E+06    0.6780201911E+00    0.1245831806E-01    0.1185855487E+00    0.6790423979E-04    0.5480983160E+00
    0.2700000000E+06    0.6781762071E+00    0.1201206522E-01    0.1186356189E+00    0.6513378423E-04    0.5487158733E+00
    0.2900000000E+06    0.6783096697E+00    0.1161204239E-01    0.1186782569E+00    0.6266816627E-04    0.5492722478E+00
    0.3100000000E+06    0.6784251388E+00    0.1125071029E-01    0.1187148098E+00    0.6045543507E-04    0.5497771608E+00
    0.3300000000E+06    0.6785260248E+00    0.1092215390E-01    0.1187463201E+00    0.5845523873E-04    0.5502382834E+00
    0.3500000000E+06    0.6786149288E+00    0.1062165725E-01    0.1187736074E+00    0.5663569478E-04    0.5506617628E+00
    0.3700000000E+06    0.6786938687E+00    0.1034540709E-01    0.1187973252E+00    0.5497123416E-04    0.5510525920E+00
    0.3900000000E+06    0.6787644337E+00    0.1009028154E-01    0.1188180009E+00    0.5344108010E-04    0.5514148758E+00
    0.4100000000E+06    0.6788278927E+00    0.9853696434E-02    0.1188360649E+00    0.5202815206E-04    0.5517520246E+00
    0.4300000000E+06    0.6788852703E+00    0.9633491463E-02    0.1188518720E+00    0.5071826135E-04    0.5520668994E+00
    0.4500000000E+06    0.6789374035E+00    0.9427844549E-02    0.1188657170E+00    0.4949951073E-04    0.5523619208E+00
    0.4700000000E+06    0.6789849825E+00    0.9235206482E-02    0.1188778472E+00    0.4836183968E-04    0.5526391530E+00
    0.4900000000E+06    0.6790285811E+00    0.9054250399E-02    0.1188884712E+00    0.4729667533E-04    0.5529003691E+00
    0.1000000000E+06    0.6745831040E+00    0.1927390108E-01    0.1176007326E+00    0.1129513330E-03    0.5390366464E+00
    0.3000000000E+06    0.6783694180E+00    0.1142694201E-01    0.1186972228E+00    0.6153294118E-04    0.5495306166E+00
    0.5000000000E+06    0.6790490415E+00    0.8967789349E-02    0.1188932749E+00    0.4678894288E-04    0.5530254582E+00
    0.7000000000E+06    0.6793336227E+00    0.7642014290E-02    0.1189419567E+00    0.3910194243E-04    0.5549687566E+00
    0.9000000000E+06    0.6794905990E+00    0.6779776331E-02    0.1189432168E+00    0.3420399292E-04    0.5562627796E+00
    0.1100000000E+07    0.6795903645E+00    0.6160808242E-02    0.1189251920E+00    0.3073930879E-04    0.5572102833E+00
    0.1300000000E+07    0.6796595299E+00    0.5688312489E-02    0.1188985040E+00    0.2812466119E-04    0.5579462208E+00
    0.1500000000E+07    0.6797103933E+00    0.5312131533E-02    0.1188678627E+00    0.2606244076E-04    0.5585413347E+00
    0.1700000000E+07    0.6797494279E+00    0.5003310295E-02    0.1188355732E+00    0.2438288203E-04    0.5590368753E+00
    0.1900000000E+07    0.6797803684E+00    0.4743798824E-02    0.1188028354E+00    0.2298118419E-04    0.5594587891E+00
    0.2100000000E+07    0.6798055224E+00    0.4521677704E-02    0.1187702965E+00    0.2178870874E-04    0.5598243516E+00
    0.2300000000E+07    0.6798263934E+00    0.4328714257E-02    0.1187383089E+00    0.2075838371E-04    0.5601455861E+00
    0.2500000000E+07    0.6798440034E+00    0.4159013561E-02    0.1187070612E+00    0.1985671428E-04    0.5604311633E+00
    0.2700000000E+07    0.6798590719E+00    0.4008227922E-02    0.1186766480E+00    0.1905913474E-04    0.5606875213E+00
    0.2900000000E+07    0.6798721203E+00    0.3873070508E-02    0.1186471082E+00    0.1834716717E-04    0.5609195584E+00
    0.3100000000E+07    0.6798835356E+00    0.3751003810E-02    0.1186184482E+00    0.1770661171E-04    0.5611310794E+00
    0.3300000000E+07    0.6798936116E+00    0.3640033164E-02    0.1185906548E+00    0.1712635336E-04    0.5613250922E+00
    0.3500000000E+07    0.6799025749E+00    0.3538565858E-02    0.1185637039E+00    0.1659755159E-04    0.5615040124E+00
    0.3700000000E+07    0.6799106037E+00    0.3445312532E-02    0.1185375647E+00    0.1611307563E-04    0.5616698059E+00
    0.3900000000E+07    0.6799178397E+00    0.3359216635E-02    0.1185122036E+00    0.1566710208E-04    0.5618240918E+00
    0.4100000000E+07    0.6799243971E+00    0.3279402965E-02    0.1184875859E+00    0.1525482244E-04    0.5619682183E+00
    0.4300000000E+07    0.6799303691E+00    0.3205139472E-02    0.1184636766E+00    0.1487222674E-04    0.5621033184E+00
    0.4500000000E+07    0.6799358324E+00    0.3135808459E-02    0.1184404419E+00    0.1451594105E-04    0.5622303526E+00
    0.4700000000E+07    0.6799408508E+00    0.3070884570E-02    0.1184178490E+00    0.1418310348E-04    0.5623501415E+00
    0.4900000000E+07    0.6799454777E+00    0.3009917747E-02    0.1183958667E+00    0.1387126862E-04    0.5624633914E+00
    0.1000000000E+07    0.6795454643E+00    0.6447513151E-02    0.1189357431E+00    0.3233867852E-04    0.5567692455E+00
    0.3000000000E+07    0.6798780119E+00    0.3810536307E-02    0.1186326687E+00    0.1801871896E-04    0.5610276795E+00
    0.5000000000E+07    0.6799476587E+00    0.2980794837E-02    0.1183850953E+00    0.1372255816E-04    0.5625177586E+00
    0.7000000000E+07    0.6799787296E+00    0.2534885239E-02    0.1181953917E+00    0.1146667876E-04    0.5633748703E+00
    0.9000000000E+07    0.6799965945E+00    0.2245644731E-02    0.1180422248E+00    0.1002626816E-04    0.5639608910E+00
    0.1100000000E+08    0.6800083125E+00    0.2038436716E-02    0.1179137538E+00    0.9006685985E-05    0.5643994534E+00
    0.1300000000E+08    0.6800166487E+00    0.1880521369E-02    0.1178030416E+00    0.8237160772E-05    0.5647465080E+00
    0.1500000000E+08    0.6800229155E+00    0.1754964157E-02    0.1177057113E+00    0.7630290976E-05    0.5650317748E+00
    0.1700000000E+08    0.6800278187E+00    0.1652004706E-02    0.1176188308E+00    0.7136137864E-05    0.5652727897E+00
    0.1900000000E+08    0.6800317729E+00    0.1565567193E-02    0.1175403404E+00    0.6723843697E-05    0.5654807015E+00
    0.2100000000E+08    0.6800350384E+00    0.1491644391E-02    0.1174687378E+00    0.6373187422E-05    0.5656630064E+00
    0.2300000000E+08    0.6800377871E+00    0.1427471581E-02    0.1174028934E+00    0.6070297357E-05    0.5658249694E+00
    0.2500000000E+08    0.6800401374E+00    0.1371071057E-02    0.1173419360E+00    0.5805301437E-05    0.5659704192E+00
    0.2700000000E+08    0.6800421735E+00    0.1320985488E-02    0.1172851796E+00    0.5570958982E-05    0.5661022216E+00
