  Pressure (Pa) 22mC5-400 (mol/kg) 2mC6-400 (mol/kg) 3mC6-400 (mol/kg) 33mC5-400 (mol/kg) C7-400 (mol/kg)
    0.1000000000E+01    0.1062382043E-02    0.7931264739E-03    0.1575935652E-02    0.6458266194E-03    0.6819528622E-02
    0.3000000000E+01    0.3168311021E-02    0.2318406317E-02    0.4598981187E-02    0.1888236709E-02    0.1990372241E-01
    0.5000000000E+01    0.5249577057E-02    0.3767714985E-02    0.7461843530E-02    0.3069304672E-02    0.3229791910E-01
    0.7000000000E+01    0.7306706915E-02    0.5146851994E-02    0.1017714068E-01    0.4193727935E-02    0.4405638839E-01
    0.9000000000E+01    0.9340212020E-02    0.6461019410E-02    0.1275619372E-01    0.5265718570E-02    0.5522782616E-01
    0.1100000000E+02    0.1135058901E-01    0.7714897540E-02    0.1520918942E-01    0.6289064896E-02    0.6585605313E-01
    0.1300000000E+02    0.1333832028E-01    0.8912709409E-02    0.1754531902E-01    0.7267183943E-02    0.7598061098E-01
    0.1500000000E+02    0.1530387448E-01    0.1005827590E-01    0.1977289713E-01    0.8203166304E-02    0.8563727300E-01
    0.1700000000E+02    0.1724770700E-01    0.1115506308E-01    0.2189946391E-01    0.9099814645E-02    0.9485848337E-01
    0.1900000000E+02    0.1917026045E-01    0.1220622302E-01    0.2393187333E-01    0.9959676878E-02    0.1036737363E+00
    0.2100000000E+02    0.2107196511E-01    0.1321462909E-01    0.2587636964E-01    0.1078507486E-01    0.1121099044E+00
    0.2300000000E+02    0.2295323932E-01    0.1418290653E-01    0.2773865378E-01    0.1157812927E-01    0.1201915244E+00
    0.2500000000E+02    0.2481448995E-01    0.1511345918E-01    0.2952394134E-01    0.1234078129E-01    0.1279410458E+00
    0.2700000000E+02    0.2665611275E-01    0.1600849269E-01    0.3123701321E-01    0.1307481153E-01    0.1353790492E+00
    0.2900000000E+02    0.2847849275E-01    0.1687003498E-01    0.3288226004E-01    0.1378185657E-01    0.1425244364E+00
    0.3100000000E+02    0.3028200462E-01    0.1769995414E-01    0.3446372136E-01    0.1446342355E-01    0.1493945996E+00
    0.3300000000E+02    0.3206701299E-01    0.1849997416E-01    0.3598512003E-01    0.1512090295E-01    0.1560055686E+00
    0.3500000000E+02    0.3383387284E-01    0.1927168896E-01    0.3744989276E-01    0.1575557992E-01    0.1623721427E+00
    0.3700000000E+02    0.3558292976E-01    0.2001657465E-01    0.3886121718E-01    0.1636864432E-01    0.1685080063E+00
    0.3900000000E+02    0.3731452032E-01    0.2073600052E-01    0.4022203580E-01    0.1696119957E-01    0.1744258328E+00
    0.4100000000E+02    0.3902897229E-01    0.2143123878E-01    0.4153507746E-01    0.1753427056E-01    0.1801373761E+00
    0.4300000000E+02    0.4072660501E-01    0.2210347324E-01    0.4280287642E-01    0.1808881074E-01    0.1856535528E+00
    0.4500000000E+02    0.4240772960E-01    0.2275380709E-01    0.4402778944E-01    0.1862570836E-01    0.1909845160E+00
    0.4700000000E+02    0.4407264924E-01    0.2338326985E-01    0.4521201111E-01    0.1914579215E-01    0.1961397208E+00
    0.4900000000E+02    0.4572165945E-01    0.2399282356E-01    0.4635758756E-01    0.1964983633E-01    0.2011279837E+00
    0.1000000000E+02    0.1034826105E-01    0.7095220667E-02    0.1399785243E-01    0.5783250565E-02    0.6060727572E-01
    0.3000000000E+02    0.2938258418E-01    0.1728883650E-01    0.3368072417E-01    0.1412573532E-01    0.1459928888E+00
    0.5000000000E+02    0.4654028881E-01    0.2429041813E-01    0.4691648574E-01    0.1989607176E-01    0.2035621055E+00
    0.7000000000E+02    0.6214411457E-01    0.2938779547E-01    0.5646795551E-01    0.2413206685E-01    0.2452143158E+00
    0.9000000000E+02    0.7644444474E-01    0.3323741513E-01    0.6371037123E-01    0.2736139827E-01    0.2768778535E+00
    0.1100000000E+03    0.8963861316E-01    0.3621525042E-01    0.6940663719E-01    0.2988577910E-01    0.3018442837E+00
    0.1300000000E+03    0.1018843377E+00    0.3855544499E-01    0.7401471539E-01    0.3189294302E-01    0.3220911968E+00
    0.1500000000E+03    0.1133092634E+00    0.4041319076E-01    0.7782656160E-01    0.3350730547E-01    0.3388804091E+00
    0.1700000000E+03    0.1240178694E+00    0.4189636605E-01    0.8103734565E-01    0.3481539597E-01    0.3530561533E+00
    0.1900000000E+03    0.1340965511E+00    0.4308280256E-01    0.8378264584E-01    0.3587970971E-01    0.3652053895E+00
    0.2100000000E+03    0.1436174173E+00    0.4403034374E-01    0.8615968161E-01    0.3674676263E-01    0.3757493662E+00
    0.2300000000E+03    0.1526411660E+00    0.4478302446E-01    0.8824005099E-01    0.3745203329E-01    0.3849985768E+00
    0.2500000000E+03    0.1612192901E+00    0.4537503876E-01    0.9007769551E-01    0.3802313264E-01    0.3931871409E+00
    0.2700000000E+03    0.1693957876E+00    0.4583338314E-01    0.9171405904E-01    0.3848191415E-01    0.4004950854E+00
    0.2900000000E+03    0.1772085031E+00    0.4617967341E-01    0.9318153207E-01    0.3884592355E-01    0.4070632274E+00
    0.3100000000E+03    0.1846901894E+00    0.4643142708E-01    0.9450581242E-01    0.3912942202E-01    0.4130033799E+00
    0.3300000000E+03    0.1918693548E+00    0.4660298955E-01    0.9570756113E-01    0.3934412516E-01    0.4184055144E+00
    0.3500000000E+03    0.1987709465E+00    0.4670621639E-01    0.9680358803E-01    0.3949974760E-01    0.4233428917E+00
    0.3700000000E+03    0.2054169044E+00    0.4675098478E-01    0.9780771597E-01    0.3960441142E-01    0.4278758037E+00
    0.3900000000E+03    0.2118266142E+00    0.4674558278E-01    0.9873142139E-01    0.3966495719E-01    0.4320543482E+00
    0.4100000000E+03    0.2180172803E+00    0.4669700958E-01    0.9958431601E-01    0.3968718415E-01    0.4359205171E+00
    0.4300000000E+03    0.2240042347E+00    0.4661121000E-01    0.1003745140E+00    0.3967603789E-01    0.4395097878E+00
    0.4500000000E+03    0.2298011938E+00    0.4649325952E-01    0.1011089152E+00    0.3963575865E-01    0.4428523527E+00
    0.4700000000E+03    0.2354204749E+00    0.4634751181E-01    0.1017934261E+00    0.3956999969E-01    0.4459740779E+00
    0.4900000000E+03    0.2408731767E+00    0.4617771729E-01    0.1024331342E+00    0.3948192254E-01    0.4488972599E+00
    0.1000000000E+03    0.8316914049E-01    0.3481830037E-01    0.6671811286E-01    0.2869807087E-01    0.2900528932E+00
    0.3000000000E+03    0.1809888524E+00    0.4631640536E-01    0.9386017772E-01    0.3899695193E-01    0.4101057354E+00
    0.5000000000E+03    0.2435402341E+00    0.4608483358E-01    0.1027375877E+00    0.3943038749E-01    0.4502905396E+00
    0.7000000000E+03    0.2901317648E+00    0.4355649243E-01    0.1072872764E+00    0.3773426669E-01    0.4713028053E+00
    0.9000000000E+03    0.3273435403E+00    0.4057104272E-01    0.1100935947E+00    0.3549412658E-01    0.4845032704E+00
    0.1100000000E+04    0.3582111838E+00    0.3764679666E-01    0.1120125021E+00    0.3319168720E-01    0.4936853702E+00
    0.1300000000E+04    0.3844184197E+00    0.3494124542E-01    0.1134141562E+00    0.3099406319E-01    0.5005019421E+00
    0.1500000000E+04    0.4070208984E+00    0.3249232837E-01    0.1144861922E+00    0.2895771046E-01    0.5057968116E+00
    0.1700000000E+04    0.4267388540E+00    0.3029501981E-01    0.1153344340E+00    0.2709559720E-01    0.5100491464E+00
    0.1900000000E+04    0.4440937319E+00    0.2832917416E-01    0.1160233434E+00    0.2540284560E-01    0.5135527570E+00
    0.2100000000E+04    0.4594793967E+00    0.2657045229E-01    0.1165945473E+00    0.2386748846E-01    0.5164985897E+00
    0.2300000000E+04    0.4732026609E+00    0.2499471726E-01    0.1170761881E+00    0.2247524125E-01    0.5190165378E+00
    0.2500000000E+04    0.4855080740E+00    0.2357972813E-01    0.1174880088E+00    0.2121166388E-01    0.5211982782E+00
    0.2700000000E+04    0.4965940060E+00    0.2230567211E-01    0.1178442894E+00    0.2006311719E-01    0.5231105097E+00
    0.2900000000E+04    0.5066235995E+00    0.2115519496E-01    0.1181556262E+00    0.1901714350E-01    0.5248030097E+00
    0.3100000000E+04    0.5157325260E+00    0.2011322460E-01    0.1184300555E+00    0.1806256791E-01    0.5263137408E+00
    0.3300000000E+04    0.5240346569E+00    0.1916672244E-01    0.1186737875E+00    0.1718946647E-01    0.5276722011E+00
    0.3500000000E+04    0.5316263172E+00    0.1830442365E-01    0.1188917008E+00    0.1638907462E-01    0.5289016864E+00
    0.3700000000E+04    0.5385895442E+00    0.1751659299E-01    0.1190876832E+00    0.1565367325E-01    0.5300208593E+00
    0.3900000000E+04    0.5449946271E+00    0.1679480630E-01    0.1192648726E+00    0.1497647123E-01    0.5310448609E+00
    0.4100000000E+04    0.5509021137E+00    0.1613176008E-01    0.1194258310E+00    0.1435149358E-01    0.5319861143E+00
    0.4300000000E+04    0.5563644159E+00    0.1552110792E-01    0.1195726713E+00    0.1377347919E-01    0.5328549168E+00
    0.4500000000E+04    0.5614271064E+00    0.1495732115E-01    0.1197071522E+00    0.1323778968E-01    0.5336598814E+00
    0.4700000000E+04    0.5661299760E+00    0.1443557065E-01    0.1198307502E+00    0.1274032905E-01    0.5344082727E+00
    0.4900000000E+04    0.5705079014E+00    0.1395162686E-01    0.1199447139E+00    0.1227747363E-01    0.5351062642E+00
    0.1000000000E+04    0.3434451913E+00    0.3908711266E-01    0.1111346320E+00    0.3433635223E-01    0.4894658527E+00
    0.3000000000E+04    0.5112855738E+00    0.2062150593E-01    0.1182970300E+00    0.1852907961E-01    0.5255790850E+00
    0.5000000000E+04    0.5725847445E+00    0.1372265357E-01    0.1199984215E+00    0.1205800452E-01    0.5354380411E+00
    0.7000000000E+04    0.6028460496E+00    0.1043160006E-01    0.1207576988E+00    0.8873976952E-02    0.5403838799E+00
    0.9000000000E+04    0.6204178507E+00    0.8555628850E-02    0.1211799752E+00    0.7043550600E-02    0.5434564451E+00
    0.1100000000E+05    0.6317406627E+00    0.7352997452E-02    0.1214432596E+00    0.5873134867E-02    0.5455925568E+00
    0.1300000000E+05    0.6395812295E+00    0.6516812158E-02    0.1216191657E+00    0.5066226513E-02    0.5471849877E+00
    0.1500000000E+05    0.6453028567E+00    0.5900295736E-02    0.1217421180E+00    0.4478209708E-02    0.5484299746E+00
    0.1700000000E+05    0.6496476600E+00    0.5425332555E-02    0.1218307141E+00    0.4031209877E-02    0.5494375180E+00
    0.1900000000E+05    0.6530513008E+00    0.5046819334E-02    0.1218958698E+00    0.3679967525E-02    0.5502745371E+00
    0.2100000000E+05    0.6557851245E+00    0.4736993364E-02    0.1219444038E+00    0.3396542308E-02    0.5509843194E+00
    0.2300000000E+05    0.6580263667E+00    0.4477863700E-02    0.1219807867E+00    0.3162822712E-02    0.5515962372E+00
    0.2500000000E+05    0.6598954015E+00    0.4257269502E-02    0.1220080651E+00    0.2966586327E-02    0.5521310000E+00
    0.2700000000E+05    0.6614766931E+00    0.4066696609E-02    0.1220283830E+00    0.2799302118E-02    0.5526036752E+00
    0.2900000000E+05    0.6628311681E+00    0.3900004220E-02    0.1220432889E+00    0.2654842604E-02    0.5530255173E+00
    0.3100000000E+05    0.6640038280E+00    0.3752649307E-02    0.1220539270E+00    0.2528697055E-02    0.5534051220E+00
    0.3300000000E+05    0.6650286017E+00    0.3621196267E-02    0.1220611592E+00    0.2417473238E-02    0.5537491809E+00
    0.3500000000E+05    0.6659315335E+00    0.3502996750E-02    0.1220656454E+00    0.2318571915E-02    0.5540629906E+00
    0.3700000000E+05    0.6667329349E+00    0.3395974620E-02    0.1220678983E+00    0.2229968327E-02    0.5543508050E+00
    0.3900000000E+05    0.6674488711E+00    0.3298477903E-02    0.1220683214E+00    0.2150061921E-02    0.5546160848E+00
    0.4100000000E+05    0.6680922098E+00    0.3209174582E-02    0.1220672360E+00    0.2077570770E-02    0.5548616777E+00
    0.4300000000E+05    0.6686733753E+00    0.3126977788E-02    0.1220649001E+00    0.2011455967E-02    0.5550899511E+00
    0.4500000000E+05    0.6692008988E+00    0.3050991147E-02    0.1220615234E+00    0.1950866530E-02    0.5553028914E+00
    0.4700000000E+05    0.6696818282E+00    0.2980468206E-02    0.1220572770E+00    0.1895098635E-02    0.5555021796E+00
    0.4900000000E+05    0.6701220350E+00    0.2914781866E-02    0.1220523022E+00    0.1843565009E-02    0.5556892485E+00
    0.1000000000E+05    0.6266396550E+00    0.7894846396E-02    0.1213257248E+00    0.6399556188E-02    0.5446102614E+00
    0.3000000000E+05    0.6634378884E+00    0.3824145873E-02    0.1220490821E+00    0.2589714353E-02    0.5532201434E+00
    0.5000000000E+05    0.6703284397E+00    0.2883583235E-02    0.1220495790E+00    0.1819228550E-02    0.5557785921E+00
    0.7000000000E+05    0.6731831634E+00    0.2418867471E-02    0.1219768432E+00    0.1467792511E-02    0.5571480533E+00
    0.9000000000E+05    0.6747389435E+00    0.2128435738E-02    0.1218930364E+00    0.1259041049E-02    0.5580429743E+00
    0.1100000000E+06    0.6757169788E+00    0.1924552198E-02    0.1218109334E+00    0.1117588554E-02    0.5586913973E+00
    0.1300000000E+06    0.6763884844E+00    0.1771096629E-02    0.1217336084E+00    0.1013881071E-02    0.5591919478E+00
    0.1500000000E+06    0.6768780268E+00    0.1650094148E-02    0.1216615678E+00    0.9337597249E-03    0.5595952685E+00
    0.1700000000E+06    0.6772507723E+00    0.1551448048E-02    0.1215945612E+00    0.8695089946E-03    0.5599304473E+00
    0.1900000000E+06    0.6775441021E+00    0.1468986561E-02    0.1215321315E+00    0.8165282702E-03    0.5602155715E+00
    0.2100000000E+06    0.6777809867E+00    0.1398693590E-02    0.1214737963E+00    0.7718852357E-03    0.5604625761E+00
    0.2300000000E+06    0.6779763177E+00    0.1337826635E-02    0.1214191076E+00    0.7336124100E-03    0.5606797083E+00
    0.2500000000E+06    0.6781401710E+00    0.1284439645E-02    0.1213676682E+00    0.7003346997E-03    0.5608728811E+00
    0.2700000000E+06    0.6782796077E+00    0.1237107851E-02    0.1213191324E+00    0.6710585825E-03    0.5610464642E+00
    0.2900000000E+06    0.6783997230E+00    0.1194760656E-02    0.1212732009E+00    0.6450461669E-03    0.5612037690E+00
    0.3100000000E+06    0.6785042858E+00    0.1156575734E-02    0.1212296150E+00    0.6217365329E-03    0.5613473593E+00
    0.3300000000E+06    0.6785961438E+00    0.1121909473E-02    0.1211881508E+00    0.6006947326E-03    0.5614792566E+00
    0.3500000000E+06    0.6786774891E+00    0.1090249863E-02    0.1211486135E+00    0.5815776570E-03    0.5616010803E+00
    0.3700000000E+06    0.6787500363E+00    0.1061183750E-02    0.1211108332E+00    0.5641105541E-03    0.5617141460E+00
    0.3900000000E+06    0.6788151459E+00    0.1034373535E-02    0.1210746609E+00    0.5480704843E-03    0.5618195356E+00
    0.4100000000E+06    0.6788739114E+00    0.1009540261E-02    0.1210399653E+00    0.5332744163E-03    0.5619181485E+00
    0.4300000000E+06    0.6789272217E+00    0.9864511129E-03    0.1210066305E+00    0.5195705008E-03    0.5620107399E+00
    0.4500000000E+06    0.6789758067E+00    0.9649100337E-03    0.1209745535E+00    0.5068315660E-03    0.5620979494E+00
    0.4700000000E+06    0.6790202716E+00    0.9447505701E-03    0.1209436423E+00    0.4949501966E-03    0.5621803231E+00
    0.4900000000E+06    0.6790611221E+00    0.9258303550E-03    0.1209138148E+00    0.4838349609E-03    0.5622583307E+00
    0.1000000000E+06    0.6752780406E+00    0.2018559335E-02    0.1218514812E+00    0.1182288303E-02    0.5583902006E+00
    0.3000000000E+06    0.6784537525E+00    0.1175191688E-02    0.1212511295E+00    0.6330831752E-03    0.5612771413E+00
    0.5000000000E+06    0.6790803278E+00    0.9167959816E-03    0.1208992840E+00    0.4785397065E-03    0.5622958263E+00
    0.7000000000E+06    0.6793498589E+00    0.7787302748E-03    0.1206510292E+00    0.3986163325E-03    0.5628916385E+00
    0.9000000000E+06    0.6795005331E+00    0.6894076616E-03    0.1204588091E+00    0.3479393586E-03    0.5633051779E+00
    0.1100000000E+07    0.6795970698E+00    0.6255155725E-03    0.1203017788E+00    0.3122124168E-03    0.5636187337E+00
    0.1300000000E+07    0.6796643613E+00    0.5768719237E-03    0.1201689405E+00    0.2853185087E-03    0.5638697146E+00
    0.1500000000E+07    0.6797140405E+00    0.5382238169E-03    0.1200537745E+00    0.2641485141E-03    0.5640781011E+00
    0.1700000000E+07    0.6797522790E+00    0.5065490429E-03    0.1199520936E+00    0.2469343081E-03    0.5642557498E+00
    0.1900000000E+07    0.6797826587E+00    0.4799686961E-03    0.1198610468E+00    0.2325870717E-03    0.5644102419E+00
    0.2100000000E+07    0.6798074026E+00    0.4572447854E-03    0.1197786041E+00    0.2203951540E-03    0.5645467029E+00
    0.2300000000E+07    0.6798279646E+00    0.4375238423E-03    0.1197032683E+00    0.2098713582E-03    0.5646687515E+00
    0.2500000000E+07    0.6798453361E+00    0.4201957368E-03    0.1196339030E+00    0.2006695333E-03    0.5647790332E+00
    0.2700000000E+07    0.6798602166E+00    0.4048111120E-03    0.1195696253E+00    0.1925361402E-03    0.5648795371E+00
    0.2900000000E+07    0.6798731140E+00    0.3910306795E-03    0.1195097351E+00    0.1852806935E-03    0.5649717950E+00
    0.3100000000E+07    0.6798844065E+00    0.3785927910E-03    0.1194536682E+00    0.1787569622E-03    0.5650570106E+00
    0.3300000000E+07    0.6798943810E+00    0.3672919777E-03    0.1194009629E+00    0.1728505909E-03    0.5651361457E+00
    0.3500000000E+07    0.6799032597E+00    0.3569643232E-03    0.1193512365E+00    0.1674707021E-03    0.5652099807E+00
    0.3700000000E+07    0.6799112171E+00    0.3474772404E-03    0.1193041686E+00    0.1625440512E-03    0.5652791573E+00
    0.3900000000E+07    0.6799183922E+00    0.3387221646E-03    0.1192594878E+00    0.1580108653E-03    0.5653442087E+00
    0.4100000000E+07    0.6799248974E+00    0.3306092274E-03    0.1192169624E+00    0.1538218208E-03    0.5654055831E+00
    0.4300000000E+07    0.6799308242E+00    0.3230633082E-03    0.1191763931E+00    0.1499358106E-03    0.5654636605E+00
    0.4500000000E+07    0.6799362482E+00    0.3160210587E-03    0.1191376068E+00    0.1463182669E-03    0.5655187656E+00
    0.4700000000E+07    0.6799412321E+00    0.3094286307E-03    0.1191004529E+00    0.1429398840E-03    0.5655711782E+00
    0.4900000000E+07    0.6799458287E+00    0.3032399179E-03    0.1190647987E+00    0.1397756330E-03    0.5656211409E+00
    0.1000000000E+07    0.6795535467E+00    0.6550864403E-03    0.1203767260E+00    0.3286921155E-03    0.5634715308E+00
    0.3000000000E+07    0.6798789412E+00    0.3846578782E-03    0.1194812547E+00    0.1819351442E-03    0.5650152181E+00
    0.5000000000E+07    0.6799479959E+00    0.3002843186E-03    0.1190474970E+00    0.1382669621E-03    0.5656452707E+00
    0.7000000000E+07    0.6799789020E+00    0.2550829632E-03    0.1187578625E+00    0.1154068642E-03    0.5660389082E+00
    0.9000000000E+07    0.6799966989E+00    0.2258158514E-03    0.1185399409E+00    0.1008360139E-03    0.5663237631E+00
    0.1100000000E+08    0.6800083823E+00    0.2048748410E-03    0.1183651196E+00    0.9053441764E-04    0.5665462955E+00
    0.1300000000E+08    0.6800166986E+00    0.1889297978E-03    0.1182191085E+00    0.8276613337E-04    0.5667285444E+00
    0.1500000000E+08    0.6800229529E+00    0.1762608559E-03    0.1180937300E+00    0.7664400344E-04    0.5668826662E+00
    0.1700000000E+08    0.6800278478E+00    0.1658779042E-03    0.1179838621E+00    0.7166169699E-04    0.5670160634E+00
    0.1900000000E+08    0.6800317962E+00    0.1571651684E-03    0.1178860827E+00    0.6750662403E-04    0.5671335717E+00
    0.2100000000E+08    0.6800350575E+00    0.1497168310E-03    0.1177979913E+00    0.6397409407E-04    0.5672385203E+00
    0.2300000000E+08    0.6800378030E+00    0.1432530833E-03    0.1177178388E+00    0.6092377538E-04    0.5673332973E+00
    0.2500000000E+08    0.6800401508E+00    0.1375738779E-03    0.1176443111E+00    0.5825585067E-04    0.5674196727E+00
    0.2700000000E+08    0.6800421850E+00    0.1325318736E-03    0.1175763957E+00    0.5589714245E-04    0.5674989942E+00
