  Pressure (Pa) 22mC5-400 (mol/kg) 2mC6-400 (mol/kg) 3mC6-400 (mol/kg) 33mC5-400 (mol/kg) C7-400 (mol/kg)
    0.1000000000E+01    0.1058768603E-02    0.4722264045E-02    0.2085621247E-02    0.1922678780E-03    0.8461287168E-02
    0.3000000000E+01    0.3136578604E-02    0.1360345213E-01    0.6001279435E-02    0.5540200726E-03    0.2435163761E-01
    0.5000000000E+01    0.5163538291E-02    0.2180718881E-01    0.9610845914E-02    0.8883788659E-03    0.3900558380E-01
    0.7000000000E+01    0.7142045187E-02    0.2940982541E-01    0.1295019644E-01    0.1198436651E-02    0.5256782934E-01
    0.9000000000E+01    0.9074342585E-02    0.3647629810E-01    0.1604976178E-01    0.1486822545E-02    0.6516113190E-01
    0.1100000000E+02    0.1096253192E-01    0.4306221634E-01    0.1893552579E-01    0.1755787275E-02    0.7689032400E-01
    0.1300000000E+02    0.1280858396E-01    0.4921550643E-01    0.2162981148E-01    0.2007269958E-02    0.8784548011E-01
    0.1500000000E+02    0.1461434894E-01    0.5497771689E-01    0.2415190586E-01    0.2242951132E-02    0.9810443441E-01
    0.1700000000E+02    0.1638156575E-01    0.6038506451E-01    0.2651856088E-01    0.2464295232E-02    0.1077347994E+00
    0.1900000000E+02    0.1811187033E-01    0.6546927937E-01    0.2874439824E-01    0.2672584903E-02    0.1167955971E+00
    0.2100000000E+02    0.1980680330E-01    0.7025829262E-01    0.3084223890E-01    0.2868948910E-02    0.1253385875E+00
    0.2300000000E+02    0.2146781684E-01    0.7477680029E-01    0.3282337319E-01    0.3054385020E-02    0.1334093569E+00
    0.2500000000E+02    0.2309628111E-01    0.7904672853E-01    0.3469778360E-01    0.3229778874E-02    0.1410482160E+00
    0.2700000000E+02    0.2469349003E-01    0.8308761993E-01    0.3647432972E-01    0.3395919652E-02    0.1482909457E+00
    0.2900000000E+02    0.2626066657E-01    0.8691695614E-01    0.3816090262E-01    0.3553513155E-02    0.1551694195E+00
    0.3100000000E+02    0.2779896764E-01    0.9055042886E-01    0.3976455432E-01    0.3703192787E-02    0.1617121251E+00
    0.3300000000E+02    0.2930948858E-01    0.9400216858E-01    0.4129160705E-01    0.3845528827E-02    0.1679446055E+00
    0.3500000000E+02    0.3079326724E-01    0.9728493864E-01    0.4274774580E-01    0.3981036286E-02    0.1738898321E+00
    0.3700000000E+02    0.3225128777E-01    0.1004103007E+00    0.4413809715E-01    0.4110181611E-02    0.1795685222E+00
    0.3900000000E+02    0.3368448413E-01    0.1033887562E+00    0.4546729655E-01    0.4233388413E-02    0.1849994108E+00
    0.4100000000E+02    0.3509374330E-01    0.1062298682E+00    0.4673954619E-01    0.4351042402E-02    0.1901994840E+00
    0.4300000000E+02    0.3647990822E-01    0.1089423667E+00    0.4795866477E-01    0.4463495631E-02    0.1951841795E+00
    0.4500000000E+02    0.3784378056E-01    0.1115342391E+00    0.4912813060E-01    0.4571070188E-02    0.1999675607E+00
    0.4700000000E+02    0.3918612327E-01    0.1140128100E+00    0.5025111893E-01    0.4674061390E-02    0.2045624675E+00
    0.4900000000E+02    0.4050766293E-01    0.1163848097E+00    0.5133053455E-01    0.4772740584E-02    0.2089806470E+00
    0.1000000000E+02    0.1002382465E-01    0.3982616779E-01    0.1751789597E-01    0.1623604737E-02    0.7112779847E-01
    0.3000000000E+02    0.2703335669E-01    0.8875725812E-01    0.3897268254E-01    0.3629305181E-02    0.1584810825E+00
    0.5000000000E+02    0.4116084926E-01    0.1175328013E+00    0.5185474345E-01    0.4820542026E-02    0.2111268651E+00
    0.7000000000E+02    0.5328455790E-01    0.1361698070E+00    0.6059308041E-01    0.5601469678E-02    0.2469647014E+00
    0.9000000000E+02    0.6394644551E-01    0.1489324899E+00    0.6698916016E-01    0.6143978726E-02    0.2732844730E+00
    0.1100000000E+03    0.7350088560E-01    0.1579793557E+00    0.7191989852E-01    0.6535094648E-02    0.2936391197E+00
    0.1300000000E+03    0.8219046113E-01    0.1645307194E+00    0.7586618209E-01    0.6824065060E-02    0.3099793536E+00
    0.1500000000E+03    0.9018752523E-01    0.1693315072E+00    0.7911520211E-01    0.7040999149E-02    0.3234715285E+00
    0.1700000000E+03    0.9761836525E-01    0.1728628805E+00    0.8184984880E-01    0.7205384021E-02    0.3348592587E+00
    0.1900000000E+03    0.1045779461E+00    0.1754494326E+00    0.8419258058E-01    0.7330397116E-02    0.3446410094E+00
    0.2100000000E+03    0.1111392769E+00    0.1773178308E+00    0.8622876068E-01    0.7425265433E-02    0.3531646343E+00
    0.2300000000E+03    0.1173595692E+00    0.1786308827E+00    0.8801989244E-01    0.7496636477E-02    0.3606810310E+00
    0.2500000000E+03    0.1232844078E+00    0.1795083030E+00    0.8961152790E-01    0.7549414452E-02    0.3673762233E+00
    0.2700000000E+03    0.1289506494E+00    0.1800398843E+00    0.9103820299E-01    0.7587291018E-02    0.3733913959E+00
    0.2900000000E+03    0.1343884824E+00    0.1802941325E+00    0.9232663228E-01    0.7613093593E-02    0.3788358722E+00
    0.3100000000E+03    0.1396229214E+00    0.1803240906E+00    0.9349784300E-01    0.7629020516E-02    0.3837957887E+00
    0.3300000000E+03    0.1446749099E+00    0.1801713633E+00    0.9456863984E-01    0.7636803738E-02    0.3883400532E+00
    0.3500000000E+03    0.1495621482E+00    0.1798689577E+00    0.9555263462E-01    0.7637823833E-02    0.3925245360E+00
    0.3700000000E+03    0.1542997228E+00    0.1794433266E+00    0.9646098535E-01    0.7633192817E-02    0.3963950801E+00
    0.3900000000E+03    0.1589005926E+00    0.1789158621E+00    0.9730293687E-01    0.7623814814E-02    0.3999897041E+00
    0.4100000000E+03    0.1633759676E+00    0.1783040053E+00    0.9808622280E-01    0.7610431152E-02    0.4033402418E+00
    0.4300000000E+03    0.1677356086E+00    0.1776220794E+00    0.9881736903E-01    0.7593654344E-02    0.4064735803E+00
    0.4500000000E+03    0.1719880651E+00    0.1768819254E+00    0.9950192593E-01    0.7573994002E-02    0.4094126085E+00
    0.4700000000E+03    0.1761408674E+00    0.1760933906E+00    0.1001446483E+00    0.7551876832E-02    0.4121769519E+00
    0.4900000000E+03    0.1802006821E+00    0.1752647087E+00    0.1007496364E+00    0.7527662207E-02    0.4147835492E+00
    0.1000000000E+03    0.6884491461E-01    0.1538293680E+00    0.6960154959E-01    0.6354788565E-02    0.2840608568E+00
    0.3000000000E+03    0.1370297325E+00    0.1803343174E+00    0.9292575447E-01    0.7622173869E-02    0.3813717459E+00
    0.5000000000E+03    0.1821975981E+00    0.1748375192E+00    0.1010391103E+00    0.7514865309E-02    0.4160323659E+00
    0.7000000000E+03    0.2184020215E+00    0.1653877046E+00    0.1055063944E+00    0.7202516176E-02    0.4354556468E+00
    0.9000000000E+03    0.2493852198E+00    0.1556847018E+00    0.1084324752E+00    0.6852097458E-02    0.4483656898E+00
    0.1100000000E+04    0.2767180448E+00    0.1465236261E+00    0.1105367416E+00    0.6505180807E-02    0.4577694295E+00
    0.1300000000E+04    0.3012326447E+00    0.1380746676E+00    0.1121416698E+00    0.6174340480E-02    0.4650245877E+00
    0.1500000000E+04    0.3234405218E+00    0.1303384010E+00    0.1134164432E+00    0.5863307308E-02    0.4708481255E+00
    0.1700000000E+04    0.3436908358E+00    0.1232664754E+00    0.1144595549E+00    0.5572669338E-02    0.4756599356E+00
    0.1900000000E+04    0.3622409474E+00    0.1167988379E+00    0.1153327710E+00    0.5301806926E-02    0.4797248038E+00
    0.2100000000E+04    0.3792916016E+00    0.1108760111E+00    0.1160770545E+00    0.5049634375E-02    0.4832192578E+00
    0.2300000000E+04    0.3950060135E+00    0.1054430341E+00    0.1167207860E+00    0.4814908831E-02    0.4862662114E+00
    0.2500000000E+04    0.4095209408E+00    0.1004504380E+00    0.1172843320E+00    0.4596366064E-02    0.4889542888E+00
    0.2700000000E+04    0.4229534867E+00    0.9585415506E-01    0.1177827362E+00    0.4392781566E-02    0.4913492503E+00
    0.2900000000E+04    0.4354055002E+00    0.9161506831E-01    0.1182273826E+00    0.4202997508E-02    0.4935010769E+00
    0.3100000000E+04    0.4469665631E+00    0.8769847410E-01    0.1186270648E+00    0.4025933339E-02    0.4954485388E+00
    0.3300000000E+04    0.4577161114E+00    0.8407355758E-01    0.1189886968E+00    0.3860588307E-02    0.4972222421E+00
    0.3500000000E+04    0.4677250049E+00    0.8071291672E-01    0.1193177985E+00    0.3706039903E-02    0.4988467195E+00
    0.3700000000E+04    0.4770567346E+00    0.7759214242E-01    0.1196188376E+00    0.3561440286E-02    0.5003419003E+00
    0.3900000000E+04    0.4857683824E+00    0.7468945264E-01    0.1198954727E+00    0.3426011750E-02    0.5017241667E+00
    0.4100000000E+04    0.4939114033E+00    0.7198537494E-01    0.1201507329E+00    0.3299041804E-02    0.5030071284E+00
    0.4300000000E+04    0.5015322803E+00    0.6946247112E-01    0.1203871495E+00    0.3179878213E-02    0.5042021990E+00
    0.4500000000E+04    0.5086730797E+00    0.6710509819E-01    0.1206068565E+00    0.3067924151E-02    0.5053190324E+00
    0.4700000000E+04    0.5153719301E+00    0.6489920035E-01    0.1208116671E+00    0.2962633581E-02    0.5063658576E+00
    0.4900000000E+04    0.5216634386E+00    0.6283212769E-01    0.1210031329E+00    0.2863506918E-02    0.5073497384E+00
    0.1000000000E+04    0.2634455110E+00    0.1510192744E+00    0.1095620191E+00    0.6677091804E-02    0.4533994585E+00
    0.3000000000E+04    0.4412922184E+00    0.8961847086E-01    0.1184323746E+00    0.4112939850E-02    0.4944982774E+00
    0.5000000000E+04    0.5246663823E+00    0.6184704272E-01    0.1210942864E+00    0.2816110630E-02    0.5078200148E+00
    0.7000000000E+04    0.5696035903E+00    0.4719634578E-01    0.1224613164E+00    0.2099762977E-02    0.5150438901E+00
    0.9000000000E+04    0.5964033913E+00    0.3847863990E-01    0.1233124418E+00    0.1664653688E-02    0.5197538297E+00
    0.1100000000E+05    0.6137049669E+00    0.3279890127E-01    0.1238996509E+00    0.1379128550E-02    0.5231412343E+00
    0.1300000000E+05    0.6255827665E+00    0.2883596304E-01    0.1243317098E+00    0.1180043656E-02    0.5257316414E+00
    0.1500000000E+05    0.6341386342E+00    0.2592168534E-01    0.1246640006E+00    0.1034447700E-02    0.5277977441E+00
    0.1700000000E+05    0.6405415571E+00    0.2368879692E-01    0.1249279657E+00    0.9238463424E-03    0.5294970384E+00
    0.1900000000E+05    0.6454834669E+00    0.2192125281E-01    0.1251428975E+00    0.8372068694E-03    0.5309277167E+00
    0.2100000000E+05    0.6493956282E+00    0.2048469823E-01    0.1253213450E+00    0.7676042509E-03    0.5321546223E+00
    0.2300000000E+05    0.6525586969E+00    0.1929163319E-01    0.1254718516E+00    0.7105021165E-03    0.5332225428E+00
    0.2500000000E+05    0.6551620976E+00    0.1828282007E-01    0.1256004508E+00    0.6628193976E-03    0.5341635487E+00
    0.2700000000E+05    0.6573377175E+00    0.1741681285E-01    0.1257115339E+00    0.6223977543E-03    0.5350012954E+00
    0.2900000000E+05    0.6591798754E+00    0.1666378309E-01    0.1258083780E+00    0.5876843717E-03    0.5357536686E+00
    0.3100000000E+05    0.6607576116E+00    0.1600173221E-01    0.1258934823E+00    0.5575358559E-03    0.5364344788E+00
    0.3300000000E+05    0.6621225028E+00    0.1541408641E-01    0.1259687877E+00    0.5310929809E-03    0.5370545848E+00
    0.3500000000E+05    0.6633137791E+00    0.1488812241E-01    0.1260358258E+00    0.5076983584E-03    0.5376226595E+00
    0.3700000000E+05    0.6643617601E+00    0.1441390936E-01    0.1260958228E+00    0.4868409279E-03    0.5381457262E+00
    0.3900000000E+05    0.6652902160E+00    0.1398358053E-01    0.1261497720E+00    0.4681176710E-03    0.5386295420E+00
    0.4100000000E+05    0.6661180226E+00    0.1359082117E-01    0.1261984877E+00    0.4512066648E-03    0.5390788776E+00
    0.4300000000E+05    0.6668603443E+00    0.1323050162E-01    0.1262426434E+00    0.4358477640E-03    0.5394977250E+00
    0.4500000000E+05    0.6675294925E+00    0.1289840972E-01    0.1262828019E+00    0.4218285220E-03    0.5398894541E+00
    0.4700000000E+05    0.6681355585E+00    0.1259105274E-01    0.1263194367E+00    0.4089737735E-03    0.5402569322E+00
    0.4900000000E+05    0.6686868868E+00    0.1230550859E-01    0.1263529496E+00    0.3971378196E-03    0.5406026169E+00
    0.1000000000E+05    0.6059216400E+00    0.3536341756E-01    0.1236304211E+00    0.1508131657E-02    0.5215714480E+00
    0.3000000000E+05    0.6599982335E+00    0.1632252674E-01    0.1258522653E+00    0.5720987411E-03    0.5361022815E+00
    0.5000000000E+05    0.6689442443E+00    0.1217013076E-01    0.1263686445E+00    0.3915629263E-03    0.5407679608E+00
    0.7000000000E+05    0.6724230075E+00    0.1017135552E-01    0.1265804420E+00    0.3121568065E-03    0.5433200131E+00
    0.9000000000E+05    0.6742493478E+00    0.8937211937E-02    0.1266834819E+00    0.2660118728E-03    0.5450013817E+00
    0.1100000000E+06    0.6753694296E+00    0.8076378837E-02    0.1267361413E+00    0.2351830761E-03    0.5462228496E+00
    0.1300000000E+06    0.6761250529E+00    0.7430861834E-02    0.1267619239E+00    0.2127992646E-03    0.5471656815E+00
    0.1500000000E+06    0.6766687221E+00    0.6923017156E-02    0.1267720495E+00    0.1956267204E-03    0.5479241790E+00
    0.1700000000E+06    0.6770784828E+00    0.6509601181E-02    0.1267725033E+00    0.1819274207E-03    0.5485529975E+00
    0.1900000000E+06    0.6773983332E+00    0.6164339117E-02    0.1267667380E+00    0.1706762383E-03    0.5490863427E+00
    0.2100000000E+06    0.6776549329E+00    0.5870208234E-02    0.1267568645E+00    0.1612254875E-03    0.5495468910E+00
    0.2300000000E+06    0.6778653646E+00    0.5615622141E-02    0.1267442319E+00    0.1531437043E-03    0.5499503657E+00
    0.2500000000E+06    0.6780410740E+00    0.5392379780E-02    0.1267297332E+00    0.1461311279E-03    0.5503080677E+00
    0.2700000000E+06    0.6781900153E+00    0.5194488495E-02    0.1267139761E+00    0.1399722617E-03    0.5506283635E+00
    0.2900000000E+06    0.6783178868E+00    0.5017452146E-02    0.1266973832E+00    0.1345077372E-03    0.5509176008E+00
    0.3100000000E+06    0.6784288769E+00    0.4857821416E-02    0.1266802542E+00    0.1296168506E-03    0.5511806982E+00
    0.3300000000E+06    0.6785261327E+00    0.4712899213E-02    0.1266628039E+00    0.1252063021E-03    0.5514215356E+00
    0.3500000000E+06    0.6786120650E+00    0.4580541615E-02    0.1266451887E+00    0.1212026950E-03    0.5516432218E+00
    0.3700000000E+06    0.6786885510E+00    0.4459019721E-02    0.1266275229E+00    0.1175473976E-03    0.5518482821E+00
    0.3900000000E+06    0.6787570745E+00    0.4346921527E-02    0.1266098904E+00    0.1141929368E-03    0.5520387925E+00
    0.4100000000E+06    0.6788188238E+00    0.4243080784E-02    0.1265923532E+00    0.1111004116E-03    0.5522164787E+00
    0.4300000000E+06    0.6788747617E+00    0.4146524490E-02    0.1265749567E+00    0.1082376030E-03    0.5523827883E+00
    0.4500000000E+06    0.6789256765E+00    0.4056433483E-02    0.1265577344E+00    0.1055775688E-03    0.5525389470E+00
    0.4700000000E+06    0.6789722200E+00    0.3972112451E-02    0.1265407103E+00    0.1030975838E-03    0.5526860003E+00
    0.4900000000E+06    0.6790149357E+00    0.3892966804E-02    0.1265239015E+00    0.1007783281E-03    0.5528248466E+00
    0.1000000000E+06    0.6748695390E+00    0.8472795510E-02    0.1267142144E+00    0.2492405341E-03    0.5456553316E+00
    0.3000000000E+06    0.6783752751E+00    0.4935644581E-02    0.1266888707E+00    0.1319969606E-03    0.5510521538E+00
    0.5000000000E+06    0.6790350037E+00    0.3855171956E-02    0.1265155816E+00    0.9967370970E-04    0.5528914391E+00
    0.7000000000E+06    0.6793157070E+00    0.3277296606E-02    0.1263616654E+00    0.8301907225E-04    0.5539357540E+00
    0.9000000000E+06    0.6794719604E+00    0.2903085034E-02    0.1262296552E+00    0.7247192410E-04    0.5546434959E+00
    0.1100000000E+07    0.6795718893E+00    0.2635207070E-02    0.1261151074E+00    0.6503986158E-04    0.5551696192E+00
    0.1300000000E+07    0.6796414971E+00    0.2431132350E-02    0.1260141842E+00    0.5944631515E-04    0.5555837298E+00
    0.1500000000E+07    0.6796928818E+00    0.2268907172E-02    0.1259240503E+00    0.5504346270E-04    0.5559225879E+00
    0.1700000000E+07    0.6797324431E+00    0.2135893749E-02    0.1258426308E+00    0.5146323662E-04    0.5562077803E+00
    0.1900000000E+07    0.6797638882E+00    0.2024231230E-02    0.1257683829E+00    0.4847910950E-04    0.5564529757E+00
    0.2100000000E+07    0.6797895152E+00    0.1928737830E-02    0.1257001349E+00    0.4594307742E-04    0.5566673324E+00
    0.2300000000E+07    0.6798108254E+00    0.1845839774E-02    0.1256369789E+00    0.4375384058E-04    0.5568572622E+00
    0.2500000000E+07    0.6798288421E+00    0.1772981285E-02    0.1255781978E+00    0.4183943670E-04    0.5570274153E+00
    0.2700000000E+07    0.6798442871E+00    0.1708279414E-02    0.1255232163E+00    0.4014716171E-04    0.5571812630E+00
    0.2900000000E+07    0.6798576842E+00    0.1650312000E-02    0.1254715656E+00    0.3863742069E-04    0.5573214598E+00
    0.3100000000E+07    0.6798694234E+00    0.1597982010E-02    0.1254228590E+00    0.3727981834E-04    0.5574500776E+00
    0.3300000000E+07    0.6798798007E+00    0.1550427736E-02    0.1253767736E+00    0.3605058499E-04    0.5575687625E+00
    0.3500000000E+07    0.6798890452E+00    0.1506961571E-02    0.1253330373E+00    0.3493083086E-04    0.5576788416E+00
    0.3700000000E+07    0.6798973370E+00    0.1467027208E-02    0.1252914184E+00    0.3390533095E-04    0.5577814002E+00
    0.3900000000E+07    0.6799048194E+00    0.1430169037E-02    0.1252517179E+00    0.3296166017E-04    0.5578773355E+00
    0.4100000000E+07    0.6799116084E+00    0.1396009841E-02    0.1252137641E+00    0.3208956521E-04    0.5579673978E+00
    0.4300000000E+07    0.6799177985E+00    0.1364234247E-02    0.1251774072E+00    0.3128050043E-04    0.5580522199E+00
    0.4500000000E+07    0.6799234677E+00    0.1334576261E-02    0.1251425161E+00    0.3052727930E-04    0.5581323402E+00
    0.4700000000E+07    0.6799286808E+00    0.1306809743E-02    0.1251089754E+00    0.2982380900E-04    0.5582082205E+00
    0.4900000000E+07    0.6799334921E+00    0.1280741035E-02    0.1250766828E+00    0.2916488564E-04    0.5582802596E+00
    0.1000000000E+07    0.6795268503E+00    0.2759210616E-02    0.1261704638E+00    0.6846777264E-04    0.5549238036E+00
    0.3000000000E+07    0.6798637407E+00    0.1623500873E-02    0.1254468658E+00    0.3794121946E-04    0.5573871047E+00
    0.5000000000E+07    0.6799357619E+00    0.1268290280E-02    0.1250609757E+00    0.2885070586E-04    0.5583149487E+00
    0.7000000000E+07    0.6799682331E+00    0.1077802558E-02    0.1247947383E+00    0.2408889384E-04    0.5588715031E+00
    0.9000000000E+07    0.6799870470E+00    0.9543909436E-03    0.1245907544E+00    0.2105245125E-04    0.5592635170E+00
    0.1100000000E+08    0.6799994634E+00    0.8660516921E-03    0.1244251460E+00    0.1890500609E-04    0.5595637218E+00
    0.1300000000E+08    0.6800083422E+00    0.7987670096E-03    0.1242856287E+00    0.1728524992E-04    0.5598057755E+00
    0.1500000000E+08    0.6800150468E+00    0.7452937671E-03    0.1241650297E+00    0.1600847723E-04    0.5600078865E+00
    0.1700000000E+08    0.6800203134E+00    0.7014605782E-03    0.1240587896E+00    0.1496924305E-04    0.5601809667E+00
    0.1900000000E+08    0.6800245757E+00    0.6646723614E-03    0.1239638268E+00    0.1410243530E-04    0.5603320481E+00
    0.2100000000E+08    0.6800281070E+00    0.6332184297E-03    0.1238779594E+00    0.1336540926E-04    0.5604659160E+00
    0.2300000000E+08    0.6800310881E+00    0.6059190209E-03    0.1237995854E+00    0.1272892375E-04    0.5605859678E+00
    0.2500000000E+08    0.6800336439E+00    0.5819305139E-03    0.1237274932E+00    0.1217217669E-04    0.5606946985E+00
    0.2700000000E+08    0.6800358637E+00    0.5606314547E-03    0.1236607443E+00    0.1167991578E-04    0.5607939921E+00
