  Pressure (Pa) 22mC5-400 (mol/kg) 2mC6-400 (mol/kg) 3mC6-400 (mol/kg) 33mC5-400 (mol/kg) C7-400 (mol/kg)
    0.1000000000E+01    0.1059513573E-02    0.3922874855E-02    0.5191957796E-03    0.2555666810E-03    0.1348098409E-01
    0.3000000000E+01    0.3143074937E-02    0.1123618506E-01    0.1482169925E-02    0.7322966134E-03    0.3849372384E-01
    0.5000000000E+01    0.5181032153E-02    0.1792141408E-01    0.2356497386E-02    0.1168457938E-02    0.6121486849E-01
    0.7000000000E+01    0.7175302484E-02    0.2406109993E-01    0.3154193379E-02    0.1569396001E-02    0.8195455570E-01
    0.9000000000E+01    0.9127693166E-02    0.2972341979E-01    0.3885181866E-02    0.1939523626E-02    0.1009689841E+00
    0.1100000000E+02    0.1103990928E-01    0.3496521520E-01    0.4557732421E-02    0.2282517889E-02    0.1184716762E+00
    0.1300000000E+02    0.1291356096E-01    0.3983428210E-01    0.5178791919E-02    0.2601469041E-02    0.1346420303E+00
    0.1500000000E+02    0.1475016999E-01    0.4437112604E-01    0.5754239436E-02    0.2898994594E-02    0.1496318931E+00
    0.1700000000E+02    0.1655117588E-01    0.4861032260E-01    0.6289084349E-02    0.3177327723E-02    0.1635706688E+00
    0.1900000000E+02    0.1831794138E-01    0.5258158297E-01    0.6787621870E-02    0.3438386479E-02    0.1765693301E+00
    0.2100000000E+02    0.2005175765E-01    0.5631059659E-01    0.7253556317E-02    0.3683828500E-02    0.1887235981E+00
    0.2300000000E+02    0.2175384893E-01    0.5981970344E-01    0.7690099678E-02    0.3915094650E-02    0.2001164847E+00
    0.2500000000E+02    0.2342537687E-01    0.6312843500E-01    0.8100051058E-02    0.4133444109E-02    0.2108203422E+00
    0.2700000000E+02    0.2506744460E-01    0.6625395273E-01    0.8485861203E-02    0.4339982814E-02    0.2208985280E+00
    0.2900000000E+02    0.2668110032E-01    0.6921140627E-01    0.8849685264E-02    0.4535686678E-02    0.2304067665E+00
    0.3100000000E+02    0.2826734083E-01    0.7201422784E-01    0.9193426254E-02    0.4721420668E-02    0.2393942699E+00
    0.3300000000E+02    0.2982711461E-01    0.7467437592E-01    0.9518771025E-02    0.4897954590E-02    0.2479046675E+00
    0.3500000000E+02    0.3136132482E-01    0.7720253808E-01    0.9827220259E-02    0.5065976221E-02    0.2559767790E+00
    0.3700000000E+02    0.3287083196E-01    0.7960830073E-01    0.1012011358E-01    0.5226102293E-02    0.2636452634E+00
    0.3900000000E+02    0.3435645643E-01    0.8190029205E-01    0.1039865073E-01    0.5378887745E-02    0.2709411649E+00
    0.4100000000E+02    0.3581898089E-01    0.8408630283E-01    0.1066390940E-01    0.5524833534E-02    0.2778923746E+00
    0.4300000000E+02    0.3725915239E-01    0.8617338920E-01    0.1091686052E-01    0.5664393276E-02    0.2845240235E+00
    0.4500000000E+02    0.3867768446E-01    0.8816796037E-01    0.1115838119E-01    0.5797978919E-02    0.2908588181E+00
    0.4700000000E+02    0.4007525897E-01    0.9007585381E-01    0.1138926584E-01    0.5925965592E-02    0.2969173270E+00
    0.4900000000E+02    0.4145252790E-01    0.9190239999E-01    0.1161023577E-01    0.6048695795E-02    0.3027182292E+00
    0.1000000000E+02    0.1008872027E-01    0.3239370659E-01    0.4228300010E-02    0.2114207014E-02    0.1098973703E+00
    0.3000000000E+02    0.2747758710E-01    0.7063136666E-01    0.9023956026E-02    0.4629749729E-02    0.2349627621E+00
    0.5000000000E+02    0.4213374376E-01    0.9278670894E-01    0.1171721020E-01    0.6108188727E-02    0.3055274514E+00
    0.7000000000E+02    0.5483021197E-01    0.1071938323E+00    0.1346796470E-01    0.7085781036E-02    0.3516018479E+00
    0.9000000000E+02    0.6606353864E-01    0.1171586418E+00    0.1471039406E-01    0.7774889823E-02    0.3844374460E+00
    0.1100000000E+03    0.7616857848E-01    0.1243060533E+00    0.1564512810E-01    0.8279936535E-02    0.4092415506E+00
    0.1300000000E+03    0.8538019747E-01    0.1295459178E+00    0.1637826121E-01    0.8659495899E-02    0.4287719850E+00
    0.1500000000E+03    0.9386855775E-01    0.1334338172E+00    0.1697145055E-01    0.8949433618E-02    0.4446338476E+00
    0.1700000000E+03    0.1017603426E+00    0.1363305348E+00    0.1746312559E-01    0.9173119363E-02    0.4578290194E+00
    0.1900000000E+03    0.1091520747E+00    0.1384813687E+00    0.1787856800E-01    0.9346503939E-02    0.4690175569E+00
    0.2100000000E+03    0.1161187782E+00    0.1400591545E+00    0.1823514049E-01    0.9480874074E-02    0.4786534075E+00
    0.2300000000E+03    0.1227197874E+00    0.1411892022E+00    0.1854519234E-01    0.9584450360E-02    0.4870598924E+00
    0.2500000000E+03    0.1290027490E+00    0.1419645218E+00    0.1881776630E-01    0.9663364136E-02    0.4944740882E+00
    0.2700000000E+03    0.1350064432E+00    0.1424555207E+00    0.1905964850E-01    0.9722280535E-02    0.5010741489E+00
    0.2900000000E+03    0.1407628156E+00    0.1427163959E+00    0.1927603961E-01    0.9764809983E-02    0.5069967870E+00
    0.3100000000E+03    0.1462984667E+00    0.1427894735E+00    0.1947099819E-01    0.9793788046E-02    0.5123488326E+00
    0.3300000000E+03    0.1516357625E+00    0.1427082284E+00    0.1964774216E-01    0.9811470573E-02    0.5172150967E+00
    0.3500000000E+03    0.1567936749E+00    0.1424994301E+00    0.1980885871E-01    0.9819672723E-02    0.5216638545E+00
    0.3700000000E+03    0.1617884263E+00    0.1421846978E+00    0.1995645386E-01    0.9819869916E-02    0.5257507528E+00
    0.3900000000E+03    0.1666339901E+00    0.1417816454E+00    0.2009226100E-01    0.9813272354E-02    0.5295216492E+00
    0.4100000000E+03    0.1713424841E+00    0.1413047367E+00    0.2021772106E-01    0.9800880854E-02    0.5330147110E+00
    0.4300000000E+03    0.1759244818E+00    0.1407659340E+00    0.2033404267E-01    0.9783529246E-02    0.5362619903E+00
    0.4500000000E+03    0.1803892623E+00    0.1401751939E+00    0.2044224786E-01    0.9761916946E-02    0.5392906238E+00
    0.4700000000E+03    0.1847450125E+00    0.1395408527E+00    0.2054320734E-01    0.9736634270E-02    0.5421237572E+00
    0.4900000000E+03    0.1889989912E+00    0.1388699266E+00    0.2063766795E-01    0.9708182284E-02    0.5447812667E+00
    0.1000000000E+03    0.7124057487E-01    0.1210165946E+00    0.1520817632E-01    0.8046051018E-02    0.3976343611E+00
    0.3000000000E+03    0.1435567452E+00    0.1427741384E+00    0.1937597996E-01    0.9780840211E-02    0.5097383906E+00
    0.5000000000E+03    0.1910898644E+00    0.1385226354E+00    0.2068266612E-01    0.9692903916E-02    0.5460496221E+00
    0.7000000000E+03    0.2288185233E+00    0.1306988778E+00    0.2135974983E-01    0.9297455138E-02    0.5653554656E+00
    0.9000000000E+03    0.2608337114E+00    0.1225223876E+00    0.2178392268E-01    0.8833334211E-02    0.5777237100E+00
    0.1100000000E+04    0.2888658798E+00    0.1147415091E+00    0.2207831729E-01    0.8365136081E-02    0.5864830847E+00
    0.1300000000E+04    0.3138364447E+00    0.1075410097E+00    0.2229627613E-01    0.7914395228E-02    0.5930902267E+00
    0.1500000000E+04    0.3363145217E+00    0.1009423572E+00    0.2246500746E-01    0.7488630139E-02    0.5982950139E+00
    0.1700000000E+04    0.3566902101E+00    0.9491503555E-01    0.2259997422E-01    0.7090002024E-02    0.6025273218E+00
    0.1900000000E+04    0.3752518041E+00    0.8941289525E-01    0.2271067126E-01    0.6718419839E-02    0.6060532878E+00
    0.2100000000E+04    0.3922243129E+00    0.8438713901E-01    0.2280327869E-01    0.6372805197E-02    0.6090475076E+00
    0.2300000000E+04    0.4077904006E+00    0.7979109059E-01    0.2288200671E-01    0.6051657478E-02    0.6116298294E+00
    0.2500000000E+04    0.4221025984E+00    0.7558183429E-01    0.2294983066E-01    0.5753323603E-02    0.6138855717E+00
    0.2700000000E+04    0.4352908727E+00    0.7172060651E-01    0.2300891754E-01    0.5476132461E-02    0.6158773175E+00
    0.2900000000E+04    0.4474675784E+00    0.6817268572E-01    0.2306088603E-01    0.5218463078E-02    0.6176521372E+00
    0.3100000000E+04    0.4587308696E+00    0.6490709102E-01    0.2310697147E-01    0.4978778511E-02    0.6192461950E+00
    0.3300000000E+04    0.4691671570E+00    0.6189622250E-01    0.2314813420E-01    0.4755641295E-02    0.6206877887E+00
    0.3500000000E+04    0.4788529513E+00    0.5911550021E-01    0.2318513289E-01    0.4547718657E-02    0.6219994160E+00
    0.3700000000E+04    0.4878562975E+00    0.5654302558E-01    0.2321857543E-01    0.4353781967E-02    0.6231992146E+00
    0.3900000000E+04    0.4962379221E+00    0.5415927356E-01    0.2324895502E-01    0.4172702982E-02    0.6243019884E+00
    0.4100000000E+04    0.5040521734E+00    0.5194681743E-01    0.2327667625E-01    0.4003448363E-02    0.6253199539E+00
    0.4300000000E+04    0.5113478078E+00    0.4989008475E-01    0.2330207441E-01    0.3845073351E-02    0.6262632923E+00
    0.4500000000E+04    0.5181686546E+00    0.4797514215E-01    0.2332542986E-01    0.3696715147E-02    0.6271405642E+00
    0.4700000000E+04    0.5245541871E+00    0.4618950586E-01    0.2334697894E-01    0.3557586322E-02    0.6279590257E+00
    0.4900000000E+04    0.5305400156E+00    0.4452197521E-01    0.2336692239E-01    0.3426968449E-02    0.6287248723E+00
    0.1000000000E+04    0.2752786605E+00    0.1185648253E+00    0.2194311978E-01    0.8597897069E-02    0.5824395011E+00
    0.3000000000E+04    0.4532077489E+00    0.6650639754E-01    0.2308459866E-01    0.5096464963E-02    0.6184698363E+00
    0.5000000000E+04    0.5333932193E+00    0.4372931379E-01    0.2337634663E-01    0.3364643988E-02    0.6290897590E+00
    0.7000000000E+04    0.5758151416E+00    0.3211505642E-01    0.2351156098E-01    0.2433920358E-02    0.6345966406E+00
    0.9000000000E+04    0.6009117156E+00    0.2539468755E-01    0.2358871998E-01    0.1880726706E-02    0.6380836251E+00
    0.1100000000E+05    0.6170663610E+00    0.2111916603E-01    0.2363778261E-01    0.1524102285E-02    0.6405381452E+00
    0.1300000000E+05    0.6281526757E+00    0.1819778678E-01    0.2367109543E-01    0.1279222683E-02    0.6423837742E+00
    0.1500000000E+05    0.6361459076E+00    0.1608943219E-01    0.2369470703E-01    0.1102573336E-02    0.6438356602E+00
    0.1700000000E+05    0.6421374138E+00    0.1450132036E-01    0.2371193662E-01    0.9700549439E-03    0.6450159489E+00
    0.1900000000E+05    0.6467707952E+00    0.1326356168E-01    0.2372475874E-01    0.8674480108E-03    0.6459997127E+00
    0.2100000000E+05    0.6504464212E+00    0.1227178909E-01    0.2373442131E-01    0.7859108749E-03    0.6468359273E+00
    0.2300000000E+05    0.6534246301E+00    0.1145879079E-01    0.2374175108E-01    0.7196998714E-03    0.6475580640E+00
    0.2500000000E+05    0.6558811173E+00    0.1077953782E-01    0.2374731689E-01    0.6649435414E-03    0.6481898684E+00
    0.2700000000E+05    0.6579382574E+00    0.1020283450E-01    0.2375152241E-01    0.6189489555E-03    0.6487487100E+00
    0.2900000000E+05    0.6596836278E+00    0.9706438660E-02    0.2375466163E-01    0.5797915163E-03    0.6492476237E+00
    0.3100000000E+05    0.6611813919E+00    0.9274092454E-02    0.2375695336E-01    0.5460629843E-03    0.6496966067E+00
    0.3300000000E+05    0.6624795336E+00    0.8893651325E-02    0.2375856359E-01    0.5167114748E-03    0.6501034702E+00
    0.3500000000E+05    0.6636145917E+00    0.8555868271E-02    0.2375962026E-01    0.4909368524E-03    0.6504744177E+00
    0.3700000000E+05    0.6646148395E+00    0.8253582292E-02    0.2376022339E-01    0.4681205563E-03    0.6508144458E+00
    0.3900000000E+05    0.6655024701E+00    0.7981163469E-02    0.2376045220E-01    0.4477774313E-03    0.6511276305E+00
    0.4100000000E+05    0.6662951287E+00    0.7734125303E-02    0.2376037010E-01    0.4295219773E-03    0.6514173336E+00
    0.4300000000E+05    0.6670070088E+00    0.7508848627E-02    0.2376002837E-01    0.4130442609E-03    0.6516863561E+00
    0.4500000000E+05    0.6676496476E+00    0.7302381541E-02    0.2375946881E-01    0.3980924314E-03    0.6519370529E+00
    0.4700000000E+05    0.6682325135E+00    0.7112292105E-02    0.2375872582E-01    0.3844598376E-03    0.6521714200E+00
    0.4900000000E+05    0.6687634454E+00    0.6936558326E-02    0.2375782788E-01    0.3719754016E-03    0.6523911619E+00
    0.1000000000E+05    0.6098015243E+00    0.2303799740E-01    0.2361577457E-01    0.1684512867E-02    0.6394063607E+00
    0.3000000000E+05    0.6604601473E+00    0.9483098103E-02    0.2375590202E-01    0.5623212984E-03    0.6494778250E+00
    0.5000000000E+05    0.6690115237E+00    0.6853534117E-02    0.2375732838E-01    0.3661181779E-03    0.6524960144E+00
    0.7000000000E+05    0.6723824659E+00    0.5649551768E-02    0.2374329234E-01    0.2844412611E-03    0.6540927572E+00
    0.9000000000E+05    0.6741686299E+00    0.4926051843E-02    0.2372653213E-01    0.2386464592E-03    0.6551208311E+00
    0.1100000000E+06    0.6752715951E+00    0.4429796957E-02    0.2370983346E-01    0.2088085065E-03    0.6558544860E+00
    0.1300000000E+06    0.6760196899E+00    0.4061854770E-02    0.2369393481E-01    0.1875397603E-03    0.6564125005E+00
    0.1500000000E+06    0.6765603289E+00    0.3774724390E-02    0.2367900522E-01    0.1714509488E-03    0.6568557847E+00
    0.1700000000E+06    0.6769693362E+00    0.3542402339E-02    0.2366503348E-01    0.1587578297E-03    0.6572192262E+00
    0.1900000000E+06    0.6772896391E+00    0.3349296663E-02    0.2365195135E-01    0.1484259538E-03    0.6575244406E+00
    0.2100000000E+06    0.6775473424E+00    0.3185410777E-02    0.2363967659E-01    0.1398111386E-03    0.6577856324E+00
    0.2300000000E+06    0.6777592255E+00    0.3043997789E-02    0.2362812856E-01    0.1324895176E-03    0.6580125733E+00
    0.2500000000E+06    0.6779365626E+00    0.2920315203E-02    0.2361723353E-01    0.1261697254E-03    0.6582122375E+00
    0.2700000000E+06    0.6780872076E+00    0.2810917690E-02    0.2360692597E-01    0.1206442309E-03    0.6583897545E+00
    0.2900000000E+06    0.6782167997E+00    0.2713233024E-02    0.2359714833E-01    0.1157607991E-03    0.6585489932E+00
    0.3100000000E+06    0.6783294924E+00    0.2625296197E-02    0.2358785031E-01    0.1114049540E-03    0.6586929348E+00
    0.3300000000E+06    0.6784284123E+00    0.2545576362E-02    0.2357898792E-01    0.1074887741E-03    0.6588239186E+00
    0.3500000000E+06    0.6785159583E+00    0.2472860550E-02    0.2357052267E-01    0.1039434886E-03    0.6589438101E+00
    0.3700000000E+06    0.6785940019E+00    0.2406173366E-02    0.2356242071E-01    0.1007144435E-03    0.6590541176E+00
    0.3900000000E+06    0.6786640243E+00    0.2344720206E-02    0.2355465223E-01    0.9775759251E-04    0.6591560757E+00
    0.4100000000E+06    0.6787272132E+00    0.2287846243E-02    0.2354719085E-01    0.9503699532E-04    0.6592507062E+00
    0.4300000000E+06    0.6787845324E+00    0.2235006261E-02    0.2354001313E-01    0.9252300007E-04    0.6593388633E+00
    0.4500000000E+06    0.6788367721E+00    0.2185742088E-02    0.2353309819E-01    0.9019089924E-04    0.6594212671E+00
    0.4700000000E+06    0.6788845861E+00    0.2139665475E-02    0.2352642734E-01    0.8801992006E-04    0.6594985299E+00
    0.4900000000E+06    0.6789285205E+00    0.2096444917E-02    0.2351998379E-01    0.8599245565E-04    0.6595711758E+00
    0.1000000000E+06    0.6747785359E+00    0.4657503895E-02    0.2371810746E-01    0.2223366758E-03    0.6555150687E+00
    0.3000000000E+06    0.6782750431E+00    0.2668150406E-02    0.2359244225E-01    0.1135229447E-03    0.6586227172E+00
    0.5000000000E+06    0.6789491793E+00    0.2075815009E-02    0.2351684248E-01    0.8502775618E-04    0.6596059112E+00
    0.7000000000E+06    0.6792395675E+00    0.1761114076E-02    0.2346296176E-01    0.7055338633E-04    0.6601410989E+00
    0.9000000000E+06    0.6794026828E+00    0.1558008463E-02    0.2342099967E-01    0.6145107434E-04    0.6604927655E+00
    0.1100000000E+07    0.6795077772E+00    0.1412923798E-02    0.2338658533E-01    0.5506440024E-04    0.6607478053E+00
    0.1300000000E+07    0.6795814534E+00    0.1302560987E-02    0.2335738943E-01    0.5027156936E-04    0.6609444288E+00
    0.1500000000E+07    0.6796361514E+00    0.1214929997E-02    0.2333202166E-01    0.4650699302E-04    0.6611024672E+00
    0.1700000000E+07    0.6796784811E+00    0.1143143671E-02    0.2330958460E-01    0.4345079199E-04    0.6612333941E+00
    0.1900000000E+07    0.6797122862E+00    0.1082925169E-02    0.2328946475E-01    0.4090676800E-04    0.6613443801E+00
    0.2100000000E+07    0.6797399575E+00    0.1031458927E-02    0.2327122389E-01    0.3874707394E-04    0.6614401737E+00
    0.2300000000E+07    0.6797630621E+00    0.9868051812E-03    0.2325453795E-01    0.3688439346E-04    0.6615240641E+00
    0.2500000000E+07    0.6797826712E+00    0.9475779587E-03    0.2323916039E-01    0.3525680747E-04    0.6615984138E+00
    0.2700000000E+07    0.6797995425E+00    0.9127569408E-03    0.2322489927E-01    0.3381903474E-04    0.6616649704E+00
    0.2900000000E+07    0.6798142275E+00    0.8815720107E-03    0.2321160217E-01    0.3253710013E-04    0.6617250593E+00
    0.3100000000E+07    0.6798271376E+00    0.8534294630E-03    0.2319914603E-01    0.3138495105E-04    0.6617797067E+00
    0.3300000000E+07    0.6798385858E+00    0.8278631919E-03    0.2318743002E-01    0.3034223363E-04    0.6618297219E+00
    0.3500000000E+07    0.6798488150E+00    0.8045014409E-03    0.2317637050E-01    0.2939278640E-04    0.6618757529E+00
    0.3700000000E+07    0.6798580164E+00    0.7830435688E-03    0.2316589730E-01    0.2852359332E-04    0.6619183262E+00
    0.3900000000E+07    0.6798663429E+00    0.7632434499E-03    0.2315595096E-01    0.2772403928E-04    0.6619578741E+00
    0.4100000000E+07    0.6798739179E+00    0.7448973797E-03    0.2314648069E-01    0.2698537008E-04    0.6619947561E+00
    0.4300000000E+07    0.6798808426E+00    0.7278351070E-03    0.2313744270E-01    0.2630029361E-04    0.6620292736E+00
    0.4500000000E+07    0.6798872003E+00    0.7119130814E-03    0.2312879903E-01    0.2566268070E-04    0.6620616817E+00
    0.4700000000E+07    0.6798930607E+00    0.6970092953E-03    0.2312051649E-01    0.2506733745E-04    0.6620921981E+00
    0.4900000000E+07    0.6798984822E+00    0.6830192947E-03    0.2311256596E-01    0.2450982968E-04    0.6621210095E+00
    0.1000000000E+07    0.6794603219E+00    0.1480053929E-02    0.2340302458E-01    0.5800745210E-04    0.6606293531E+00
    0.3000000000E+07    0.6798208829E+00    0.8671521122E-03    0.2320527574E-01    0.3194618769E-04    0.6617530083E+00
    0.5000000000E+07    0.6799010442E+00    0.6763383396E-03    0.2310870703E-01    0.2424405185E-04    0.6621348273E+00
    0.7000000000E+07    0.6799380575E+00    0.5741947951E-03    0.2304403579E-01    0.2021950546E-04    0.6623514829E+00
    0.9000000000E+07    0.6799598926E+00    0.5080922690E-03    0.2299529858E-01    0.1765683720E-04    0.6624982928E+00
    0.1100000000E+08    0.6799745152E+00    0.4608131034E-03    0.2295615999E-01    0.1584622405E-04    0.6626074339E+00
    0.1300000000E+08    0.6799851019E+00    0.4248245867E-03    0.2292344760E-01    0.1448153333E-04    0.6626933494E+00
    0.1500000000E+08    0.6799931827E+00    0.3962377645E-03    0.2289534259E-01    0.1340644511E-04    0.6627636638E+00
    0.1700000000E+08    0.6799995907E+00    0.3728144250E-03    0.2287070423E-01    0.1253179624E-04    0.6628228530E+00
    0.1900000000E+08    0.6800048212E+00    0.3531628941E-03    0.2284876954E-01    0.1180256648E-04    0.6628737508E+00
    0.2100000000E+08    0.6800091880E+00    0.3363661929E-03    0.2282900289E-01    0.1118274114E-04    0.6629182554E+00
    0.2300000000E+08    0.6800129007E+00    0.3217921831E-03    0.2281101369E-01    0.1064763709E-04    0.6629576960E+00
    0.2500000000E+08    0.6800161044E+00    0.3089889931E-03    0.2279450831E-01    0.1017970215E-04    0.6629930363E+00
    0.2700000000E+08    0.6800189036E+00    0.2976238539E-03    0.2277926044E-01    0.9766071605E-05    0.6630249957E+00
