  Pressure (Pa) 22mC5-400 (mol/kg) 2mC6-400 (mol/kg) 3mC6-400 (mol/kg) 33mC5-400 (mol/kg) C7-400 (mol/kg)
    0.1000000000E+01    0.1062789013E-02    0.7883671250E-03    0.3649382948E-02    0.2568019248E-03    0.1015233900E-01
    0.3000000000E+01    0.3171921222E-02    0.2278745375E-02    0.1049758082E-01    0.7425645329E-03    0.2920950962E-01
    0.5000000000E+01    0.5259462545E-02    0.3665447049E-02    0.1680479160E-01    0.1194919933E-02    0.4676857381E-01
    0.7000000000E+01    0.7325808349E-02    0.4960341572E-02    0.2263311494E-01    0.1617711609E-02    0.6300122810E-01
    0.9000000000E+01    0.9371344144E-02    0.6173505478E-02    0.2803547935E-01    0.2014200411E-02    0.7805383187E-01
    0.1100000000E+02    0.1139644588E-01    0.7313547672E-02    0.3305727571E-01    0.2387170463E-02    0.9205191825E-01
    0.1300000000E+02    0.1340148027E-01    0.8387866711E-02    0.3773765365E-01    0.2739012906E-02    0.1051037741E+00
    0.1500000000E+02    0.1538680501E-01    0.9402856057E-02    0.4211055925E-01    0.3071792689E-02    0.1173033061E+00
    0.1700000000E+02    0.1735276914E-01    0.1036406913E-01    0.4620557231E-01    0.3387302262E-02    0.1287323534E+00
    0.1900000000E+02    0.1929971322E-01    0.1127635306E-01    0.5004858701E-01    0.3687105068E-02    0.1394625674E+00
    0.2100000000E+02    0.2122796966E-01    0.1214395772E-01    0.5366236906E-01    0.3972571006E-02    0.1495569516E+00
    0.2300000000E+02    0.2313786290E-01    0.1297062538E-01    0.5706701468E-01    0.4244905540E-02    0.1590711288E+00
    0.2500000000E+02    0.2502970969E-01    0.1375966460E-01    0.6028033110E-01    0.4505173739E-02    0.1680543934E+00
    0.2700000000E+02    0.2690381930E-01    0.1451401180E-01    0.6331815377E-01    0.4754320240E-02    0.1765505869E+00
    0.2900000000E+02    0.2876049374E-01    0.1523628253E-01    0.6619461220E-01    0.4993185915E-02    0.1845988334E+00
    0.3100000000E+02    0.3060002799E-01    0.1592881461E-01    0.6892235390E-01    0.5222521864E-02    0.1922341578E+00
    0.3300000000E+02    0.3242271017E-01    0.1659370449E-01    0.7151273395E-01    0.5443001205E-02    0.1994880103E+00
    0.3500000000E+02    0.3422882177E-01    0.1723283806E-01    0.7397597620E-01    0.5655229069E-02    0.2063887117E+00
    0.3700000000E+02    0.3601863780E-01    0.1784791684E-01    0.7632131087E-01    0.5859751096E-02    0.2129618336E+00
    0.3900000000E+02    0.3779242705E-01    0.1844048046E-01    0.7855709257E-01    0.6057060699E-02    0.2192305252E+00
    0.4100000000E+02    0.3955045218E-01    0.1901192577E-01    0.8069090188E-01    0.6247605281E-02    0.2252157936E+00
    0.4300000000E+02    0.4129296994E-01    0.1956352351E-01    0.8272963307E-01    0.6431791601E-02    0.2309367466E+00
    0.4500000000E+02    0.4302023135E-01    0.2009643250E-01    0.8467957020E-01    0.6609990393E-02    0.2364108032E+00
    0.4700000000E+02    0.4473248180E-01    0.2061171211E-01    0.8654645325E-01    0.6782540382E-02    0.2416538763E+00
    0.4900000000E+02    0.4642996129E-01    0.2111033299E-01    0.8833553587E-01    0.6949751764E-02    0.2466805326E+00
    0.1000000000E+02    0.1038642614E-01    0.6752178638E-02    0.3059136867E-01    0.2203467478E-02    0.8517755423E-01
    0.3000000000E+02    0.2968238523E-01    0.1558612960E-01    0.6757633467E-01    0.5109001333E-02    0.1884660670E+00
    0.5000000000E+02    0.4727323546E-01    0.2135367784E-01    0.8920242336E-01    0.7031445370E-02    0.2491169231E+00
    0.7000000000E+02    0.6341780333E-01    0.2552822217E-01    0.1034362960E+00    0.8443188407E-02    0.2892029838E+00
    0.9000000000E+02    0.7832343819E-01    0.2872016009E-01    0.1135378391E+00    0.9538863894E-02    0.3177690066E+00
    0.1100000000E+03    0.9215824268E-01    0.3123846999E-01    0.1210912853E+00    0.1041666938E-01    0.3392166598E+00
    0.1300000000E+03    0.1050599783E+00    0.3326255395E-01    0.1269604079E+00    0.1113356368E-01    0.3559491923E+00
    0.1500000000E+03    0.1171426529E+00    0.3490725345E-01    0.1316568372E+00    0.1172604296E-01    0.3693920616E+00
    0.1700000000E+03    0.1285014642E+00    0.3625146302E-01    0.1355032210E+00    0.1221924057E-01    0.3804454392E+00
    0.1900000000E+03    0.1392165574E+00    0.3735226627E-01    0.1387132777E+00    0.1263140405E-01    0.3897064109E+00
    0.2100000000E+03    0.1493559165E+00    0.3825259257E-01    0.1414342912E+00    0.1297631221E-01    0.3975870231E+00
    0.2300000000E+03    0.1589776129E+00    0.3898568660E-01    0.1437711262E+00    0.1326468284E-01    0.4043810531E+00
    0.2500000000E+03    0.1681315720E+00    0.3957788318E-01    0.1458005145E+00    0.1350504560E-01    0.4103037586E+00
    0.2700000000E+03    0.1768609747E+00    0.4005041979E-01    0.1475799226E+00    0.1370431200E-01    0.4155165727E+00
    0.2900000000E+03    0.1852033781E+00    0.4042067140E-01    0.1491532586E+00    0.1386816386E-01    0.4201430096E+00
    0.3100000000E+03    0.1931916191E+00    0.4070302179E-01    0.1505546605E+00    0.1400132779E-01    0.4242792304E+00
    0.3300000000E+03    0.2008545489E+00    0.4090949637E-01    0.1518110790E+00    0.1410777475E-01    0.4280012541E+00
    0.3500000000E+03    0.2082176339E+00    0.4105023318E-01    0.1529440805E+00    0.1419086898E-01    0.4313699949E+00
    0.3700000000E+03    0.2153034504E+00    0.4113384072E-01    0.1539711324E+00    0.1425348131E-01    0.4344348556E+00
    0.3900000000E+03    0.2221320943E+00    0.4116767451E-01    0.1549065359E+00    0.1429807702E-01    0.4372363389E+00
    0.4100000000E+03    0.2287215234E+00    0.4115805406E-01    0.1557621148E+00    0.1432678486E-01    0.4398079760E+00
    0.4300000000E+03    0.2350878433E+00    0.4111043530E-01    0.1565477315E+00    0.1434145213E-01    0.4421777735E+00
    0.4500000000E+03    0.2412455486E+00    0.4102954912E-01    0.1572716792E+00    0.1434368899E-01    0.4443693127E+00
    0.4700000000E+03    0.2472077274E+00    0.4091951379E-01    0.1579409829E+00    0.1433490453E-01    0.4464025954E+00
    0.4900000000E+03    0.2529862344E+00    0.4078392698E-01    0.1585616337E+00    0.1431633637E-01    0.4482947030E+00
    0.1000000000E+03    0.8536545962E-01    0.3005029607E-01    0.1175680033E+00    0.1000080259E-01    0.3292016585E+00
    0.3000000000E+03    0.1892398799E+00    0.4057203355E-01    0.1498736226E+00    0.1393831787E-01    0.4222672412E+00
    0.5000000000E+03    0.2558100153E+00    0.4070755264E-01    0.1588553500E+00    0.1430372939E-01    0.4491924850E+00
    0.7000000000E+03    0.3048031779E+00    0.3842713266E-01    0.1631090187E+00    0.1374384448E-01    0.4624082623E+00
    0.9000000000E+03    0.3433752510E+00    0.3557256723E-01    0.1655927166E+00    0.1290870054E-01    0.4703894023E+00
    0.1100000000E+04    0.3749260488E+00    0.3271982556E-01    0.1672190565E+00    0.1201794688E-01    0.4757872365E+00
    0.1300000000E+04    0.4013680005E+00    0.3006103602E-01    0.1683643612E+00    0.1115442174E-01    0.4797094936E+00
    0.1500000000E+04    0.4239056679E+00    0.2765145298E-01    0.1692125871E+00    0.1034915554E-01    0.4827045415E+00
    0.1700000000E+04    0.4433593191E+00    0.2549391535E-01    0.1698644531E+00    0.9611602171E-02    0.4850763285E+00
    0.1900000000E+04    0.4603190661E+00    0.2357135284E-01    0.1703797844E+00    0.8941854789E-02    0.4870075743E+00
    0.2100000000E+04    0.4752265472E+00    0.2186017847E-01    0.1707963723E+00    0.8336007813E-02    0.4886150660E+00
    0.2300000000E+04    0.4884220519E+00    0.2033594972E-01    0.1711392693E+00    0.7788631739E-02    0.4899771204E+00
    0.2500000000E+04    0.5001736356E+00    0.1897569996E-01    0.1714257409E+00    0.7293939904E-02    0.4911483253E+00
    0.2700000000E+04    0.5106961291E+00    0.1775878328E-01    0.1716680731E+00    0.6846331848E-02    0.4921679584E+00
    0.2900000000E+04    0.5201641142E+00    0.1666705013E-01    0.1718752463E+00    0.6440629932E-02    0.4930650435E+00
    0.3100000000E+04    0.5287211010E+00    0.1568473070E-01    0.1720539759E+00    0.6072162934E-02    0.4938615185E+00
    0.3300000000E+04    0.5364862103E+00    0.1479820350E-01    0.1722093833E+00    0.5736773961E-02    0.4945742912E+00
    0.3500000000E+04    0.5435591532E+00    0.1399573257E-01    0.1723454417E+00    0.5430792429E-02    0.4952166152E+00
    0.3700000000E+04    0.5500240135E+00    0.1326721162E-01    0.1724652799E+00    0.5150990795E-02    0.4957990351E+00
    0.3900000000E+04    0.5559521677E+00    0.1260393099E-01    0.1725713950E+00    0.4894536705E-02    0.4963300514E+00
    0.4100000000E+04    0.5614045690E+00    0.1199837275E-01    0.1726658034E+00    0.4658945962E-02    0.4968165978E+00
    0.4300000000E+04    0.5664335550E+00    0.1144403405E-01    0.1727501511E+00    0.4442038837E-02    0.4972643893E+00
    0.4500000000E+04    0.5710842924E+00    0.1093527632E-01    0.1728257943E+00    0.4241900738E-02    0.4976781816E+00
    0.4700000000E+04    0.5753959419E+00    0.1046719760E-01    0.1728938605E+00    0.4056847468E-02    0.4980619663E+00
    0.4900000000E+04    0.5794026054E+00    0.1003552462E-01    0.1729552944E+00    0.3885394869E-02    0.4984191201E+00
    0.1000000000E+04    0.3598864608E+00    0.3412912695E-01    0.1664829039E+00    0.1246331153E-01    0.4733227804E+00
    0.3000000000E+04    0.5245485309E+00    0.1616311234E-01    0.1719678152E+00    0.6252013711E-02    0.4934747013E+00
    0.5000000000E+04    0.5813010344E+00    0.9832154067E-02    0.1729837784E+00    0.3804353164E-02    0.4985886262E+00
    0.7000000000E+04    0.6088240424E+00    0.6981657063E-02    0.1733461109E+00    0.2649952982E-02    0.5010976813E+00
    0.9000000000E+04    0.6247334319E+00    0.5434724595E-02    0.1734996456E+00    0.2009200310E-02    0.5026438915E+00
    0.1100000000E+05    0.6349894029E+00    0.4484735960E-02    0.1735644064E+00    0.1611796052E-02    0.5037170266E+00
    0.1300000000E+05    0.6421084154E+00    0.3848929782E-02    0.1735852613E+00    0.1345220236E-02    0.5045183616E+00
    0.1500000000E+05    0.6473201425E+00    0.3395860942E-02    0.1735823448E+00    0.1155762808E-02    0.5051471078E+00
    0.1700000000E+05    0.6512914284E+00    0.3057325141E-02    0.1735658211E+00    0.1015031519E-02    0.5056583515E+00
    0.1900000000E+05    0.6544132392E+00    0.2794847424E-02    0.1735412595E+00    0.9067959914E-03    0.5060853760E+00
    0.2100000000E+05    0.6569291135E+00    0.2585253330E-02    0.1735118982E+00    0.8211877261E-03    0.5064496050E+00
    0.2300000000E+05    0.6589982780E+00    0.2413828757E-02    0.1734797059E+00    0.7518999661E-03    0.5067655242E+00
    0.2500000000E+05    0.6607290340E+00    0.2270818124E-02    0.1734459194E+00    0.6947334143E-03    0.5070433217E+00
    0.2700000000E+05    0.6621975075E+00    0.2149515344E-02    0.1734113351E+00    0.6467942863E-03    0.5072903984E+00
    0.2900000000E+05    0.6634587159E+00    0.2045167255E-02    0.1733764749E+00    0.6060294043E-03    0.5075122765E+00
    0.3100000000E+05    0.6645533772E+00    0.1954315263E-02    0.1733416841E+00    0.5709450162E-03    0.5077131721E+00
    0.3300000000E+05    0.6655122530E+00    0.1874384845E-02    0.1733071919E+00    0.5404304362E-03    0.5078963671E+00
    0.3500000000E+05    0.6663590042E+00    0.1803421060E-02    0.1732731500E+00    0.5136438898E-03    0.5080644604E+00
    0.3700000000E+05    0.6671121203E+00    0.1739913182E-02    0.1732396568E+00    0.4899365541E-03    0.5082195403E+00
    0.3900000000E+05    0.6677862541E+00    0.1682675457E-02    0.1732067745E+00    0.4688007668E-03    0.5083633073E+00
    0.4100000000E+05    0.6683931644E+00    0.1630764170E-02    0.1731745398E+00    0.4498339412E-03    0.5084971622E+00
    0.4300000000E+05    0.6689423946E+00    0.1583418811E-02    0.1731429718E+00    0.4327129313E-03    0.5086222709E+00
    0.4500000000E+05    0.6694417694E+00    0.1540019561E-02    0.1731120769E+00    0.4171755007E-03    0.5087396131E+00
    0.4700000000E+05    0.6698977641E+00    0.1500056077E-02    0.1730818530E+00    0.4030067125E-03    0.5088500191E+00
    0.4900000000E+05    0.6703157822E+00    0.1463104234E-02    0.1730522920E+00    0.3900287900E-03    0.5089541978E+00
    0.1000000000E+05    0.6303667509E+00    0.4908051027E-02    0.1735394436E+00    0.1789134858E-02    0.5032234889E+00
    0.3000000000E+05    0.6640247480E+00    0.1998232235E-02    0.1733590543E+00    0.5878539755E-03    0.5076151235E+00
    0.5000000000E+05    0.6705119990E+00    0.1445644297E-02    0.1730377562E+00    0.3839390860E-03    0.5090041458E+00
    0.7000000000E+05    0.6732416904E+00    0.1192258322E-02    0.1727778724E+00    0.2989241065E-03    0.5097876058E+00
    0.9000000000E+05    0.6747440959E+00    0.1039814833E-02    0.1725649220E+00    0.2511420028E-03    0.5103215517E+00
    0.1100000000E+06    0.6756952627E+00    0.9351855518E-03    0.1723853908E+00    0.2199479385E-03    0.5107220827E+00
    0.1300000000E+06    0.6763518622E+00    0.8575833021E-03    0.1722304148E+00    0.1976790129E-03    0.5110404880E+00
    0.1500000000E+06    0.6768326249E+00    0.7970146257E-03    0.1720941381E+00    0.1808140464E-03    0.5113036339E+00
    0.1700000000E+06    0.6772000142E+00    0.7480036301E-03    0.1719725448E+00    0.1674964782E-03    0.5115272391E+00
    0.1900000000E+06    0.6774900256E+00    0.7072647010E-03    0.1718627759E+00    0.1566484405E-03    0.5117212468E+00
    0.2100000000E+06    0.6777248639E+00    0.6726903013E-03    0.1717627295E+00    0.1475979032E-03    0.5118923228E+00
    0.2300000000E+06    0.6779189717E+00    0.6428575302E-03    0.1716708167E+00    0.1399022154E-03    0.5120451421E+00
    0.2500000000E+06    0.6780821493E+00    0.6167659703E-03    0.1715858084E+00    0.1332568243E-03    0.5121831027E+00
    0.2700000000E+06    0.6782212824E+00    0.5936887167E-03    0.1715067342E+00    0.1274446361E-03    0.5123087487E+00
    0.2900000000E+06    0.6783413506E+00    0.5730830117E-03    0.1714328153E+00    0.1223062917E-03    0.5124240315E+00
    0.3100000000E+06    0.6784460452E+00    0.5545341937E-03    0.1713634166E+00    0.1177218865E-03    0.5125304792E+00
    0.3300000000E+06    0.6785381602E+00    0.5377192033E-03    0.1712980139E+00    0.1135992806E-03    0.5126293100E+00
    0.3500000000E+06    0.6786198503E+00    0.5223820571E-03    0.1712361694E+00    0.1098663698E-03    0.5127215097E+00
    0.3700000000E+06    0.6786928032E+00    0.5083169074E-03    0.1711775135E+00    0.1064658274E-03    0.5128078871E+00
    0.3900000000E+06    0.6787583603E+00    0.4953560602E-03    0.1711217315E+00    0.1033514354E-03    0.5128891133E+00
    0.4100000000E+06    0.6788176011E+00    0.4833613220E-03    0.1710685532E+00    0.1004854691E-03    0.5129657513E+00
    0.4300000000E+06    0.6788714041E+00    0.4722176331E-03    0.1710177450E+00    0.9783679483E-04    0.5130382779E+00
    0.4500000000E+06    0.6789204918E+00    0.4618283055E-03    0.1709691034E+00    0.9537946328E-04    0.5131071000E+00
    0.4700000000E+06    0.6789654637E+00    0.4521114088E-03    0.1709224499E+00    0.9309165219E-04    0.5131725678E+00
    0.4900000000E+06    0.6790068215E+00    0.4429969893E-03    0.1708776276E+00    0.9095486092E-04    0.5132349847E+00
    0.1000000000E+06    0.6752676752E+00    0.9832005819E-03    0.1724716216E+00    0.2340975094E-03    0.5105344618E+00
    0.3000000000E+06    0.6783954275E+00    0.5635734972E-03    0.1713975859E+00    0.1199511507E-03    0.5124782774E+00
    0.5000000000E+06    0.6790262799E+00    0.4386465800E-03    0.1708558589E+00    0.8993806854E-04    0.5132651331E+00
    0.7000000000E+06    0.6793004586E+00    0.3722867869E-03    0.1704898856E+00    0.7467651717E-04    0.5137574231E+00
    0.9000000000E+06    0.6794548465E+00    0.3294609411E-03    0.1702128652E+00    0.6507386672E-04    0.5141144246E+00
    0.1100000000E+07    0.6795543370E+00    0.2988686707E-03    0.1699897889E+00    0.5833360138E-04    0.5143938855E+00
    0.1300000000E+07    0.6796240287E+00    0.2755966526E-03    0.1698029790E+00    0.5327396003E-04    0.5146231738E+00
    0.1500000000E+07    0.6796757022E+00    0.2571168205E-03    0.1696422464E+00    0.4929886585E-04    0.5148173877E+00
    0.1700000000E+07    0.6797156299E+00    0.2419771900E-03    0.1695011773E+00    0.4607109466E-04    0.5149857264E+00
    0.1900000000E+07    0.6797474638E+00    0.2292761611E-03    0.1693754699E+00    0.4338376174E-04    0.5151342035E+00
    0.2100000000E+07    0.6797734768E+00    0.2184202120E-03    0.1692620977E+00    0.4110203110E-04    0.5152669630E+00
    0.2300000000E+07    0.6797951590E+00    0.2090004513E-03    0.1691588497E+00    0.3913379855E-04    0.5153869800E+00
    0.2500000000E+07    0.6798135290E+00    0.2007247278E-03    0.1690640619E+00    0.3741374074E-04    0.5154964615E+00
    0.2700000000E+07    0.6798293070E+00    0.1933779675E-03    0.1689764495E+00    0.3589408103E-04    0.5155970891E+00
    0.2900000000E+07    0.6798430173E+00    0.1867978364E-03    0.1688950006E+00    0.3453896794E-04    0.5156901733E+00
    0.3100000000E+07    0.6798550503E+00    0.1808591848E-03    0.1688189033E+00    0.3332090726E-04    0.5157767551E+00
    0.3300000000E+07    0.6798657035E+00    0.1754637592E-03    0.1687474964E+00    0.3221841680E-04    0.5158576747E+00
    0.3500000000E+07    0.6798752071E+00    0.1705331927E-03    0.1686802344E+00    0.3121443765E-04    0.5159336199E+00
    0.3700000000E+07    0.6798837427E+00    0.1660041086E-03    0.1686166617E+00    0.3029522985E-04    0.5160051612E+00
    0.3900000000E+07    0.6798914548E+00    0.1618246209E-03    0.1685563941E+00    0.2944958702E-04    0.5160727764E+00
    0.4100000000E+07    0.6798984605E+00    0.1579517854E-03    0.1684991046E+00    0.2866826662E-04    0.5161368699E+00
    0.4300000000E+07    0.6799048554E+00    0.1543497094E-03    0.1684445121E+00    0.2794356923E-04    0.5161977871E+00
    0.4500000000E+07    0.6799107185E+00    0.1509881283E-03    0.1683923740E+00    0.2726902286E-04    0.5162558251E+00
    0.4700000000E+07    0.6799161154E+00    0.1478413189E-03    0.1683424788E+00    0.2663914275E-04    0.5163112412E+00
    0.4900000000E+07    0.6799211014E+00    0.1448872580E-03    0.1682946413E+00    0.2604924611E-04    0.5163642599E+00
    0.1000000000E+07    0.6795094177E+00    0.3130237362E-03    0.1700959323E+00    0.6143985952E-04    0.5142617303E+00
    0.3000000000E+07    0.6798492230E+00    0.1837550022E-03    0.1688563274E+00    0.3391426809E-04    0.5157342204E+00
    0.5000000000E+07    0.6799234551E+00    0.1434764728E-03    0.1682714424E+00    0.2576801129E-04    0.5163899328E+00
    0.7000000000E+07    0.6799572625E+00    0.1219012640E-03    0.1678844237E+00    0.2150798051E-04    0.5168147816E+00
    0.9000000000E+07    0.6799769876E+00    0.1079316424E-03    0.1675946864E+00    0.1879374933E-04    0.5171290603E+00
    0.1100000000E+08    0.6799900760E+00    0.9793576284E-04    0.1673630137E+00    0.1687513276E-04    0.5173783586E+00
    0.1300000000E+08    0.6799994770E+00    0.9032421202E-04    0.1671699745E+00    0.1542845533E-04    0.5175848799E+00
    0.1500000000E+08    0.6800066026E+00    0.8427619068E-04    0.1670045089E+00    0.1428838169E-04    0.5177611106E+00
    0.1700000000E+08    0.6800122181E+00    0.7931918727E-04    0.1668597176E+00    0.1336057800E-04    0.5179147697E+00
    0.1900000000E+08    0.6800167758E+00    0.7515933789E-04    0.1667310054E+00    0.1258681780E-04    0.5180509616E+00
    0.2100000000E+08    0.6800205615E+00    0.7160297469E-04    0.1666151572E+00    0.1192897855E-04    0.5181732369E+00
    0.2300000000E+08    0.6800237647E+00    0.6851656327E-04    0.1665098351E+00    0.1136092679E-04    0.5182841649E+00
    0.2500000000E+08    0.6800265167E+00    0.6580463239E-04    0.1664132858E+00    0.1086407527E-04    0.5183856644E+00
    0.2700000000E+08    0.6800289114E+00    0.6339686310E-04    0.1663241607E+00    0.1042479808E-04    0.5184792061E+00
