  Pressure (Pa) 22mC5-400 (mol/kg) 2mC6-400 (mol/kg) 3mC6-400 (mol/kg) 33mC5-400 (mol/kg) C7-400 (mol/kg)
    0.1000000000E+01    0.1057080084E-02    0.6328824043E-02    0.2625831313E-02    0.2576546303E-03    0.1704400184E-02
    0.3000000000E+01    0.3121940473E-02    0.1840770016E-01    0.7659328448E-02    0.7494618481E-03    0.4972186198E-02
    0.5000000000E+01    0.5124341096E-02    0.2976999046E-01    0.1242300219E-01    0.1212171212E-02    0.8065550707E-02
    0.7000000000E+01    0.7067930502E-02    0.4047538367E-01    0.1693959890E-01    0.1648206755E-02    0.1099917854E-01
    0.9000000000E+01    0.8956066973E-02    0.5057710785E-01    0.2122933699E-01    0.2059730016E-02    0.1378612361E-01
    0.1100000000E+02    0.1079184724E-01    0.6012278670E-01    0.2531025050E-01    0.2448674847E-02    0.1643803051E-01
    0.1300000000E+02    0.1257813185E-01    0.6915516232E-01    0.2919847811E-01    0.2816776791E-02    0.1896532087E-01
    0.1500000000E+02    0.1431756758E-01    0.7771270835E-01    0.3290850723E-01    0.3165598000E-02    0.2137735078E-01
    0.1700000000E+02    0.1601260735E-01    0.8583015235E-01    0.3645338124E-01    0.3496548465E-02    0.2368254450E-01
    0.1900000000E+02    0.1766552798E-01    0.9353892295E-01    0.3984487627E-01    0.3810904184E-02    0.2588850840E-01
    0.2100000000E+02    0.1927844589E-01    0.1008675341E+00    0.4309365244E-01    0.4109822778E-02    0.2800212859E-01
    0.2300000000E+02    0.2085333128E-01    0.1078419165E+00    0.4620938397E-01    0.4394356958E-02    0.3002965482E-01
    0.2500000000E+02    0.2239202075E-01    0.1144857046E+00    0.4920087140E-01    0.4665466186E-02    0.3197677288E-01
    0.2700000000E+02    0.2389622859E-01    0.1208204864E+00    0.5207613880E-01    0.4924026809E-02    0.3384866733E-01
    0.2900000000E+02    0.2536755702E-01    0.1268660201E+00    0.5484251819E-01    0.5170840893E-02    0.3565007596E-01
    0.3100000000E+02    0.2680750534E-01    0.1326404251E+00    0.5750672322E-01    0.5406643946E-02    0.3738533730E-01
    0.3300000000E+02    0.2821747823E-01    0.1381603485E+00    0.6007491355E-01    0.5632111700E-02    0.3905843221E-01
    0.3500000000E+02    0.2959879324E-01    0.1434411118E+00    0.6255275129E-01    0.5847866069E-02    0.4067302028E-01
    0.3700000000E+02    0.3095268754E-01    0.1484968406E+00    0.6494545073E-01    0.6054480413E-02    0.4223247191E-01
    0.3900000000E+02    0.3228032411E-01    0.1533405792E+00    0.6725782213E-01    0.6252484190E-02    0.4373989660E-01
    0.4100000000E+02    0.3358279734E-01    0.1579843920E+00    0.6949431049E-01    0.6442367078E-02    0.4519816794E-01
    0.4300000000E+02    0.3486113807E-01    0.1624394538E+00    0.7165902989E-01    0.6624582650E-02    0.4660994580E-01
    0.4500000000E+02    0.3611631825E-01    0.1667161308E+00    0.7375579405E-01    0.6799551639E-02    0.4797769605E-01
    0.4700000000E+02    0.3734925521E-01    0.1708240517E+00    0.7578814351E-01    0.6967664855E-02    0.4930370808E-01
    0.4900000000E+02    0.3856081548E-01    0.1747721726E+00    0.7775936990E-01    0.7129285802E-02    0.5059011051E-01
    0.1000000000E+02    0.9880317590E-02    0.5541667482E-01    0.2329484678E-01    0.2256911927E-02    0.1512827879E-01
    0.3000000000E+02    0.2609136377E-01    0.1297860405E+00    0.5618699524E-01    0.5290075237E-02    0.3652571830E-01
    0.5000000000E+02    0.3915883713E-01    0.1766889372E+00    0.7872302792E-01    0.7207768382E-02    0.5121908285E-01
    0.7000000000E+02    0.5017414164E-01    0.2083834628E+00    0.9542953062E-01    0.8507550895E-02    0.6213448370E-01
    0.9000000000E+02    0.5975822897E-01    0.2308191302E+00    0.1084934888E+00    0.9430896256E-02    0.7068674755E-01
    0.1100000000E+03    0.6829343297E-01    0.2472289225E+00    0.1191085758E+00    0.1010903077E-01    0.7764866494E-01
    0.1300000000E+03    0.7602973775E-01    0.2595172337E+00    0.1279855579E+00    0.1061926763E-01    0.8348071353E-01
    0.1500000000E+03    0.8313849954E-01    0.2688761372E+00    0.1355762792E+00    0.1101001537E-01    0.8847582417E-01
    0.1700000000E+03    0.8974174479E-01    0.2760881709E+00    0.1421830339E+00    0.1131306362E-01    0.9283010330E-01
    0.1900000000E+03    0.9592914701E-01    0.2816870877E+00    0.1480165263E+00    0.1155010527E-01    0.9668032824E-01
    0.2100000000E+03    0.1017683648E+00    0.2860486109E+00    0.1532286462E+00    0.1173641877E-01    0.1001251587E+00
    0.2300000000E+03    0.1073116035E+00    0.2894443038E+00    0.1579320070E+00    0.1188305379E-01    0.1032377871E+00
    0.2500000000E+03    0.1125999291E+00    0.2920749050E+00    0.1622121154E+00    0.1199818396E-01    0.1060738213E+00
    0.2700000000E+03    0.1176661907E+00    0.2940916969E+00    0.1661352383E+00    0.1208797393E-01    0.1086763817E+00
    0.2900000000E+03    0.1225370540E+00    0.2956106237E+00    0.1697536515E+00    0.1215715246E-01    0.1110795043E+00
    0.3100000000E+03    0.1272344476E+00    0.2967218665E+00    0.1731092396E+00    0.1220940104E-01    0.1133104746E+00
    0.3300000000E+03    0.1317766145E+00    0.2974964889E+00    0.1762360249E+00    0.1224762376E-01    0.1153914685E+00
    0.3500000000E+03    0.1361788892E+00    0.2979911434E+00    0.1791619826E+00    0.1227413835E-01    0.1173407302E+00
    0.3700000000E+03    0.1404542816E+00    0.2982514653E+00    0.1819103674E+00    0.1229081414E-01    0.1191734333E+00
    0.3900000000E+03    0.1446139234E+00    0.2983145608E+00    0.1845007007E+00    0.1229917305E-01    0.1209023221E+00
    0.4100000000E+03    0.1486674119E+00    0.2982108565E+00    0.1869495159E+00    0.1230046485E-01    0.1225381956E+00
    0.4300000000E+03    0.1526230795E+00    0.2979654946E+00    0.1892709291E+00    0.1229572377E-01    0.1240902785E+00
    0.4500000000E+03    0.1564882071E+00    0.2975993954E+00    0.1914770811E+00    0.1228581183E-01    0.1255665086E+00
    0.4700000000E+03    0.1602691943E+00    0.2971300785E+00    0.1935784841E+00    0.1227145216E-01    0.1269737622E+00
    0.4900000000E+03    0.1639716965E+00    0.2965723009E+00    0.1955842970E+00    0.1225325499E-01    0.1283180331E+00
    0.1000000000E+03    0.6413900770E-01    0.2396364956E+00    0.1140548239E+00    0.9794900609E-02    0.7433261242E-01
    0.3000000000E+03    0.1249062181E+00    0.2962123788E+00    0.1714620121E+00    0.1218519582E-01    0.1122150183E+00
    0.5000000000E+03    0.1657951075E+00    0.2962642216E+00    0.1965539041E+00    0.1224288231E-01    0.1289682176E+00
    0.7000000000E+03    0.1991130660E+00    0.2876649869E+00    0.2124405605E+00    0.1192577647E-01    0.1396567796E+00
    0.9000000000E+03    0.2280222391E+00    0.2772759114E+00    0.2239941830E+00    0.1152020485E-01    0.1474749704E+00
    0.1100000000E+04    0.2538399969E+00    0.2668081949E+00    0.2330311814E+00    0.1110030947E-01    0.1536187640E+00
    0.1300000000E+04    0.2772599384E+00    0.2567801918E+00    0.2404247043E+00    0.1069020229E-01    0.1586650971E+00
    0.1500000000E+04    0.2987048073E+00    0.2473473749E+00    0.2466613837E+00    0.1029833671E-01    0.1629364870E+00
    0.1700000000E+04    0.3184603166E+00    0.2385377761E+00    0.2520401850E+00    0.9927408808E-02    0.1666316016E+00
    0.1900000000E+04    0.3367350881E+00    0.2303317791E+00    0.2567579323E+00    0.9577788161E-02    0.1698815453E+00
    0.2100000000E+04    0.3536907065E+00    0.2226923764E+00    0.2609510791E+00    0.9248861830E-02    0.1727774061E+00
    0.2300000000E+04    0.3694580734E+00    0.2155774577E+00    0.2647180980E+00    0.8939607474E-02    0.1753850491E+00
    0.2500000000E+04    0.3841468836E+00    0.2089449547E+00    0.2681323673E+00    0.8648852439E-02    0.1777536442E+00
    0.2700000000E+04    0.3978514036E+00    0.2027549590E+00    0.2712500173E+00    0.8375395164E-02    0.1799208687E+00
    0.2900000000E+04    0.4106541548E+00    0.1969705051E+00    0.2741149327E+00    0.8118062751E-02    0.1819162271E+00
    0.3100000000E+04    0.4226283591E+00    0.1915577522E+00    0.2767620636E+00    0.7875737654E-02    0.1837632524E+00
    0.3300000000E+04    0.4338396263E+00    0.1864858985E+00    0.2792196887E+00    0.7647368958E-02    0.1854810132E+00
    0.3500000000E+04    0.4443471643E+00    0.1817269839E+00    0.2815110053E+00    0.7431975814E-02    0.1870851725E+00
    0.3700000000E+04    0.4542046794E+00    0.1772556531E+00    0.2836552723E+00    0.7228646842E-02    0.1885887512E+00
    0.3900000000E+04    0.4634610711E+00    0.1730489145E+00    0.2856686494E+00    0.7036537511E-02    0.1900026879E+00
    0.4100000000E+04    0.4721609857E+00    0.1690859104E+00    0.2875648248E+00    0.6854866529E-02    0.1913362594E+00
    0.4300000000E+04    0.4803452710E+00    0.1653477044E+00    0.2893554911E+00    0.6682911836E-02    0.1925973989E+00
    0.4500000000E+04    0.4880513581E+00    0.1618170886E+00    0.2910507130E+00    0.6520006491E-02    0.1937929424E+00
    0.4700000000E+04    0.4953135910E+00    0.1584784097E+00    0.2926592138E+00    0.6365534635E-02    0.1949288209E+00
    0.4900000000E+04    0.5021635125E+00    0.1553174133E+00    0.2941886017E+00    0.6218927620E-02    0.1960102125E+00
    0.1000000000E+04    0.2412654048E+00    0.2720061758E+00    0.2287599262E+00    0.1130997294E-01    0.1507117162E+00
    0.3000000000E+04    0.4167405623E+00    0.1942196603E+00    0.2754638187E+00    0.7995091599E-02    0.1828569991E+00
    0.5000000000E+04    0.5054430107E+00    0.1537994392E+00    0.2949257462E+00    0.6148407727E-02    0.1965319183E+00
    0.7000000000E+04    0.5552854169E+00    0.1301639516E+00    0.3067760852E+00    0.5043296931E-02    0.2049659001E+00
    0.9000000000E+04    0.5856536178E+00    0.1148282947E+00    0.3150785165E+00    0.4324661117E-02    0.2109342747E+00
    0.1100000000E+05    0.6054636586E+00    0.1040585727E+00    0.3213560546E+00    0.3824086536E-02    0.2154854360E+00
    0.1300000000E+05    0.6191235192E+00    0.9603168024E-01    0.3263383595E+00    0.3455906322E-02    0.2191246435E+00
    0.1500000000E+05    0.6289734300E+00    0.8977343527E-01    0.3304283706E+00    0.3173265894E-02    0.2221322909E+00
    0.1700000000E+05    0.6363384459E+00    0.8472233944E-01    0.3338705810E+00    0.2948812241E-02    0.2246792473E+00
    0.1900000000E+05    0.6420117505E+00    0.8053378137E-01    0.3368237055E+00    0.2765656861E-02    0.2268768649E+00
    0.2100000000E+05    0.6464912158E+00    0.7698494831E-01    0.3393961640E+00    0.2612864658E-02    0.2288014809E+00
    0.2300000000E+05    0.6501022421E+00    0.7392537535E-01    0.3416650370E+00    0.2483063958E-02    0.2305075475E+00
    0.2500000000E+05    0.6530649936E+00    0.7124966873E-01    0.3436869175E+00    0.2371111579E-02    0.2320351682E+00
    0.2700000000E+05    0.6555329414E+00    0.6888167861E-01    0.3455044734E+00    0.2273311805E-02    0.2334146678E+00
    0.2900000000E+05    0.6576158717E+00    0.6676490477E-01    0.3471505972E+00    0.2186940523E-02    0.2346694890E+00
    0.3100000000E+05    0.6593941182E+00    0.6485645575E-01    0.3486511309E+00    0.2109944802E-02    0.2358180985E+00
    0.3300000000E+05    0.6609276469E+00    0.6312311704E-01    0.3500267113E+00    0.2040747199E-02    0.2368752811E+00
    0.3500000000E+05    0.6622620170E+00    0.6153871635E-01    0.3512940544E+00    0.1978114701E-02    0.2378530420E+00
    0.3700000000E+05    0.6634323917E+00    0.6008231203E-01    0.3524668710E+00    0.1921068776E-02    0.2387612511E+00
    0.3900000000E+05    0.6644662960E+00    0.5873691862E-01    0.3535565322E+00    0.1868822270E-02    0.2396081129E+00
    0.4100000000E+05    0.6653855514E+00    0.5748859176E-01    0.3545725624E+00    0.1820734237E-02    0.2404005144E+00
    0.4300000000E+05    0.6662076582E+00    0.5632575901E-01    0.3555230104E+00    0.1776277052E-02    0.2411442879E+00
    0.4500000000E+05    0.6669467987E+00    0.5523872219E-01    0.3564147329E+00    0.1735012051E-02    0.2418444125E+00
    0.4700000000E+05    0.6676145765E+00    0.5421928189E-01    0.3572536139E+00    0.1696571247E-02    0.2425051690E+00
    0.4900000000E+05    0.6682205693E+00    0.5326045011E-01    0.3580447359E+00    0.1660643397E-02    0.2431302629E+00
    0.1000000000E+05    0.5965357478E+00    0.1090143942E+00    0.3184140108E+00    0.4053720277E-02    0.2133480198E+00
    0.3000000000E+05    0.6585389368E+00    0.6578690657E-01    0.3479176683E+00    0.2147378671E-02    0.2352560719E+00
    0.5000000000E+05    0.6685029400E+00    0.5280185407E-01    0.3584237906E+00    0.1643537392E-02    0.2434304610E+00
    0.7000000000E+05    0.6722829971E+00    0.4571793004E-01    0.3643184992E+00    0.1385605922E-02    0.2481638118E+00
    0.9000000000E+05    0.6742332056E+00    0.4103785447E-01    0.3682291265E+00    0.1221507797E-02    0.2513847418E+00
    0.1100000000E+06    0.6754137005E+00    0.3763044538E-01    0.3710685626E+00    0.1105047521E-02    0.2537749376E+00
    0.1300000000E+06    0.6762018949E+00    0.3499775884E-01    0.3732510683E+00    0.1016744767E-02    0.2556480546E+00
    0.1500000000E+06    0.6767642196E+00    0.3287999567E-01    0.3749959989E+00    0.9467486892E-03    0.2571721721E+00
    0.1700000000E+06    0.6771850275E+00    0.3112593018E-01    0.3764319948E+00    0.8894608613E-03    0.2584469146E+00
    0.1900000000E+06    0.6775114868E+00    0.2964049542E-01    0.3776402157E+00    0.8414282353E-03    0.2595357483E+00
    0.2100000000E+06    0.6777719784E+00    0.2836040481E-01    0.3786747650E+00    0.8003876734E-03    0.2604813616E+00
    0.2300000000E+06    0.6779845769E+00    0.2724161473E-01    0.3795732966E+00    0.7647846417E-03    0.2613137138E+00
    0.2500000000E+06    0.6781613280E+00    0.2625236578E-01    0.3803629408E+00    0.7335106507E-03    0.2620545608E+00
    0.2700000000E+06    0.6783105620E+00    0.2536908134E-01    0.3810638106E+00    0.7057507684E-03    0.2627201518E+00
    0.2900000000E+06    0.6784382212E+00    0.2457382983E-01    0.3816911774E+00    0.6808904617E-03    0.2633229120E+00
    0.3100000000E+06    0.6785486558E+00    0.2385269003E-01    0.3822568740E+00    0.6584562523E-03    0.2638725341E+00
    0.3300000000E+06    0.6786451231E+00    0.2319466184E-01    0.3827702308E+00    0.6380765615E-03    0.2643767108E+00
    0.3500000000E+06    0.6787301096E+00    0.2259091926E-01    0.3832387178E+00    0.6194550891E-03    0.2648416390E+00
    0.3700000000E+06    0.6788055458E+00    0.2203428491E-01    0.3836683958E+00    0.6023522399E-03    0.2652723772E+00
    0.3900000000E+06    0.6788729531E+00    0.2151885251E-01    0.3840642409E+00    0.5865718677E-03    0.2656731026E+00
    0.4100000000E+06    0.6789335467E+00    0.2103971007E-01    0.3844303819E+00    0.5719516261E-03    0.2660473006E+00
    0.4300000000E+06    0.6789883088E+00    0.2059273368E-01    0.3847702771E+00    0.5583558187E-03    0.2663979067E+00
    0.4500000000E+06    0.6790380416E+00    0.2017443137E-01    0.3850868482E+00    0.5456700172E-03    0.2667274138E+00
    0.4700000000E+06    0.6790834069E+00    0.1978182333E-01    0.3853825826E+00    0.5337969525E-03    0.2670379554E+00
    0.4900000000E+06    0.6791249555E+00    0.1941234878E-01    0.3856596131E+00    0.5226533376E-03    0.2673313700E+00
    0.1000000000E+06    0.6748885042E+00    0.3921425189E-01    0.3697503139E+00    0.1158870618E-02    0.2526592134E+00
    0.3000000000E+06    0.6784953668E+00    0.2420474187E-01    0.3819811013E+00    0.6693953470E-03    0.2636038444E+00
    0.5000000000E+06    0.6791444458E+00    0.1923558260E-01    0.3857916995E+00    0.5173322469E-03    0.2674721613E+00
    0.7000000000E+06    0.6794148103E+00    0.1650640521E-01    0.3877893865E+00    0.4360456320E-03    0.2696841310E+00
    0.9000000000E+06    0.6795630434E+00    0.1471256123E-01    0.3890516563E+00    0.3835462115E-03    0.2711848978E+00
    0.1100000000E+07    0.6796566873E+00    0.1341556453E-01    0.3899327187E+00    0.3460790941E-03    0.2722994553E+00
    0.1300000000E+07    0.6797212341E+00    0.1242021348E-01    0.3905873063E+00    0.3176226947E-03    0.2731750880E+00
    0.1500000000E+07    0.6797684392E+00    0.1162444928E-01    0.3910949749E+00    0.2950678669E-03    0.2738899840E+00
    0.1700000000E+07    0.6798044755E+00    0.1096895561E-01    0.3915012621E+00    0.2766256038E-03    0.2744902039E+00
    0.1900000000E+07    0.6798328958E+00    0.1041655731E-01    0.3918343075E+00    0.2611840284E-03    0.2750049711E+00
    0.2100000000E+07    0.6798558894E+00    0.9942597193E-02    0.3921125303E+00    0.2480109470E-03    0.2754538885E+00
    0.2300000000E+07    0.6798748795E+00    0.9529981345E-02    0.3923485409E+00    0.2366019462E-03    0.2758506893E+00
    0.2500000000E+07    0.6798908311E+00    0.9166430775E-02    0.3925512905E+00    0.2265967208E-03    0.2762053358E+00
    0.2700000000E+07    0.6799044219E+00    0.8842864068E-02    0.3927273242E+00    0.2177301379E-03    0.2765252647E+00
    0.2900000000E+07    0.6799161418E+00    0.8552398810E-02    0.3928815480E+00    0.2098021881E-03    0.2768161618E+00
    0.3100000000E+07    0.6799263536E+00    0.8289709917E-02    0.3930177180E+00    0.2026587728E-03    0.2770824630E+00
    0.3300000000E+07    0.6799353322E+00    0.8050603183E-02    0.3931387622E+00    0.1961789925E-03    0.2773276906E+00
    0.3500000000E+07    0.6799432891E+00    0.7831723550E-02    0.3932469997E+00    0.1902664871E-03    0.2775546835E+00
    0.3700000000E+07    0.6799503901E+00    0.7630350498E-02    0.3933442925E+00    0.1848433860E-03    0.2777657608E+00
    0.3900000000E+07    0.6799567670E+00    0.7444251351E-02    0.3934321546E+00    0.1798459855E-03    0.2779628393E+00
    0.4100000000E+07    0.6799625258E+00    0.7271574065E-02    0.3935118301E+00    0.1752216007E-03    0.2781475197E+00
    0.4300000000E+07    0.6799677525E+00    0.7110767506E-02    0.3935843517E+00    0.1709262316E-03    0.2783211518E+00
    0.4500000000E+07    0.6799725181E+00    0.6960521260E-02    0.3936505839E+00    0.1669228063E-03    0.2784848829E+00
    0.4700000000E+07    0.6799768814E+00    0.6819719545E-02    0.3937112566E+00    0.1631798400E-03    0.2786396964E+00
    0.4900000000E+07    0.6799808915E+00    0.6687405487E-02    0.3937669903E+00    0.1596703971E-03    0.2787864403E+00
    0.1000000000E+07    0.6796146103E+00    0.1401729995E-01    0.3895276178E+00    0.3634087154E-03    0.2717789274E+00
    0.3000000000E+07    0.6799214173E+00    0.8417867025E-02    0.3929516903E+00    0.2061406310E-03    0.2769521484E+00
    0.5000000000E+07    0.6799827774E+00    0.6624168736E-02    0.3937931741E+00    0.1579958704E-03    0.2788570201E+00
    0.7000000000E+07    0.6800092765E+00    0.5653257373E-02    0.3941536517E+00    0.1325198036E-03    0.2799817198E+00
    0.9000000000E+07    0.6800241145E+00    0.5020685554E-02    0.3943379460E+00    0.1161771972E-03    0.2807646093E+00
    0.1100000000E+08    0.6800336277E+00    0.4566096644E-02    0.3944388713E+00    0.1045713412E-03    0.2813585649E+00
    0.1300000000E+08    0.6800402601E+00    0.4218815555E-02    0.3944944194E+00    0.9578999729E-04    0.2818337968E+00
    0.1500000000E+08    0.6800451559E+00    0.3942159796E-02    0.3945229909E+00    0.8885090315E-04    0.2822280347E+00
    0.1700000000E+08    0.6800489229E+00    0.3714930169E-02    0.3945345345E+00    0.8319123796E-04    0.2825637562E+00
    0.1900000000E+08    0.6800519143E+00    0.3523901251E-02    0.3945348647E+00    0.7846243260E-04    0.2828553701E+00
    0.2100000000E+08    0.6800543494E+00    0.3360334313E-02    0.3945275825E+00    0.7443563290E-04    0.2831126348E+00
    0.2300000000E+08    0.6800563715E+00    0.3218190665E-02    0.3945150204E+00    0.7095358732E-04    0.2833424482E+00
    0.2500000000E+08    0.6800580786E+00    0.3093144636E-02    0.3944987435E+00    0.6790422479E-04    0.2835498558E+00
    0.2700000000E+08    0.6800595399E+00    0.2982004810E-02    0.3944798323E+00    0.6520524286E-04    0.2837386539E+00
