  Pressure (Pa) 22mC5-400 (mol/kg) 2mC6-400 (mol/kg) 3mC6-400 (mol/kg) 33mC5-400 (mol/kg) C7-400 (mol/kg)
    0.1000000000E+01    0.1059516884E-02    0.3950383657E-02    0.3141895698E-02    0.2573361362E-03    0.5098518774E-02
    0.3000000000E+01    0.3143103920E-02    0.1146229857E-01    0.9114005948E-02    0.7468311213E-03    0.1479204248E-01
    0.5000000000E+01    0.5181110494E-02    0.1849725681E-01    0.1470515628E-01    0.1205448206E-02    0.2387005579E-01
    0.7000000000E+01    0.7175451968E-02    0.2509950515E-01    0.1995215302E-01    0.1636055801E-02    0.3239194073E-01
    0.9000000000E+01    0.9127933832E-02    0.3130782631E-01    0.2488716411E-01    0.2041167450E-02    0.4040960139E-01
    0.1100000000E+02    0.1104025957E-01    0.3715637080E-01    0.2953842960E-01    0.2422995930E-02    0.4796860890E-01
    0.1300000000E+02    0.1291403785E-01    0.4267534005E-01    0.3393084534E-01    0.2783497665E-02    0.5510914200E-01
    0.1500000000E+02    0.1475078912E-01    0.4789155119E-01    0.3808644540E-01    0.3124409447E-02    0.6186676457E-01
    0.1700000000E+02    0.1655195163E-01    0.5282890672E-01    0.4202480324E-01    0.3447278961E-02    0.6827307227E-01
    0.1900000000E+02    0.1831888702E-01    0.5750878743E-01    0.4576336718E-01    0.3753490312E-02    0.7435623321E-01
    0.2100000000E+02    0.2005288537E-01    0.6195038274E-01    0.4931774233E-01    0.4044285494E-02    0.8014144249E-01
    0.2300000000E+02    0.2175516998E-01    0.6617096992E-01    0.5270192875E-01    0.4320782521E-02    0.8565130605E-01
    0.2500000000E+02    0.2342690160E-01    0.7018615121E-01    0.5592852353E-01    0.4583990828E-02    0.9090616656E-01
    0.2700000000E+02    0.2506918253E-01    0.7401005616E-01    0.5900889305E-01    0.4834824407E-02    0.9592438111E-01
    0.2900000000E+02    0.2668306022E-01    0.7765551492E-01    0.6195332045E-01    0.5074113055E-02    0.1007225590E+00
    0.3100000000E+02    0.2826953077E-01    0.8113420732E-01    0.6477113227E-01    0.5302612054E-02    0.1053157658E+00
    0.3300000000E+02    0.2982954202E-01    0.8445679172E-01    0.6747080778E-01    0.5521010525E-02    0.1097177002E+00
    0.3500000000E+02    0.3136399651E-01    0.8763301658E-01    0.7006007357E-01    0.5729938672E-02    0.1139408457E+00
    0.3700000000E+02    0.3287375420E-01    0.9067181760E-01    0.7254598575E-01    0.5929974076E-02    0.1179966039E+00
    0.3900000000E+02    0.3435963497E-01    0.9358140246E-01    0.7493500150E-01    0.6121647197E-02    0.1218954097E+00
    0.4100000000E+02    0.3582242101E-01    0.9636932508E-01    0.7723304177E-01    0.6305446183E-02    0.1256468322E+00
    0.4300000000E+02    0.3726285892E-01    0.9904255075E-01    0.7944554610E-01    0.6481821097E-02    0.1292596636E+00
    0.4500000000E+02    0.3868166183E-01    0.1016075136E+00    0.8157752089E-01    0.6651187638E-02    0.1327419966E+00
    0.4700000000E+02    0.4007951122E-01    0.1040701674E+00    0.8363358202E-01    0.6813930430E-02    0.1361012935E+00
    0.4900000000E+02    0.4145705873E-01    0.1064360303E+00    0.8561799240E-01    0.6970405931E-02    0.1393444464E+00
    0.1000000000E+02    0.1008901353E-01    0.3427509763E-01    0.2724663678E-01    0.2234864265E-02    0.4424380905E-01
    0.3000000000E+02    0.2747966106E-01    0.7941501821E-01    0.6337750467E-01    0.5189666730E-02    0.1030438975E+00
    0.5000000000E+02    0.4213841516E-01    0.1075842804E+00    0.8658457250E-01    0.7046397783E-02    0.1409244802E+00
    0.7000000000E+02    0.5483782095E-01    0.1265358000E+00    0.1029706930E+00    0.8306179449E-02    0.1677476060E+00
    0.9000000000E+02    0.6607419989E-01    0.1398920916E+00    0.1152854726E+00    0.9202954295E-02    0.1879610967E+00
    0.1100000000E+03    0.7618229784E-01    0.1495944167E+00    0.1249576959E+00    0.9862069184E-02    0.2038784564E+00
    0.1300000000E+03    0.8539692887E-01    0.1567836482E+00    0.1328071440E+00    0.1035721836E-01    0.2168283545E+00
    0.1500000000E+03    0.9388823210E-01    0.1621763020E+00    0.1393398529E+00    0.1073472251E-01    0.2276317228E+00
    0.1700000000E+03    0.1017828827E+00    0.1662455153E+00    0.1448862687E+00    0.1102520412E-01    0.2368251298E+00
    0.1900000000E+03    0.1091774030E+00    0.1693162260E+00    0.1496720351E+00    0.1124972460E-01    0.2447752998E+00
    0.2100000000E+03    0.1161468207E+00    0.1716187665E+00    0.1538569345E+00    0.1142323904E-01    0.2517421478E+00
    0.2300000000E+03    0.1227504754E+00    0.1733207213E+00    0.1575575745E+00    0.1155664982E-01    0.2579155236E+00
    0.2500000000E+03    0.1290360199E+00    0.1745467199E+00    0.1608612442E+00    0.1165808262E-01    0.2634376654E+00
    0.2700000000E+03    0.1350422406E+00    0.1753911914E+00    0.1638347189E+00    0.1173370891E-01    0.2684174768E+00
    0.2900000000E+03    0.1408010890E+00    0.1759268428E+00    0.1665300474E+00    0.1178829304E-01    0.2729399148E+00
    0.3100000000E+03    0.1463391712E+00    0.1762104463E+00    0.1689884686E+00    0.1182556573E-01    0.2770723477E+00
    0.3300000000E+03    0.1516788583E+00    0.1762868815E+00    0.1712431299E+00    0.1184848526E-01    0.2808689693E+00
    0.3500000000E+03    0.1568391268E+00    0.1761920159E+00    0.1733210165E+00    0.1185942362E-01    0.2843739343E+00
    0.3700000000E+03    0.1618362034E+00    0.1759547948E+00    0.1752443485E+00    0.1186030175E-01    0.2876236290E+00
    0.3900000000E+03    0.1666840654E+00    0.1755987819E+00    0.1770316097E+00    0.1185268931E-01    0.2906483453E+00
    0.4100000000E+03    0.1713948338E+00    0.1751433109E+00    0.1786983185E+00    0.1183787934E-01    0.2934735345E+00
    0.4300000000E+03    0.1759790851E+00    0.1746043578E+00    0.1802576126E+00    0.1181694484E-01    0.2961207601E+00
    0.4500000000E+03    0.1804461013E+00    0.1739952090E+00    0.1817206994E+00    0.1179078221E-01    0.2986084308E+00
    0.4700000000E+03    0.1848040715E+00    0.1733269792E+00    0.1830972060E+00    0.1176014492E-01    0.3009523717E+00
    0.4900000000E+03    0.1890602567E+00    0.1726090155E+00    0.1843954552E+00    0.1172566986E-01    0.3031662735E+00
    0.1000000000E+03    0.7125276861E-01    0.1451157139E+00    0.1203909677E+00    0.9556775878E-02    0.1963580582E+00
    0.3000000000E+03    0.1435962394E+00    0.1760971052E+00    0.1677866358E+00    0.1180889280E-01    0.2750512278E+00
    0.5000000000E+03    0.1911522288E+00    0.1722339012E+00    0.1850175325E+00    0.1170716553E-01    0.3042282442E+00
    0.7000000000E+03    0.2289025197E+00    0.1635069370E+00    0.1946962746E+00    0.1123164788E-01    0.3208588565E+00
    0.9000000000E+03    0.2609391916E+00    0.1541967476E+00    0.2011259841E+00    0.1068109698E-01    0.3320411857E+00
    0.1100000000E+04    0.2889929474E+00    0.1452944356E+00    0.2058021539E+00    0.1013204168E-01    0.3402594847E+00
    0.1300000000E+04    0.3139851516E+00    0.1370472919E+00    0.2094025550E+00    0.9608182839E-02    0.3466465076E+00
    0.1500000000E+04    0.3364847618E+00    0.1294888645E+00    0.2122858505E+00    0.9116785911E-02    0.3518049656E+00
    0.1700000000E+04    0.3568816928E+00    0.1225852679E+00    0.2146623741E+00    0.8659181218E-02    0.3560900826E+00
    0.1900000000E+04    0.3754640648E+00    0.1162825406E+00    0.2166648765E+00    0.8234388625E-02    0.3597270994E+00
    0.2100000000E+04    0.3924567377E+00    0.1105233616E+00    0.2183819059E+00    0.7840527521E-02    0.3628669142E+00
    0.2300000000E+04    0.4080422567E+00    0.1052530779E+00    0.2198751339E+00    0.7475411564E-02    0.3656150568E+00
    0.2500000000E+04    0.4223730641E+00    0.1004217068E+00    0.2211890304E+00    0.7136812416E-02    0.3680479204E+00
    0.2700000000E+04    0.4355790649E+00    0.9598436111E-01    0.2223565894E+00    0.6822578710E-02    0.3702223966E+00
    0.2900000000E+04    0.4477725768E+00    0.9190105774E-01    0.2234028823E+00    0.6530687975E-02    0.3721818700E+00
    0.3100000000E+04    0.4590517367E+00    0.8813630345E-01    0.2243473505E+00    0.6259266199E-02    0.3739600984E+00
    0.3300000000E+04    0.4695029541E+00    0.8465862318E-01    0.2252053352E+00    0.6006591376E-02    0.3755838078E+00
    0.3500000000E+04    0.4792027517E+00    0.8144009879E-01    0.2259891272E+00    0.5771089082E-02    0.3770744778E+00
    0.3700000000E+04    0.4882191962E+00    0.7845594476E-01    0.2267087056E+00    0.5551324209E-02    0.3784496012E+00
    0.3900000000E+04    0.4966130431E+00    0.7568412862E-01    0.2273722686E+00    0.5345991028E-02    0.3797235917E+00
    0.4100000000E+04    0.5044386748E+00    0.7310503612E-01    0.2279866228E+00    0.5153902759E-02    0.3809084498E+00
    0.4300000000E+04    0.5117448853E+00    0.7070117807E-01    0.2285574727E+00    0.4973981260E-02    0.3820142610E+00
    0.4500000000E+04    0.5185755436E+00    0.6845693431E-01    0.2290896401E+00    0.4805247192E-02    0.3830495726E+00
    0.4700000000E+04    0.5249701636E+00    0.6635833059E-01    0.2295872324E+00    0.4646810799E-02    0.3840216843E+00
    0.4900000000E+04    0.5309643963E+00    0.6439284398E-01    0.2300537729E+00    0.4497863405E-02    0.3849368736E+00
    0.1000000000E+04    0.2753949207E+00    0.1496711146E+00    0.2036301898E+00    0.1040430288E-01    0.3364322805E+00
    0.3000000000E+04    0.4535207993E+00    0.8998091778E-01    0.2238868037E+00    0.6392529629E-02    0.3730918287E+00
    0.5000000000E+04    0.5338215584E+00    0.6345646083E-01    0.2302763659E+00    0.4426715607E-02    0.3853748492E+00
    0.7000000000E+04    0.5762958161E+00    0.4952833442E-01    0.2336569774E+00    0.3355556390E-02    0.3921485630E+00
    0.9000000000E+04    0.6014121944E+00    0.4119232807E-01    0.2358113850E+00    0.2706133879E-02    0.3966160385E+00
    0.1100000000E+05    0.6175708065E+00    0.3570334193E-01    0.2373278253E+00    0.2278257128E-02    0.3998571738E+00
    0.1300000000E+05    0.6286533883E+00    0.3182552222E-01    0.2384639520E+00    0.1977857365E-02    0.4023531522E+00
    0.1500000000E+05    0.6366391789E+00    0.2893704104E-01    0.2393525370E+00    0.1756353869E-02    0.4043556383E+00
    0.1700000000E+05    0.6426215496E+00    0.2669612544E-01    0.2400697378E+00    0.1586608082E-02    0.4060109320E+00
    0.1900000000E+05    0.6472451449E+00    0.2490116163E-01    0.2406627099E+00    0.1452451815E-02    0.4074107486E+00
    0.2100000000E+05    0.6509108831E+00    0.2342619225E-01    0.2411623808E+00    0.1343728510E-02    0.4086159423E+00
    0.2300000000E+05    0.6538793905E+00    0.2218872103E-01    0.2415899669E+00    0.1253770630E-02    0.4096687208E+00
    0.2500000000E+05    0.6563265093E+00    0.2113254620E-01    0.2419605583E+00    0.1178035895E-02    0.4105994193E+00
    0.2700000000E+05    0.6583746829E+00    0.2021808497E-01    0.2422852112E+00    0.1113330852E-02    0.4114304880E+00
    0.2900000000E+05    0.6601115138E+00    0.1941665675E-01    0.2425722300E+00    0.1057348776E-02    0.4121789527E+00
    0.3100000000E+05    0.6616011660E+00    0.1870696575E-01    0.2428279855E+00    0.1008383923E-02    0.4128579965E+00
    0.3300000000E+05    0.6628916112E+00    0.1807285965E-01    0.2430574545E+00    0.9651488328E-03    0.4134780112E+00
    0.3500000000E+05    0.6640193688E+00    0.1750185689E-01    0.2432645871E+00    0.9266540589E-03    0.4140473167E+00
    0.3700000000E+05    0.6650126897E+00    0.1698415258E-01    0.2434525619E+00    0.8921269167E-03    0.4145726649E+00
    0.3900000000E+05    0.6658937432E+00    0.1651193123E-01    0.2436239685E+00    0.8609553193E-03    0.4150596022E+00
    0.4100000000E+05    0.6666801517E+00    0.1607888134E-01    0.2437809398E+00    0.8326481471E-03    0.4155127336E+00
    0.4300000000E+05    0.6673860859E+00    0.1567984598E-01    0.2439252499E+00    0.8068067634E-03    0.4159359196E+00
    0.4500000000E+05    0.6680230621E+00    0.1531056687E-01    0.2440583875E+00    0.7831041958E-03    0.4163324246E+00
    0.4700000000E+05    0.6686005289E+00    0.1496749395E-01    0.2441816121E+00    0.7612696882E-03    0.4167050308E+00
    0.4900000000E+05    0.6691263068E+00    0.1464764179E-01    0.2442959969E+00    0.7410770785E-03    0.4170561266E+00
    0.1000000000E+05    0.6103053225E+00    0.3818981585E-01    0.2366290150E+00    0.2471887225E-02    0.3983520819E+00
    0.3000000000E+05    0.6608839244E+00    0.1905145403E-01    0.2427036769E+00    0.1032077822E-02    0.4125264470E+00
    0.5000000000E+05    0.6693718948E+00    0.1449561735E-01    0.2443501672E+00    0.7315357797E-03    0.4172242642E+00
    0.7000000000E+05    0.6727024921E+00    0.1222242088E-01    0.2451367770E+00    0.5933220663E-03    0.4198376502E+00
    0.9000000000E+05    0.6744603571E+00    0.1079251172E-01    0.2455952440E+00    0.5107785791E-03    0.4215805047E+00
    0.1100000000E+06    0.6755420617E+00    0.9783912187E-02    0.2458916631E+00    0.4546153741E-03    0.4228589685E+00
    0.1300000000E+06    0.6762734085E+00    0.9021953729E-02    0.2460957973E+00    0.4133025251E-03    0.4238538441E+00
    0.1500000000E+06    0.6768003950E+00    0.8419332293E-02    0.2462423393E+00    0.3812981834E-03    0.4246598570E+00
    0.1700000000E+06    0.6771979830E+00    0.7926827281E-02    0.2463505654E+00    0.3555740313E-03    0.4253322348E+00
    0.1900000000E+06    0.6775085412E+00    0.7514256869E-02    0.2464320657E+00    0.3343199130E-03    0.4259057198E+00
    0.2100000000E+06    0.6777577944E+00    0.7161927298E-02    0.2464942342E+00    0.3163795566E-03    0.4264034504E+00
    0.2300000000E+06    0.6779622537E+00    0.6856357778E-02    0.2465420109E+00    0.3009756182E-03    0.4268415365E+00
    0.2500000000E+06    0.6781329969E+00    0.6587962059E-02    0.2465788206E+00    0.2875638361E-03    0.4272316012E+00
    0.2700000000E+06    0.6782777311E+00    0.6349708313E-02    0.2466071108E+00    0.2757503364E-03    0.4275822793E+00
    0.2900000000E+06    0.6784019827E+00    0.6136303605E-02    0.2466286757E+00    0.2652421531E-03    0.4279001440E+00
    0.3100000000E+06    0.6785098171E+00    0.5943676078E-02    0.2466448590E+00    0.2558162790E-03    0.4281903035E+00
    0.3300000000E+06    0.6786042909E+00    0.5768634243E-02    0.2466566855E+00    0.2472995720E-03    0.4284567993E+00
    0.3500000000E+06    0.6786877468E+00    0.5608635876E-02    0.2466649499E+00    0.2395552886E-03    0.4287028783E+00
    0.3700000000E+06    0.6787620098E+00    0.5461627108E-02    0.2466702767E+00    0.2324738093E-03    0.4289311846E+00
    0.3900000000E+06    0.6788285232E+00    0.5325927795E-02    0.2466731628E+00    0.2259660960E-03    0.4291438976E+00
    0.4100000000E+06    0.6788884430E+00    0.5200148200E-02    0.2466740080E+00    0.2199589798E-03    0.4293428326E+00
    0.4300000000E+06    0.6789427062E+00    0.5083127337E-02    0.2466731371E+00    0.2143917026E-03    0.4295295163E+00
    0.4500000000E+06    0.6789920802E+00    0.4973886628E-02    0.2466708164E+00    0.2092133377E-03    0.4297052438E+00
    0.4700000000E+06    0.6790371995E+00    0.4871594557E-02    0.2466672658E+00    0.2043808359E-03    0.4298711223E+00
    0.4900000000E+06    0.6790785933E+00    0.4775539355E-02    0.2466626681E+00    0.1998575261E-03    0.4300281048E+00
    0.1000000000E+06    0.6750589468E+00    0.1024947639E-01    0.2457581469E+00    0.4803293914E-03    0.4222635800E+00
    0.3000000000E+06    0.6784577414E+00    0.6037609670E-02    0.2466373697E+00    0.2604057346E-03    0.4280484129E+00
    0.5000000000E+06    0.6790980350E+00    0.4729655549E-02    0.2466600255E+00    0.1977018104E-03    0.4301035226E+00
    0.7000000000E+06    0.6793694913E+00    0.4027005728E-02    0.2465788010E+00    0.1650977858E-03    0.4312977197E+00
    0.9000000000E+06    0.6795200012E+00    0.3570938608E-02    0.2464766707E+00    0.1443565197E-03    0.4321205381E+00
    0.1100000000E+07    0.6796158873E+00    0.3243972732E-02    0.2463727935E+00    0.1297003833E-03    0.4327401646E+00
    0.1300000000E+07    0.6796824349E+00    0.2994611519E-02    0.2462726740E+00    0.1186485600E-03    0.4332330726E+00
    0.1500000000E+07    0.6797313907E+00    0.2796218843E-02    0.2461778544E+00    0.1099368645E-03    0.4336400504E+00
    0.1700000000E+07    0.6797689584E+00    0.2633438905E-02    0.2460885473E+00    0.1028449269E-03    0.4339852522E+00
    0.1900000000E+07    0.6797987260E+00    0.2496709416E-02    0.2460044994E+00    0.9692841932E-04    0.4342840846E+00
    0.2100000000E+07    0.6798229139E+00    0.2379721300E-02    0.2459253072E+00    0.9189653485E-04    0.4345469375E+00
    0.2300000000E+07    0.6798429704E+00    0.2278120033E-02    0.2458505392E+00    0.8754995569E-04    0.4347811278E+00
    0.2500000000E+07    0.6798598811E+00    0.2188789498E-02    0.2457797833E+00    0.8374692453E-04    0.4349919905E+00
    0.2700000000E+07    0.6798743402E+00    0.2109432650E-02    0.2457126637E+00    0.8038351861E-04    0.4351835273E+00
    0.2900000000E+07    0.6798868507E+00    0.2038313722E-02    0.2456488441E+00    0.7738159816E-04    0.4353588127E+00
    0.3100000000E+07    0.6798977864E+00    0.1974093196E-02    0.2455880263E+00    0.7468113440E-04    0.4355202561E+00
    0.3300000000E+07    0.6799074309E+00    0.1915718481E-02    0.2455299470E+00    0.7223515331E-04    0.4356697791E+00
    0.3500000000E+07    0.6799160032E+00    0.1862349364E-02    0.2454743737E+00    0.7000630292E-04    0.4358089373E+00
    0.3700000000E+07    0.6799236751E+00    0.1813305849E-02    0.2454211007E+00    0.6796446227E-04    0.4359390066E+00
    0.3900000000E+07    0.6799305836E+00    0.1768030865E-02    0.2453699454E+00    0.6608503803E-04    0.4360610458E+00
    0.4100000000E+07    0.6799368388E+00    0.1726063063E-02    0.2453207457E+00    0.6434772691E-04    0.4361759425E+00
    0.4300000000E+07    0.6799425308E+00    0.1687016635E-02    0.2452733567E+00    0.6273560040E-04    0.4362844479E+00
    0.4500000000E+07    0.6799477336E+00    0.1650566103E-02    0.2452276488E+00    0.6123441719E-04    0.4363872029E+00
    0.4700000000E+07    0.6799525087E+00    0.1616434694E-02    0.2451835059E+00    0.5983209925E-04    0.4364847588E+00
    0.4900000000E+07    0.6799569077E+00    0.1584385343E-02    0.2451408229E+00    0.5851832754E-04    0.4365775925E+00
    0.1000000000E+07    0.6795727147E+00    0.3395379238E-02    0.2464244591E+00    0.1364643470E-03    0.4324497734E+00
    0.3000000000E+07    0.6798924959E+00    0.2005412664E-02    0.2456180771E+00    0.7599687962E-04    0.4354411347E+00
    0.5000000000E+07    0.6799589800E+00    0.1569076448E-02    0.2451199989E+00    0.5789182363E-04    0.4366223705E+00
    0.7000000000E+07    0.6799883926E+00    0.1334718420E-02    0.2447613627E+00    0.4838925010E-04    0.4373476450E+00
    0.9000000000E+07    0.6800051798E+00    0.1182732213E-02    0.2444803422E+00    0.4232254592E-04    0.4378664366E+00
    0.1100000000E+08    0.6800161190E+00    0.1073858683E-02    0.2442488821E+00    0.3802837620E-04    0.4382682733E+00
    0.1300000000E+08    0.6800238556E+00    0.9908854557E-03    0.2440518834E+00    0.3478727596E-04    0.4385951762E+00
    0.1500000000E+08    0.6800296407E+00    0.9249122947E-03    0.2438802731E+00    0.3223111154E-04    0.4388701302E+00
    0.1700000000E+08    0.6800341448E+00    0.8708105074E-03    0.2437281653E+00    0.3014957445E-04    0.4391070347E+00
    0.1900000000E+08    0.6800377607E+00    0.8253879246E-03    0.2435915204E+00    0.2841272533E-04    0.4393149156E+00
    0.2100000000E+08    0.6800407342E+00    0.7865393909E-03    0.2434674437E+00    0.2693542029E-04    0.4394999555E+00
    0.2300000000E+08    0.6800432271E+00    0.7528125805E-03    0.2433537883E+00    0.2565925258E-04    0.4396665693E+00
    0.2500000000E+08    0.6800453507E+00    0.7231686373E-03    0.2432489175E+00    0.2454265671E-04    0.4398180162E+00
    0.2700000000E+08    0.6800471839E+00    0.6968420679E-03    0.2431515543E+00    0.2355514660E-04    0.4399567687E+00
