  Pressure (Pa) 22mC5-400 (mol/kg) 2mC6-400 (mol/kg) 3mC6-400 (mol/kg) 33mC5-400 (mol/kg) C7-400 (mol/kg)
    0.1000000000E+01    0.1055461602E-02    0.7880808480E-02    0.5231777757E-03    0.2566748454E-03    0.5093924075E-02
    0.3000000000E+01    0.3108021478E-02    0.2275561773E-01    0.1515146099E-02    0.7412277059E-03    0.1475446407E-01
    0.5000000000E+01    0.5087353409E-02    0.3655206687E-01    0.2441107216E-02    0.1190764376E-02    0.2377495446E-01
    0.7000000000E+01    0.6998502319E-02    0.4938006502E-01    0.3307909841E-02    0.1608854471E-02    0.3222171803E-01
    0.9000000000E+01    0.8846040806E-02    0.6133499953E-01    0.4121472159E-02    0.1998595722E-02    0.4015207251E-01
    0.1100000000E+02    0.1063412400E-01    0.7250007650E-01    0.4886935510E-02    0.2362690069E-02    0.4761581727E-01
    0.1300000000E+02    0.1236653688E-01    0.8294821956E-01    0.5608788524E-02    0.2703505387E-02    0.5465643409E-01
    0.1500000000E+02    0.1404673525E-01    0.9274362184E-01    0.6290968131E-02    0.3023125935E-02    0.6131206439E-01
    0.1700000000E+02    0.1567788139E-01    0.1019430232E+00    0.6936942324E-02    0.3323393868E-02    0.6761630999E-01
    0.1900000000E+02    0.1726287504E-01    0.1105967684E+00    0.7549778420E-02    0.3605943617E-02    0.7359889357E-01
    0.2100000000E+02    0.1880438060E-01    0.1187496880E+00    0.8132199701E-02    0.3872230543E-02    0.7928620678E-01
    0.2300000000E+02    0.2030485098E-01    0.1264418382E+00    0.8686632676E-02    0.4123554935E-02    0.8470176761E-01
    0.2500000000E+02    0.2176654851E-01    0.1337091223E+00    0.9215246742E-02    0.4361082237E-02    0.8986660418E-01
    0.2700000000E+02    0.2319156346E-01    0.1405838181E+00    0.9719987625E-02    0.4585860165E-02    0.9479957847E-01
    0.2900000000E+02    0.2458183041E-01    0.1470950261E+00    0.1020260572E-01    0.4798833271E-02    0.9951766055E-01
    0.3100000000E+02    0.2593914278E-01    0.1532690524E+00    0.1066468020E-01    0.5000855383E-02    0.1040361621E+00
    0.3300000000E+02    0.2726516570E-01    0.1591297376E+00    0.1110763965E-01    0.5192700280E-02    0.1083689359E+00
    0.3500000000E+02    0.2856144751E-01    0.1646987398E+00    0.1153277974E-01    0.5375070887E-02    0.1125285473E+00
    0.3700000000E+02    0.2982943009E-01    0.1699957790E+00    0.1194127852E-01    0.5548607227E-02    0.1165264217E+00
    0.3900000000E+02    0.3107045798E-01    0.1750388503E+00    0.1233420954E-01    0.5713893313E-02    0.1203729726E+00
    0.4100000000E+02    0.3228578669E-01    0.1798444081E+00    0.1271255336E-01    0.5871463164E-02    0.1240777118E+00
    0.4300000000E+02    0.3347659008E-01    0.1844275282E+00    0.1307720746E-01    0.6021806041E-02    0.1276493464E+00
    0.4500000000E+02    0.3464396704E-01    0.1888020492E+00    0.1342899499E-01    0.6165371055E-02    0.1310958630E+00
    0.4700000000E+02    0.3578894755E-01    0.1929806968E+00    0.1376867237E-01    0.6302571199E-02    0.1344246015E+00
    0.4900000000E+02    0.3691249809E-01    0.1969751939E+00    0.1409693600E-01    0.6433786910E-02    0.1376423198E+00
    0.1000000000E+02    0.9747269586E-02    0.6701149117E-01    0.4509921651E-02    0.2183693577E-02    0.4393941784E-01
    0.3000000000E+02    0.2526449899E-01    0.1502226426E+00    0.1043611831E-01    0.4901163078E-02    0.1018009610E+00
    0.5000000000E+02    0.3746652301E-01    0.1989067991E+00    0.1425699035E-01    0.6497261371E-02    0.1392115135E+00
    0.7000000000E+02    0.4761574347E-01    0.2300981975E+00    0.1699107177E-01    0.7524847895E-02    0.1660502672E+00
    0.9000000000E+02    0.5638331562E-01    0.2512627384E+00    0.1908207384E-01    0.8226224157E-02    0.1866251644E+00
    0.1100000000E+03    0.6416322947E-01    0.2661852877E+00    0.2075630905E-01    0.8724248300E-02    0.2031354577E+00
    0.1300000000E+03    0.7120423640E-01    0.2769844101E+00    0.2214228924E-01    0.9087714134E-02    0.2168310847E+00
    0.1500000000E+03    0.7767240697E-01    0.2849348592E+00    0.2331892302E-01    0.9358036081E-02    0.2284801732E+00
    0.1700000000E+03    0.8368362242E-01    0.2908472541E+00    0.2433763593E-01    0.9561566403E-02    0.2385837254E+00
    0.1900000000E+03    0.8932169435E-01    0.2952601092E+00    0.2523355359E-01    0.9715824900E-02    0.2474842140E+00
    0.2100000000E+03    0.9464906467E-01    0.2985440969E+00    0.2603159661E-01    0.9832881573E-02    0.2554247988E+00
    0.2300000000E+03    0.9971342887E-01    0.3009619713E+00    0.2675000822E-01    0.9921300975E-02    0.2625836181E+00
    0.2500000000E+03    0.1045520007E+00    0.3027046536E+00    0.2740249927E-01    0.9987313323E-02    0.2690946501E+00
    0.2700000000E+03    0.1091943521E+00    0.3039138305E+00    0.2799960735E-01    0.1003554803E-01    0.2750609375E+00
    0.2900000000E+03    0.1136643598E+00    0.3046965838E+00    0.2854958875E-01    0.1006950874E-01    0.2805632707E+00
    0.3100000000E+03    0.1179815734E+00    0.3051351368E+00    0.2905902152E-01    0.1009188984E-01    0.2856660612E+00
    0.3300000000E+03    0.1221621991E+00    0.3052935112E+00    0.2953322419E-01    0.1010479280E-01    0.2904214215E+00
    0.3500000000E+03    0.1262198195E+00    0.3052221750E+00    0.2997655311E-01    0.1010987718E-01    0.2948720636E+00
    0.3700000000E+03    0.1301659316E+00    0.3049613502E+00    0.3039261795E-01    0.1010846824E-01    0.2990534011E+00
    0.3900000000E+03    0.1340103534E+00    0.3045434094E+00    0.3078444083E-01    0.1010163489E-01    0.3029951010E+00
    0.4100000000E+03    0.1377615371E+00    0.3039946382E+00    0.3115457556E-01    0.1009024704E-01    0.3067222484E+00
    0.4300000000E+03    0.1414268119E+00    0.3033365499E+00    0.3150519853E-01    0.1007501842E-01    0.3102562334E+00
    0.4500000000E+03    0.1450125758E+00    0.3025868797E+00    0.3183817865E-01    0.1005653899E-01    0.3136154347E+00
    0.4700000000E+03    0.1485244482E+00    0.3017603433E+00    0.3215513211E-01    0.1003529966E-01    0.3168157546E+00
    0.4900000000E+03    0.1519673923E+00    0.3008692241E+00    0.3245746546E-01    0.1001171147E-01    0.3198710404E+00
    0.1000000000E+03    0.6037871656E-01    0.2593455883E+00    0.1996171432E-01    0.8495503490E-02    0.1952953013E+00
    0.3000000000E+03    0.1158409841E+00    0.3049545197E+00    0.2880901575E-01    0.1008200353E-01    0.2831611021E+00
    0.5000000000E+03    0.1536644127E+00    0.3004027343E+00    0.3260354044E-01    0.9999146900E-02    0.3213481451E+00
    0.7000000000E+03    0.1848368584E+00    0.2894726592E+00    0.3498938030E-01    0.9685065630E-02    0.3455624036E+00
    0.9000000000E+03    0.2121325486E+00    0.2777029915E+00    0.3671361910E-01    0.9327837385E-02    0.3631739097E+00
    0.1100000000E+04    0.2367066565E+00    0.2663222865E+00    0.3805410044E-01    0.8972074151E-02    0.3769370270E+00
    0.1300000000E+04    0.2591664747E+00    0.2556360553E+00    0.3914443201E-01    0.8630706503E-02    0.3881814902E+00
    0.1500000000E+04    0.2798803683E+00    0.2456934337E+00    0.4005909963E-01    0.8307392743E-02    0.3976511068E+00
    0.1700000000E+04    0.2990954150E+00    0.2364647361E+00    0.4084385400E-01    0.8002654106E-02    0.4058040772E+00
    0.1900000000E+04    0.3169904286E+00    0.2278972277E+00    0.4152879312E-01    0.7715885369E-02    0.4129426269E+00
    0.2100000000E+04    0.3337027275E+00    0.2199341885E+00    0.4213475949E-01    0.7446090801E-02    0.4192765412E+00
    0.2300000000E+04    0.3493427914E+00    0.2125215060E+00    0.4267677255E-01    0.7192171319E-02    0.4249573249E+00
    0.2500000000E+04    0.3640027912E+00    0.2056097185E+00    0.4316600565E-01    0.6953039025E-02    0.4300979147E+00
    0.2700000000E+04    0.3777617965E+00    0.1991543541E+00    0.4361099029E-01    0.6727661394E-02    0.4347847086E+00
    0.2900000000E+04    0.3906890846E+00    0.1931156488E+00    0.4401838389E-01    0.6515075855E-02    0.4390852455E+00
    0.3100000000E+04    0.4028463175E+00    0.1874580735E+00    0.4439347792E-01    0.6314391886E-02    0.4430532982E+00
    0.3300000000E+04    0.4142890215E+00    0.1821498343E+00    0.4474054513E-01    0.6124788002E-02    0.4467323563E+00
    0.3500000000E+04    0.4250676257E+00    0.1771624108E+00    0.4506308333E-01    0.5945506914E-02    0.4501580762E+00
    0.3700000000E+04    0.4352282151E+00    0.1724701482E+00    0.4536399051E-01    0.5775850278E-02    0.4533600431E+00
    0.3900000000E+04    0.4448130940E+00    0.1680499066E+00    0.4564569336E-01    0.5615173612E-02    0.4563630651E+00
    0.4100000000E+04    0.4538612224E+00    0.1638807592E+00    0.4591024322E-01    0.5462881606E-02    0.4591881414E+00
    0.4300000000E+04    0.4624085642E+00    0.1599437356E+00    0.4615938888E-01    0.5318423881E-02    0.4618531970E+00
    0.4500000000E+04    0.4704883740E+00    0.1562216007E+00    0.4639463268E-01    0.5181291170E-02    0.4643736497E+00
    0.4700000000E+04    0.4781314397E+00    0.1526986646E+00    0.4661727415E-01    0.5051011892E-02    0.4667628520E+00
    0.4900000000E+04    0.4853662910E+00    0.1493606177E+00    0.4682844455E-01    0.4927149057E-02    0.4690324409E+00
    0.1000000000E+04    0.2247141032E+00    0.2719352002E+00    0.3742152756E-01    0.9148620371E-02    0.3704340909E+00
    0.3000000000E+04    0.3968603577E+00    0.1902412889E+00    0.4420968068E-01    0.6413299083E-02    0.4411079060E+00
    0.5000000000E+04    0.4888389803E+00    0.1477567979E+00    0.4693004249E-01    0.4867496015E-02    0.4701256173E+00
    0.7000000000E+04    0.5423363285E+00    0.1227519541E+00    0.4854623695E-01    0.3927431137E-02    0.4876335009E+00
    0.9000000000E+04    0.5755833938E+00    0.1065805357E+00    0.4965807811E-01    0.3313415425E-02    0.4998265115E+00
    0.1100000000E+05    0.5975116872E+00    0.9532595897E-01    0.5048652753E-01    0.2887006621E-02    0.5090079619E+00
    0.1300000000E+05    0.6127218193E+00    0.8703367023E-01    0.5113599688E-01    0.2575565838E-02    0.5162738545E+00
    0.1500000000E+05    0.6237214602E+00    0.8064652421E-01    0.5166348702E-01    0.2338606844E-02    0.5222259913E+00
    0.1700000000E+05    0.6319550780E+00    0.7555211225E-01    0.5210324558E-01    0.2152244174E-02    0.5272277872E+00
    0.1900000000E+05    0.6382972632E+00    0.7137441829E-01    0.5247731367E-01    0.2001655462E-02    0.5315142048E+00
    0.2100000000E+05    0.6433012125E+00    0.6787094427E-01    0.5280063254E-01    0.1877229268E-02    0.5352451971E+00
    0.2300000000E+05    0.6473303587E+00    0.6487865562E-01    0.5308375124E-01    0.1772492120E-02    0.5385341462E+00
    0.2500000000E+05    0.6506314478E+00    0.6228398988E-01    0.5333436620E-01    0.1682938777E-02    0.5414640841E+00
    0.2700000000E+05    0.6533768661E+00    0.6000540666E-01    0.5355824645E-01    0.1605343444E-02    0.5440974718E+00
    0.2900000000E+05    0.6556901005E+00    0.5798280444E-01    0.5375981554E-01    0.1537338524E-02    0.5464823657E+00
    0.3100000000E+05    0.6576615777E+00    0.5617086424E-01    0.5394253144E-01    0.1477148178E-02    0.5486564552E+00
    0.3300000000E+05    0.6593588160E+00    0.5453472696E-01    0.5410914270E-01    0.1423414698E-02    0.5506497917E+00
    0.3500000000E+05    0.6608331097E+00    0.5304710568E-01    0.5426186588E-01    0.1375082303E-02    0.5524866835E+00
    0.3700000000E+05    0.6621240354E+00    0.5168630721E-01    0.5440251151E-01    0.1331317497E-02    0.5541870441E+00
    0.3900000000E+05    0.6632625568E+00    0.5043484603E-01    0.5453257520E-01    0.1291453303E-02    0.5557673701E+00
    0.4100000000E+05    0.6642732053E+00    0.4927845326E-01    0.5465330502E-01    0.1254949453E-02    0.5572414656E+00
    0.4300000000E+05    0.6651756392E+00    0.4820535520E-01    0.5476575187E-01    0.1221363477E-02    0.5586209853E+00
    0.4500000000E+05    0.6659857758E+00    0.4720573935E-01    0.5487080800E-01    0.1190329358E-02    0.5599158496E+00
    0.4700000000E+05    0.6667166268E+00    0.4627135327E-01    0.5496923649E-01    0.1161541558E-02    0.5611345649E+00
    0.4900000000E+05    0.6673789210E+00    0.4539519908E-01    0.5506169451E-01    0.1134742895E-02    0.5622844747E+00
    0.1000000000E+05    0.5876079172E+00    0.1004898864E+00    0.5009962999E-01    0.3082322572E-02    0.5047088378E+00
    0.3000000000E+05    0.6567138934E+00    0.5705288616E-01    0.5385334411E-01    0.1506359606E-02    0.5475937292E+00
    0.5000000000E+05    0.6676872064E+00    0.4497705605E-01    0.5510586553E-01    0.1122020005E-02    0.5628356539E+00
    0.7000000000E+05    0.6717911985E+00    0.3858988178E-01    0.5578109039E-01    0.9330421250E-03    0.5714311873E+00
    0.9000000000E+05    0.6738877768E+00    0.3443952479E-01    0.5621518323E-01    0.8155752014E-03    0.5771700592E+00
    0.1100000000E+06    0.6751480305E+00    0.3144954381E-01    0.5652199756E-01    0.7334659385E-03    0.5813648250E+00
    0.1300000000E+06    0.6759851631E+00    0.2915654101E-01    0.5675221168E-01    0.6718768844E-03    0.5846106423E+00
    0.1500000000E+06    0.6765800835E+00    0.2732237330E-01    0.5693223583E-01    0.6234508736E-03    0.5872227549E+00
    0.1700000000E+06    0.6770239478E+00    0.2580994162E-01    0.5707734571E-01    0.5840684601E-03    0.5893862084E+00
    0.1900000000E+06    0.6773674827E+00    0.2453378556E-01    0.5719706082E-01    0.5512183656E-03    0.5912179004E+00
    0.2100000000E+06    0.6776410864E+00    0.2343739543E-01    0.5729765627E-01    0.5232701828E-03    0.5927958766E+00
    0.2300000000E+06    0.6778640517E+00    0.2248166026E-01    0.5738345429E-01    0.4991127197E-03    0.5941745452E+00
    0.2500000000E+06    0.6780491982E+00    0.2163850761E-01    0.5745753913E-01    0.4779588231E-03    0.5953931778E+00
    0.2700000000E+06    0.6782053689E+00    0.2088718001E-01    0.5752217652E-01    0.4592330520E-03    0.5964809421E+00
    0.2900000000E+06    0.6783388575E+00    0.2021194393E-01    0.5757907199E-01    0.4425035861E-03    0.5974600261E+00
    0.3100000000E+06    0.6784542627E+00    0.1960062127E-01    0.5762953616E-01    0.4274391439E-03    0.5983476552E+00
    0.3300000000E+06    0.6785550220E+00    0.1904361493E-01    0.5767459438E-01    0.4137807243E-03    0.5991574380E+00
    0.3500000000E+06    0.6786437550E+00    0.1853324293E-01    0.5771506130E-01    0.4013224956E-03    0.5999002907E+00
    0.3700000000E+06    0.6787224932E+00    0.1806327174E-01    0.5775159305E-01    0.3898985230E-03    0.6005850877E+00
    0.3900000000E+06    0.6787928355E+00    0.1762858175E-01    0.5778472454E-01    0.3793733371E-03    0.6012191291E+00
    0.4100000000E+06    0.6788560577E+00    0.1722492289E-01    0.5781489651E-01    0.3696350932E-03    0.6018084838E+00
    0.4300000000E+06    0.6789131897E+00    0.1684873282E-01    0.5784247569E-01    0.3605905210E-03    0.6023582452E+00
    0.4500000000E+06    0.6789650723E+00    0.1649699971E-01    0.5786776986E-01    0.3521611349E-03    0.6028727242E+00
    0.4700000000E+06    0.6790123982E+00    0.1616715707E-01    0.5789103939E-01    0.3442803485E-03    0.6033555981E+00
    0.4900000000E+06    0.6790557438E+00    0.1585700225E-01    0.5791250610E-01    0.3368912502E-03    0.6038100261E+00
    0.1000000000E+06    0.6745882591E+00    0.3283612714E-01    0.5638051423E-01    0.7712866848E-03    0.5794138646E+00
    0.3000000000E+06    0.6783985832E+00    0.1989894475E-01    0.5760503822E-01    0.4347808599E-03    0.5979143497E+00
    0.5000000000E+06    0.6790760780E+00    0.1570870291E-01    0.5792262395E-01    0.3333655094E-03    0.6040274409E+00
    0.7000000000E+06    0.6793583382E+00    0.1342621926E-01    0.5806488318E-01    0.2797108628E-03    0.6073855516E+00
    0.9000000000E+06    0.6795134589E+00    0.1193345083E-01    0.5814150065E-01    0.2452636776E-03    0.6095960362E+00
    0.1100000000E+07    0.6796117482E+00    0.1085794588E-01    0.5818646432E-01    0.2207802632E-03    0.6111975082E+00
    0.1300000000E+07    0.6796797140E+00    0.1003480737E-01    0.5821387933E-01    0.2022421340E-03    0.6124293149E+00
    0.1500000000E+07    0.6797295806E+00    0.9378160244E-02    0.5823066156E-01    0.1875844825E-03    0.6134164679E+00
    0.1700000000E+07    0.6797677709E+00    0.8838246457E-02    0.5824059408E-01    0.1756235826E-03    0.6142315847E+00
    0.1900000000E+07    0.6797979846E+00    0.8383958564E-02    0.5824591352E-01    0.1656258984E-03    0.6149201671E+00
    0.2100000000E+07    0.6798225043E+00    0.7994706802E-02    0.5824802138E-01    0.1571095515E-03    0.6155123959E+00
    0.2300000000E+07    0.6798428154E+00    0.7656242539E-02    0.5824783636E-01    0.1497432540E-03    0.6160291983E+00
    0.2500000000E+07    0.6798599264E+00    0.7358346569E-02    0.5824598274E-01    0.1432907855E-03    0.6164856116E+00
    0.2700000000E+07    0.6798745463E+00    0.7093471321E-02    0.5824289732E-01    0.1375785928E-03    0.6168927617E+00
    0.2900000000E+07    0.6798871885E+00    0.6855903900E-02    0.5823889320E-01    0.1324759335E-03    0.6172590845E+00
    0.3100000000E+07    0.6798982337E+00    0.6641229059E-02    0.5823419936E-01    0.1278822021E-03    0.6175911107E+00
    0.3300000000E+07    0.6799079705E+00    0.6445972764E-02    0.5822898621E-01    0.1237185565E-03    0.6178939868E+00
    0.3500000000E+07    0.6799166215E+00    0.6267358649E-02    0.5822338237E-01    0.1199222229E-03    0.6181718324E+00
    0.3700000000E+07    0.6799243614E+00    0.6103137390E-02    0.5821748612E-01    0.1164425203E-03    0.6184279898E+00
    0.3900000000E+07    0.6799313291E+00    0.5951464499E-02    0.5821137341E-01    0.1132380245E-03    0.6186652041E+00
    0.4100000000E+07    0.6799376363E+00    0.5810811087E-02    0.5820510337E-01    0.1102745045E-03    0.6188857537E+00
    0.4300000000E+07    0.6799433744E+00    0.5679897574E-02    0.5819872248E-01    0.1075233939E-03    0.6190915482E+00
    0.4500000000E+07    0.6799486183E+00    0.5557643666E-02    0.5819226743E-01    0.1049606414E-03    0.6192842020E+00
    0.4700000000E+07    0.6799534303E+00    0.5443130099E-02    0.5818576736E-01    0.1025658341E-03    0.6194650907E+00
    0.4900000000E+07    0.6799578626E+00    0.5335568988E-02    0.5817924551E-01    0.1003215198E-03    0.6196353948E+00
    0.1000000000E+07    0.6795675458E+00    0.1135651719E-01    0.5816681045E-01    0.2320940324E-03    0.6104540793E+00
    0.3000000000E+07    0.6798928909E+00    0.6745940808E-02    0.5823662070E-01    0.1301208125E-03    0.6174290354E+00
    0.5000000000E+07    0.6799599505E+00    0.5284179495E-02    0.5817598238E-01    0.9925102052E-04    0.6197169018E+00
    0.7000000000E+07    0.6799895717E+00    0.4496608085E-02    0.5811250101E-01    0.8299552166E-04    0.6209789897E+00
    0.9000000000E+07    0.6800064734E+00    0.3985033135E-02    0.5805488740E-01    0.7260048965E-04    0.6218146438E+00
    0.1100000000E+08    0.6800174895E+00    0.3618215840E-02    0.5800338137E-01    0.6523538718E-04    0.6224237792E+00
    0.1300000000E+08    0.6800252840E+00    0.3338481192E-02    0.5795713892E-01    0.5967286849E-04    0.6228951300E+00
    0.1500000000E+08    0.6800311157E+00    0.3115959277E-02    0.5791529354E-01    0.5528391111E-04    0.6232750544E+00
    0.1700000000E+08    0.6800356592E+00    0.2933418128E-02    0.5787712215E-01    0.5170874876E-04    0.6235905080E+00
    0.1900000000E+08    0.6800393092E+00    0.2780123013E-02    0.5784204665E-01    0.4872490544E-04    0.6238584045E+00
    0.2100000000E+08    0.6800423129E+00    0.2648989810E-02    0.5780960720E-01    0.4618650250E-04    0.6240899808E+00
    0.2300000000E+08    0.6800448331E+00    0.2535128557E-02    0.5777943563E-01    0.4399341600E-04    0.6242930424E+00
    0.2500000000E+08    0.6800469816E+00    0.2435039847E-02    0.5775123411E-01    0.4207436029E-04    0.6244732083E+00
    0.2700000000E+08    0.6800488378E+00    0.2346144123E-02    0.5772475902E-01    0.4037703180E-04    0.6246346437E+00
