  Pressure (Pa) 22mC5-400 (mol/kg) 2mC6-400 (mol/kg) 3mC6-400 (mol/kg) 33mC5-400 (mol/kg) C7-400 (mol/kg)
    0.1000000000E+01    0.1060395940E-02    0.3129549917E-02    0.5171722716E-03    0.1911506138E-03    0.1678589511E-01
    0.3000000000E+01    0.3150800422E-02    0.8919536354E-02    0.1465780115E-02    0.5450699709E-03    0.4758788299E-01
    0.5000000000E+01    0.5201917111E-02    0.1416624708E-01    0.2315292710E-02    0.8661393368E-03    0.7518778373E-01
    0.7000000000E+01    0.7215156424E-02    0.1895056423E-01    0.3080728511E-02    0.1159267390E-02    0.1000701440E+00
    0.9000000000E+01    0.9191859640E-02    0.2333754869E-01    0.3774203937E-02    0.1428399577E-02    0.1226259528E+00
    0.1100000000E+02    0.1113330313E-01    0.2738014435E-01    0.4405602921E-02    0.1676744065E-02    0.1431742168E+00
    0.1300000000E+02    0.1304070227E-01    0.3112189004E-01    0.4983069193E-02    0.1906937097E-02    0.1619778250E+00
    0.1500000000E+02    0.1491521510E-01    0.3459893535E-01    0.5513373745E-02    0.2121165853E-02    0.1792553927E+00
    0.1700000000E+02    0.1675794569E-01    0.3784155968E-01    0.6002192908E-02    0.2321260984E-02    0.1951902250E+00
    0.1900000000E+02    0.1856994727E-01    0.4087533151E-01    0.6454321419E-02    0.2508767211E-02    0.2099371861E+00
    0.2100000000E+02    0.2035222519E-01    0.4372200325E-01    0.6873837549E-02    0.2684997777E-02    0.2236280227E+00
    0.2300000000E+02    0.2210573962E-01    0.4640020931E-01    0.7264232434E-02    0.2851076920E-02    0.2363755349E+00
    0.2500000000E+02    0.2383140808E-01    0.4892601605E-01    0.7628512330E-02    0.3007973306E-02    0.2482768737E+00
    0.2700000000E+02    0.2553010786E-01    0.5131335896E-01    0.7969280205E-02    0.3156526602E-02    0.2594161722E+00
    0.2900000000E+02    0.2720267815E-01    0.5357439306E-01    0.8288801368E-02    0.3297468751E-02    0.2698666632E+00
    0.3100000000E+02    0.2884992219E-01    0.5571977606E-01    0.8589056675E-02    0.3431441172E-02    0.2796923949E+00
    0.3300000000E+02    0.3047260914E-01    0.5775889877E-01    0.8871785962E-02    0.3559008728E-02    0.2889496326E+00
    0.3500000000E+02    0.3207147595E-01    0.5970007393E-01    0.9138523751E-02    0.3680671188E-02    0.2976880110E+00
    0.3700000000E+02    0.3364722898E-01    0.6155069193E-01    0.9390628778E-02    0.3796872658E-02    0.3059514865E+00
    0.3900000000E+02    0.3520054566E-01    0.6331735005E-01    0.9629308562E-02    0.3908009412E-02    0.3137791306E+00
    0.4100000000E+02    0.3673207593E-01    0.6500596027E-01    0.9855639953E-02    0.4014436417E-02    0.3212057930E+00
    0.4300000000E+02    0.3824244367E-01    0.6662183979E-01    0.1007058642E-01    0.4116472812E-02    0.3282626598E+00
    0.4500000000E+02    0.3973224799E-01    0.6816978727E-01    0.1027501265E-01    0.4214406522E-02    0.3349777244E+00
    0.4700000000E+02    0.4120206448E-01    0.6965414758E-01    0.1046969696E-01    0.4308498161E-02    0.3413761888E+00
    0.4900000000E+02    0.4265244636E-01    0.7107886677E-01    0.1065534185E-01    0.4398984364E-02    0.3474808039E+00
    0.1000000000E+02    0.1016691150E-01    0.2539897996E-01    0.4097118030E-02    0.1554993726E-02    0.1331334373E+00
    0.3000000000E+02    0.2802941710E-01    0.5466092672E-01    0.8441223317E-02    0.3365289225E-02    0.2748539395E+00
    0.5000000000E+02    0.4337051636E-01    0.7176999678E-01    0.1074497558E-01    0.4442943526E-02    0.3504294306E+00
    0.7000000000E+02    0.5683073052E-01    0.8318601800E-01    0.1218938533E-01    0.5176269748E-02    0.3980675731E+00
    0.9000000000E+02    0.6884316447E-01    0.9131678129E-01    0.1318774625E-01    0.5709596563E-02    0.4311646626E+00
    0.1100000000E+03    0.7971200293E-01    0.9732347437E-01    0.1392332035E-01    0.6112567179E-02    0.4556718799E+00
    0.1300000000E+03    0.8965771422E-01    0.1018580012E+00    0.1449026696E-01    0.6424389485E-02    0.4746524898E+00
    0.1500000000E+03    0.9884438286E-01    0.1053237578E+00    0.1494212764E-01    0.6669425209E-02    0.4898514780E+00
    0.1700000000E+03    0.1073969258E+00    0.1079875003E+00    0.1531169704E-01    0.6863862620E-02    0.5023395567E+00
    0.1900000000E+03    0.1154123206E+00    0.1100342599E+00    0.1562023890E-01    0.7018989902E-02    0.5128121827E+00
    0.2100000000E+03    0.1229671504E+00    0.1115970802E+00    0.1588217568E-01    0.7142968649E-02    0.5217418752E+00
    0.2300000000E+03    0.1301228087E+00    0.1127743509E+00    0.1610765369E-01    0.7241869065E-02    0.5294616231E+00
    0.2500000000E+03    0.1369291726E+00    0.1136405003E+00    0.1630403012E-01    0.7320309876E-02    0.5362132878E+00
    0.2700000000E+03    0.1434272482E+00    0.1142528939E+00    0.1647677731E-01    0.7381872179E-02    0.5421770665E+00
    0.2900000000E+03    0.1496511107E+00    0.1146564493E+00    0.1663005493E-01    0.7429377019E-02    0.5474901583E+00
    0.3100000000E+03    0.1556293516E+00    0.1148868155E+00    0.1676708473E-01    0.7465077218E-02    0.5522589993E+00
    0.3300000000E+03    0.1613861716E+00    0.1149726197E+00    0.1689040313E-01    0.7490793316E-02    0.5565675189E+00
    0.3500000000E+03    0.1669422206E+00    0.1149370885E+00    0.1700203591E-01    0.7508011985E-02    0.5604828566E+00
    0.3700000000E+03    0.1723152473E+00    0.1147992400E+00    0.1710362178E-01    0.7517958593E-02    0.5640594086E+00
    0.3900000000E+03    0.1775206108E+00    0.1145747735E+00    0.1719650150E-01    0.7521651587E-02    0.5673417501E+00
    0.4100000000E+03    0.1825716850E+00    0.1142767443E+00    0.1728178333E-01    0.7519943819E-02    0.5703667830E+00
    0.4300000000E+03    0.1874801822E+00    0.1139160809E+00    0.1736039182E-01    0.7513554367E-02    0.5731653391E+00
    0.4500000000E+03    0.1922564148E+00    0.1135019869E+00    0.1743310474E-01    0.7503093304E-02    0.5757633951E+00
    0.4700000000E+03    0.1969095082E+00    0.1130422555E+00    0.1750058143E-01    0.7489081182E-02    0.5781830042E+00
    0.4900000000E+03    0.2014475745E+00    0.1125435189E+00    0.1756338471E-01    0.7471964505E-02    0.5804430199E+00
    0.1000000000E+03    0.7440517514E-01    0.9453711517E-01    0.1358118982E-01    0.5924461378E-02    0.4442581573E+00
    0.3000000000E+03    0.1526693293E+00    0.1147913488E+00    0.1670042857E-01    0.7448580086E-02    0.5499369139E+00
    0.5000000000E+03    0.2036757665E+00    0.1122813284E+00    0.1759318763E-01    0.7462364345E-02    0.5815183391E+00
    0.7000000000E+03    0.2436112200E+00    0.1060052214E+00    0.1803192699E-01    0.7177448888E-02    0.5976073617E+00
    0.9000000000E+03    0.2770828112E+00    0.9911406858E-01    0.1829622398E-01    0.6813590033E-02    0.6076193903E+00
    0.1100000000E+04    0.3060672504E+00    0.9243076939E-01    0.1847391877E-01    0.6435803936E-02    0.6145571512E+00
    0.1300000000E+04    0.3316262951E+00    0.8619668937E-01    0.1860195012E-01    0.6067614878E-02    0.6197005277E+00
    0.1500000000E+04    0.3544201458E+00    0.8046912060E-01    0.1869870916E-01    0.5718131412E-02    0.6236948739E+00
    0.1700000000E+04    0.3749033789E+00    0.7523990498E-01    0.1877443571E-01    0.5390617248E-02    0.6269038846E+00
    0.1900000000E+04    0.3934124978E+00    0.7047712040E-01    0.1883530592E-01    0.5085732170E-02    0.6295495004E+00
    0.2100000000E+04    0.4102097602E+00    0.6614131609E-01    0.1888527639E-01    0.4802919147E-02    0.6317755244E+00
    0.2300000000E+04    0.4255071564E+00    0.6219220743E-01    0.1892700413E-01    0.4541053585E-02    0.6336796009E+00
    0.2500000000E+04    0.4394805356E+00    0.5859146040E-01    0.1896234238E-01    0.4298767192E-02    0.6353305761E+00
    0.2700000000E+04    0.4522784848E+00    0.5530376957E-01    0.1899262472E-01    0.4074616323E-02    0.6367785167E+00
    0.2900000000E+04    0.4640282401E+00    0.5229716270E-01    0.1901883614E-01    0.3867171111E-02    0.6380607874E+00
    0.3100000000E+04    0.4748398264E+00    0.4954295098E-01    0.1904172048E-01    0.3675062178E-02    0.6392058925E+00
    0.3300000000E+04    0.4848090899E+00    0.4701552246E-01    0.1906185033E-01    0.3497003824E-02    0.6402359914E+00
    0.3500000000E+04    0.4940200018E+00    0.4469207408E-01    0.1907967381E-01    0.3331803817E-02    0.6411685961E+00
    0.3700000000E+04    0.5025464647E+00    0.4255232949E-01    0.1909554681E-01    0.3178365513E-02    0.6420177456E+00
    0.3900000000E+04    0.5104537634E+00    0.4057826556E-01    0.1910975560E-01    0.3035685601E-02    0.6427948394E+00
    0.4100000000E+04    0.5177997535E+00    0.3875385788E-01    0.1912253316E-01    0.2902849446E-02    0.6435092381E+00
    0.4300000000E+04    0.5246358491E+00    0.3706484967E-01    0.1913407103E-01    0.2779025206E-02    0.6441687073E+00
    0.4500000000E+04    0.5310078545E+00    0.3549854462E-01    0.1914452818E-01    0.2663457453E-02    0.6447797475E+00
    0.4700000000E+04    0.5369566690E+00    0.3404362301E-01    0.1915403765E-01    0.2555460725E-02    0.6453478462E+00
    0.4900000000E+04    0.5425188907E+00    0.3268997929E-01    0.1916271164E-01    0.2454413267E-02    0.6458776703E+00
    0.1000000000E+04    0.2920565776E+00    0.9572465427E-01    0.1839295201E-01    0.6624461823E-02    0.6113708818E+00
    0.3000000000E+04    0.4695450115E+00    0.5089017732E-01    0.1903065503E-01    0.3769282090E-02    0.6386489750E+00
    0.5000000000E+04    0.5451654190E+00    0.3204827510E-01    0.1916676569E-01    0.2406317170E-02    0.6461295010E+00
    0.7000000000E+04    0.5841817218E+00    0.2278732384E-01    0.1922100467E-01    0.1697721010E-02    0.6498810224E+00
    0.9000000000E+04    0.6070244686E+00    0.1756869801E-01    0.1924722921E-01    0.1285927138E-02    0.6522063233E+00
    0.1100000000E+05    0.6216761169E+00    0.1431588796E-01    0.1926082609E-01    0.1024763914E-02    0.6538183801E+00
    0.1300000000E+05    0.6317286162E+00    0.1213064871E-01    0.1926781540E-01    0.8477268681E-03    0.6550165961E+00
    0.1500000000E+05    0.6389867877E+00    0.1057652494E-01    0.1927101016E-01    0.7213859753E-03    0.6559505959E+00
    0.1700000000E+05    0.6444395846E+00    0.9421061592E-02    0.1927188582E-01    0.6274964885E-03    0.6567042253E+00
    0.1900000000E+05    0.6486675607E+00    0.8531072937E-02    0.1927128189E-01    0.5554131603E-03    0.6573284647E+00
    0.2100000000E+05    0.6520310331E+00    0.7825608217E-02    0.1926970572E-01    0.4985759378E-03    0.6578562710E+00
    0.2300000000E+05    0.6547640883E+00    0.7253018980E-02    0.1926747843E-01    0.4527551427E-03    0.6583099918E+00
    0.2500000000E+05    0.6570247090E+00    0.6778991070E-02    0.1926481077E-01    0.4151181870E-03    0.6587053730E+00
    0.2700000000E+05    0.6589230013E+00    0.6379933164E-02    0.1926184513E-01    0.3837060278E-03    0.6590538633E+00
    0.2900000000E+05    0.6605378428E+00    0.6039144109E-02    0.1925867995E-01    0.3571258108E-03    0.6593640081E+00
    0.3100000000E+05    0.6619270970E+00    0.5744497504E-02    0.1925538458E-01    0.3343632298E-03    0.6596423299E+00
    0.3300000000E+05    0.6631340992E+00    0.5486992044E-02    0.1925200859E-01    0.3146640127E-03    0.6598939026E+00
    0.3500000000E+05    0.6641918999E+00    0.5259815156E-02    0.1924858786E-01    0.2974568081E-03    0.6601227398E+00
    0.3700000000E+05    0.6651261145E+00    0.5057721356E-02    0.1924514855E-01    0.2823016755E-03    0.6603320627E+00
    0.3900000000E+05    0.6659568830E+00    0.4876609373E-02    0.1924170985E-01    0.2688548660E-03    0.6605244899E+00
    0.4100000000E+05    0.6667002451E+00    0.4713228176E-02    0.1923828587E-01    0.2568442358E-03    0.6607021747E+00
    0.4300000000E+05    0.6673691240E+00    0.4564968583E-02    0.1923488700E-01    0.2460517562E-03    0.6608669060E+00
    0.4500000000E+05    0.6679740419E+00    0.4429712912E-02    0.1923152082E-01    0.2363008606E-03    0.6610201837E+00
    0.4700000000E+05    0.6685236480E+00    0.4305724768E-02    0.1922819284E-01    0.2274471486E-03    0.6611632760E+00
    0.4900000000E+05    0.6690251145E+00    0.4191567067E-02    0.1922490699E-01    0.2193714606E-03    0.6612972634E+00
    0.1000000000E+05    0.6150896992E+00    0.1576840174E-01    0.1925511778E-01    0.1141779485E-02    0.6530776545E+00
    0.3000000000E+05    0.6612576775E+00    0.5886675946E-02    0.1925704506E-01    0.3453194940E-03    0.6595068011E+00
    0.5000000000E+05    0.6692597081E+00    0.4137791860E-02    0.1922328075E-01    0.2155937267E-03    0.6613611376E+00
    0.7000000000E+05    0.6724679429E+00    0.3369666537E-02    0.1919325357E-01    0.1637490343E-03    0.6623292094E+00
    0.9000000000E+05    0.6741867964E+00    0.2918753717E-02    0.1916762988E-01    0.1354838207E-03    0.6629481323E+00
    0.1100000000E+06    0.6752566433E+00    0.2613975909E-02    0.1914550452E-01    0.1174391440E-03    0.6633879027E+00
    0.1300000000E+06    0.6759866796E+00    0.2390235930E-02    0.1912609291E-01    0.1047737146E-03    0.6637214365E+00
    0.1500000000E+06    0.6765168229E+00    0.2216872385E-02    0.1910881867E-01    0.9530754714E-04    0.6639858748E+00
    0.1700000000E+06    0.6769194920E+00    0.2077342302E-02    0.1909326257E-01    0.8791081665E-04    0.6642023851E+00
    0.1900000000E+06    0.6772358974E+00    0.1961837950E-02    0.1907911453E-01    0.8193713365E-04    0.6643840317E+00
    0.2100000000E+06    0.6774912081E+00    0.1864127695E-02    0.1906614025E-01    0.7698854642E-04    0.6645393726E+00
    0.2300000000E+06    0.6777016621E+00    0.1780036405E-02    0.1905415888E-01    0.7280579188E-04    0.6646742805E+00
    0.2500000000E+06    0.6778782046E+00    0.1706647040E-02    0.1904302820E-01    0.6921219403E-04    0.6647929378E+00
    0.2700000000E+06    0.6780284825E+00    0.1641851152E-02    0.1903263442E-01    0.6608287219E-04    0.6648984151E+00
    0.2900000000E+06    0.6781579999E+00    0.1584081369E-02    0.1902288515E-01    0.6332684015E-04    0.6649930250E+00
    0.3100000000E+06    0.6782708198E+00    0.1532144735E-02    0.1901370435E-01    0.6087609338E-04    0.6650785469E+00
    0.3300000000E+06    0.6783700074E+00    0.1485114835E-02    0.1900502870E-01    0.5867868565E-04    0.6651563756E+00
    0.3500000000E+06    0.6784579188E+00    0.1442259666E-02    0.1899680496E-01    0.5669418465E-04    0.6652276224E+00
    0.3700000000E+06    0.6785363950E+00    0.1402992038E-02    0.1898898787E-01    0.5489060059E-04    0.6652931847E+00
    0.3900000000E+06    0.6786068956E+00    0.1366834633E-02    0.1898153870E-01    0.5324225658E-04    0.6653537968E+00
    0.4100000000E+06    0.6786705927E+00    0.1333394858E-02    0.1897442401E-01    0.5172827858E-04    0.6654100660E+00
    0.4300000000E+06    0.6787284386E+00    0.1302346401E-02    0.1896761472E-01    0.5033150311E-04    0.6654624995E+00
    0.4500000000E+06    0.6787812153E+00    0.1273415472E-02    0.1896108542E-01    0.4903767316E-04    0.6655115247E+00
    0.4700000000E+06    0.6788295705E+00    0.1246370395E-02    0.1895481376E-01    0.4783483661E-04    0.6655575048E+00
    0.4900000000E+06    0.6788740456E+00    0.1221013604E-02    0.1894877996E-01    0.4671288979E-04    0.6656007509E+00
    0.1000000000E+06    0.6747774969E+00    0.2753381679E-02    0.1915618424E-01    0.1255816315E-03    0.6631846339E+00
    0.3000000000E+06    0.6782162860E+00    0.1557447076E-02    0.1901822791E-01    0.6206686698E-04    0.6650368271E+00
    0.5000000000E+06    0.6788949735E+00    0.1208914349E-02    0.1894584670E-01    0.4617951003E-04    0.6656214338E+00
    0.7000000000E+06    0.6791902835E+00    0.1024639511E-02    0.1889627467E-01    0.3821057621E-04    0.6659406457E+00
    0.9000000000E+06    0.6793572955E+00    0.9059709564E-03    0.1885846640E-01    0.3322928125E-04    0.6661511769E+00
    0.1100000000E+07    0.6794654696E+00    0.8213097084E-03    0.1882786945E-01    0.2974642387E-04    0.6663044252E+00
    0.1300000000E+07    0.6795416373E+00    0.7569632686E-03    0.1880215579E-01    0.2713878275E-04    0.6664229893E+00
    0.1500000000E+07    0.6795983989E+00    0.7059007408E-03    0.1877997209E-01    0.2509393638E-04    0.6665186041E+00
    0.1700000000E+07    0.6796424724E+00    0.6640895190E-03    0.1876046097E-01    0.2343588981E-04    0.6665980648E+00
    0.1900000000E+07    0.6796777760E+00    0.6290280957E-03    0.1874304456E-01    0.2205701157E-04    0.6666656227E+00
    0.2100000000E+07    0.6797067531E+00    0.5990710039E-03    0.1872731467E-01    0.2088732376E-04    0.6667240958E+00
    0.2300000000E+07    0.6797310093E+00    0.5730853411E-03    0.1871297214E-01    0.1987911806E-04    0.6667754389E+00
    0.2500000000E+07    0.6797516440E+00    0.5502620643E-03    0.1869979113E-01    0.1899861154E-04    0.6668210572E+00
    0.2700000000E+07    0.6797694366E+00    0.5300058338E-03    0.1868759694E-01    0.1822112832E-04    0.6668619917E+00
    0.2900000000E+07    0.6797849553E+00    0.5118674628E-03    0.1867625161E-01    0.1752817234E-04    0.6668990326E+00
    0.3100000000E+07    0.6797986248E+00    0.4955007683E-03    0.1866564427E-01    0.1690557270E-04    0.6669327928E+00
    0.3300000000E+07    0.6798107688E+00    0.4806340428E-03    0.1865568451E-01    0.1634226645E-04    0.6669637557E+00
    0.3500000000E+07    0.6798216386E+00    0.4670506297E-03    0.1864629759E-01    0.1582947497E-04    0.6669923094E+00
    0.3700000000E+07    0.6798314326E+00    0.4545753544E-03    0.1863742103E-01    0.1536013223E-04    0.6670187690E+00
    0.3900000000E+07    0.6798403094E+00    0.4430648338E-03    0.1862900208E-01    0.1492847848E-04    0.6670433939E+00
    0.4100000000E+07    0.6798483973E+00    0.4324004176E-03    0.1862099574E-01    0.1452976582E-04    0.6670663999E+00
    0.4300000000E+07    0.6798558016E+00    0.4224829561E-03    0.1861336340E-01    0.1416004096E-04    0.6670879681E+00
    0.4500000000E+07    0.6798626092E+00    0.4132288609E-03    0.1860607160E-01    0.1381598225E-04    0.6671082520E+00
    0.4700000000E+07    0.6798688928E+00    0.4045670969E-03    0.1859909119E-01    0.1349477588E-04    0.6671273827E+00
    0.4900000000E+07    0.6798747134E+00    0.3964368560E-03    0.1859239662E-01    0.1319402030E-04    0.6671454728E+00
    0.1000000000E+07    0.6794165606E+00    0.8604717663E-03    0.1884244356E-01    0.3135017589E-04    0.6662331810E+00
    0.3000000000E+07    0.6797919990E+00    0.5034811208E-03    0.1867086176E-01    0.1720883110E-04    0.6669162900E+00
    0.5000000000E+07    0.6798774665E+00    0.3925543946E-03    0.1858914938E-01    0.1305065518E-04    0.6671541586E+00
    0.7000000000E+07    0.6799174552E+00    0.3332083657E-03    0.1853491644E-01    0.1088068885E-04    0.6672912624E+00
    0.9000000000E+07    0.6799412715E+00    0.2948140357E-03    0.1849425254E-01    0.9499800855E-05    0.6673852655E+00
    0.1100000000E+08    0.6799573410E+00    0.2673583065E-03    0.1846170743E-01    0.8524523900E-05    0.6674558125E+00
    0.1300000000E+08    0.6799690472E+00    0.2464622083E-03    0.1843457279E-01    0.7789629603E-05    0.6675117876E+00
    0.1500000000E+08    0.6799780292E+00    0.2298655901E-03    0.1841130410E-01    0.7210797164E-05    0.6675579101E+00
    0.1700000000E+08    0.6799851844E+00    0.2162679209E-03    0.1839093649E-01    0.6739950635E-05    0.6675969663E+00
    0.1900000000E+08    0.6799910480E+00    0.2048606800E-03    0.1837282662E-01    0.6347432669E-05    0.6676307290E+00
    0.2100000000E+08    0.6799959608E+00    0.1951111956E-03    0.1835652397E-01    0.6013835013E-05    0.6676603911E+00
    0.2300000000E+08    0.6800001510E+00    0.1866522966E-03    0.1834170073E-01    0.5725858526E-05    0.6676867912E+00
    0.2500000000E+08    0.6800037774E+00    0.1792215409E-03    0.1832811090E-01    0.5474047667E-05    0.6677105398E+00
    0.2700000000E+08    0.6800069543E+00    0.1726256742E-03    0.1831556517E-01    0.5251473008E-05    0.6677320942E+00
