  Pressure (Pa) 22mC5-400 (mol/kg) 2mC6-400 (mol/kg) 3mC6-400 (mol/kg) 33mC5-400 (mol/kg) C7-400 (mol/kg)
    0.1000000000E+01    0.1593140525E-02    0.7843310218E-03    0.2591820172E-02    0.1277502959E-03    0.1514199252E-01
    0.3000000000E+01    0.4748610527E-02    0.2245680393E-02    0.7376418631E-02    0.3659545604E-03    0.4310576560E-01
    0.5000000000E+01    0.7863755017E-02    0.3581447395E-02    0.1169412781E-01    0.5839318529E-03    0.6835425024E-01
    0.7000000000E+01    0.1093945733E-01    0.4809119261E-02    0.1561035241E-01    0.7845127325E-03    0.9126721274E-01
    0.9000000000E+01    0.1397657457E-01    0.5942988851E-02    0.1917881353E-01    0.9700087897E-03    0.1121566334E+00
    0.1100000000E+02    0.1697593858E-01    0.6994850460E-02    0.2244404664E-01    0.1142325916E-02    0.1312811923E+00
    0.1300000000E+02    0.1993835689E-01    0.7974522219E-02    0.2544328497E-01    0.1303049312E-02    0.1488571922E+00
    0.1500000000E+02    0.2286461354E-01    0.8890243331E-02    0.2820789768E-01    0.1453508106E-02    0.1650669007E+00
    0.1700000000E+02    0.2575546997E-01    0.9748979650E-02    0.3076450105E-01    0.1594825043E-02    0.1800649956E+00
    0.1900000000E+02    0.2861166582E-01    0.1055666128E-01    0.3313582617E-01    0.1727955094E-02    0.1939835991E+00
    0.2100000000E+02    0.3143391967E-01    0.1131836910E-01    0.3534140327E-01    0.1853715775E-02    0.2069362481E+00
    0.2300000000E+02    0.3422292985E-01    0.1203848263E-01    0.3739810621E-01    0.1972811138E-02    0.2190210538E+00
    0.2500000000E+02    0.3697937507E-01    0.1272079808E-01    0.3932058956E-01    0.2085850948E-02    0.2303232384E+00
    0.2700000000E+02    0.3970391516E-01    0.1336862347E-01    0.4112164207E-01    0.2193366108E-02    0.2409171862E+00
    0.2900000000E+02    0.4239719168E-01    0.1398485578E-01    0.4281247465E-01    0.2295821167E-02    0.2508681155E+00
    0.3100000000E+02    0.4505982859E-01    0.1457204396E-01    0.4440295661E-01    0.2393624536E-02    0.2602334497E+00
    0.3300000000E+02    0.4769243281E-01    0.1513244068E-01    0.4590181068E-01    0.2487136869E-02    0.2690639497E+00
    0.3500000000E+02    0.5029559481E-01    0.1566804520E-01    0.4731677492E-01    0.2576677997E-02    0.2774046542E+00
    0.3700000000E+02    0.5286988919E-01    0.1618063891E-01    0.4865473803E-01    0.2662532692E-02    0.2852956648E+00
    0.3900000000E+02    0.5541587516E-01    0.1667181516E-01    0.4992185281E-01    0.2744955475E-02    0.2927728056E+00
    0.4100000000E+02    0.5793409708E-01    0.1714300420E-01    0.5112363202E-01    0.2824174663E-02    0.2998681797E+00
    0.4300000000E+02    0.6042508496E-01    0.1759549434E-01    0.5226502958E-01    0.2900395773E-02    0.3066106405E+00
    0.4500000000E+02    0.6288935492E-01    0.1803044985E-01    0.5335050966E-01    0.2973804415E-02    0.3130261937E+00
    0.4700000000E+02    0.6532740961E-01    0.1844892617E-01    0.5438410584E-01    0.3044568752E-02    0.3191383406E+00
    0.4900000000E+02    0.6773973870E-01    0.1885188299E-01    0.5536947187E-01    0.3112841601E-02    0.3249683730E+00
    0.1000000000E+02    0.1548092470E-01    0.6478515875E-02    0.2084685406E-01    0.1057708969E-02    0.1219251168E+00
    0.3000000000E+02    0.4373230176E-01    0.1428193319E-01    0.4361968946E-01    0.2345280741E-02    0.2556206651E+00
    0.5000000000E+02    0.6893640572E-01    0.1904781807E-01    0.5584511741E-01    0.3146087727E-02    0.3277837091E+00
    0.7000000000E+02    0.9162912135E-01    0.2232855582E-01    0.6348891613E-01    0.3708321279E-02    0.3731448644E+00
    0.9000000000E+02    0.1122239364E+00    0.2471324602E-01    0.6872720629E-01    0.4125615556E-02    0.4043959730E+00
    0.1100000000E+03    0.1310450567E+00    0.2649109507E-01    0.7254449759E-01    0.4443852829E-02    0.4272893847E+00
    0.1300000000E+03    0.1483503545E+00    0.2782919203E-01    0.7545165031E-01    0.4689583716E-02    0.4448153431E+00
    0.1500000000E+03    0.1643476027E+00    0.2883493739E-01    0.7774038312E-01    0.4879941946E-02    0.4586844396E+00
    0.1700000000E+03    0.1792061735E+00    0.2958247687E-01    0.7958952004E-01    0.5026819721E-02    0.4699471470E+00
    0.1900000000E+03    0.1930656095E+00    0.3012557434E-01    0.8111485021E-01    0.5138893238E-02    0.4792848668E+00
    0.2100000000E+03    0.2060419982E+00    0.3050459551E-01    0.8239468911E-01    0.5222719234E-02    0.4871592980E+00
    0.2300000000E+03    0.2182327794E+00    0.3075062973E-01    0.8348392475E-01    0.5283381855E-02    0.4938946036E+00
    0.2500000000E+03    0.2297204146E+00    0.3088808847E-01    0.8442218102E-01    0.5324900771E-02    0.4997252156E+00
    0.2700000000E+03    0.2405752214E+00    0.3093643021E-01    0.8523878686E-01    0.5350502604E-02    0.5048249655E+00
    0.2900000000E+03    0.2508575859E+00    0.3091135316E-01    0.8595592096E-01    0.5362809075E-02    0.5093255391E+00
    0.3100000000E+03    0.2606197060E+00    0.3082564708E-01    0.8659066892E-01    0.5363971777E-02    0.5133285617E+00
    0.3300000000E+03    0.2699069782E+00    0.3068981767E-01    0.8715640812E-01    0.5355771296E-02    0.5169137428E+00
    0.3500000000E+03    0.2787591095E+00    0.3051255420E-01    0.8766376352E-01    0.5339691693E-02    0.5201445031E+00
    0.3700000000E+03    0.2872110168E+00    0.3030108582E-01    0.8812128197E-01    0.5316977471E-02    0.5230719488E+00
    0.3900000000E+03    0.2952935585E+00    0.3006145721E-01    0.8853591740E-01    0.5288677799E-02    0.5257377342E+00
    0.4100000000E+03    0.3030341351E+00    0.2979874452E-01    0.8891338588E-01    0.5255681288E-02    0.5281761586E+00
    0.4300000000E+03    0.3104571844E+00    0.2951722632E-01    0.8925842977E-01    0.5218743625E-02    0.5304157282E+00
    0.4500000000E+03    0.3175845925E+00    0.2922052035E-01    0.8957501682E-01    0.5178509764E-02    0.5324803346E+00
    0.4700000000E+03    0.3244360379E+00    0.2891169375E-01    0.8986649237E-01    0.5135531876E-02    0.5343901566E+00
    0.4900000000E+03    0.3310292790E+00    0.2859335259E-01    0.9013569692E-01    0.5090283996E-02    0.5361623573E+00
    0.1000000000E+03    0.1218387534E+00    0.2566571969E-01    0.7077452621E-01    0.4295162756E-02    0.4166595184E+00
    0.3000000000E+03    0.2558006940E+00    0.3087537472E-01    0.8628268307E-01    0.5364664388E-02    0.5113838245E+00
    0.5000000000E+03    0.3342341583E+00    0.2843132068E-01    0.9026272021E-01    0.5066938584E-02    0.5370015254E+00
    0.7000000000E+03    0.3879874544E+00    0.2508032581E-01    0.9207173969E-01    0.4554106957E-02    0.5492180806E+00
    0.9000000000E+03    0.4276927138E+00    0.2198398810E-01    0.9309524540E-01    0.4048581735E-02    0.5564578507E+00
    0.1100000000E+04    0.4583457972E+00    0.1934307818E-01    0.9374721326E-01    0.3600423019E-02    0.5612848150E+00
    0.1300000000E+04    0.4827321767E+00    0.1713845018E-01    0.9419469227E-01    0.3215609084E-02    0.5647517686E+00
    0.1500000000E+04    0.5025732010E+00    0.1530385451E-01    0.9451797032E-01    0.2888158834E-02    0.5673732717E+00
    0.1700000000E+04    0.5190059614E+00    0.1377148175E-01    0.9476038455E-01    0.2609564103E-02    0.5694316346E+00
    0.1900000000E+04    0.5328172930E+00    0.1248323666E-01    0.9494735586E-01    0.2371669708E-02    0.5710951137E+00
    0.2100000000E+04    0.5445707504E+00    0.1139210612E-01    0.9509476099E-01    0.2167451803E-02    0.5724704460E+00
    0.2300000000E+04    0.5546809947E+00    0.1046080582E-01    0.9521301460E-01    0.1991100152E-02    0.5736287298E+00
    0.2500000000E+04    0.5634599073E+00    0.9659926268E-02    0.9530922352E-01    0.1837884229E-02    0.5746192202E+00
    0.2700000000E+04    0.5711464357E+00    0.8966238060E-02    0.9538839744E-01    0.1703971756E-02    0.5754771602E+00
    0.2900000000E+04    0.5779265792E+00    0.8361307960E-02    0.9545416505E-01    0.1586256934E-02    0.5762284581E+00
    0.3100000000E+04    0.5839471479E+00    0.7830417353E-02    0.9550921621E-01    0.1482214711E-02    0.5768926029E+00
    0.3300000000E+04    0.5893254567E+00    0.7361731863E-02    0.9555558480E-01    0.1389782629E-02    0.5774845479E+00
    0.3500000000E+04    0.5941562923E+00    0.6945667597E-02    0.9559483553E-01    0.1307266984E-02    0.5780159654E+00
    0.3700000000E+04    0.5985170069E+00    0.6574407419E-02    0.9562819055E-01    0.1233268934E-02    0.5784961056E+00
    0.3900000000E+04    0.6024713004E+00    0.6241530512E-02    0.9565661731E-01    0.1166626450E-02    0.5789323977E+00
    0.4100000000E+04    0.6060720671E+00    0.5941727254E-02    0.9568089083E-01    0.1106368670E-02    0.5793308805E+00
    0.4300000000E+04    0.6093635642E+00    0.5670578442E-02    0.9570163868E-01    0.1051679894E-02    0.5796965149E+00
    0.4500000000E+04    0.6123830834E+00    0.5424383239E-02    0.9571937392E-01    0.1001871068E-02    0.5800334163E+00
    0.4700000000E+04    0.6151622523E+00    0.5200024183E-02    0.9573451969E-01    0.9563570816E-03    0.5803450285E+00
    0.4900000000E+04    0.6177280571E+00    0.4994860583E-02    0.9574742773E-01    0.9146386076E-03    0.5806342564E+00
    0.1000000000E+04    0.4439433168E+00    0.2060570743E-01    0.9345422171E-01    0.3816482818E-02    0.5590885501E+00
    0.3000000000E+04    0.5810238794E+00    0.8087406705E-02    0.9548289025E-01    0.1532665286E-02    0.5765704008E+00
    0.5000000000E+04    0.6189383151E+00    0.4898761010E-02    0.9575313657E-01    0.8950664492E-03    0.5807712624E+00
    0.7000000000E+04    0.6361372277E+00    0.3583131655E-02    0.9580112535E-01    0.6256168408E-03    0.5827778875E+00
    0.9000000000E+04    0.6458500422E+00    0.2883940774E-02    0.9578818444E-01    0.4823061336E-03    0.5839919953E+00
    0.1100000000E+05    0.6520629915E+00    0.2452840823E-02    0.9575403714E-01    0.3948112436E-03    0.5848228035E+00
    0.1300000000E+05    0.6563696305E+00    0.2160141397E-02    0.9571212266E-01    0.3362949145E-03    0.5854360600E+00
    0.1500000000E+05    0.6595269639E+00    0.1947653867E-02    0.9566780347E-01    0.2945545940E-03    0.5859125585E+00
    0.1700000000E+05    0.6619393011E+00    0.1785683629E-02    0.9562341882E-01    0.2633232804E-03    0.5862967485E+00
    0.1900000000E+05    0.6638417472E+00    0.1657579295E-02    0.9558002584E-01    0.2390804124E-03    0.5866152765E+00
    0.2100000000E+05    0.6653801426E+00    0.1553306543E-02    0.9553809115E-01    0.2197073829E-03    0.5868851753E+00
    0.2300000000E+05    0.6666496722E+00    0.1466465475E-02    0.9549779453E-01    0.2038578469E-03    0.5871178907E+00
    0.2500000000E+05    0.6677150619E+00    0.1392782706E-02    0.9545917242E-01    0.1906375313E-03    0.5873214275E+00
    0.2700000000E+05    0.6686218397E+00    0.1329294902E-02    0.9542218939E-01    0.1794302907E-03    0.5875015702E+00
    0.2900000000E+05    0.6694029520E+00    0.1273881100E-02    0.9538677510E-01    0.1697983298E-03    0.5876626149E+00
    0.3100000000E+05    0.6700828225E+00    0.1224981929E-02    0.9535284393E-01    0.1614223006E-03    0.5878078265E+00
    0.3300000000E+05    0.6706799380E+00    0.1181424148E-02    0.9532030554E-01    0.1540639190E-03    0.5879397364E+00
    0.3500000000E+05    0.6712085466E+00    0.1142307201E-02    0.9528907041E-01    0.1475418437E-03    0.5880603409E+00
    0.3700000000E+05    0.6716798054E+00    0.1106927629E-02    0.9525905275E-01    0.1417156544E-03    0.5881712387E+00
    0.3900000000E+05    0.6721025754E+00    0.1074727388E-02    0.9523017190E-01    0.1364749355E-03    0.5882737269E+00
    0.4100000000E+05    0.6724839820E+00    0.1045257682E-02    0.9520235286E-01    0.1317316681E-03    0.5883688702E+00
    0.4300000000E+05    0.6728298206E+00    0.1018153133E-02    0.9517552631E-01    0.1274148209E-03    0.5884575526E+00
    0.4500000000E+05    0.6731448524E+00    0.9931129895E-03    0.9514962844E-01    0.1234664337E-03    0.5885405142E+00
    0.4700000000E+05    0.6734330251E+00    0.9698872273E-03    0.9512460064E-01    0.1198387356E-03    0.5886183807E+00
    0.4900000000E+05    0.6736976398E+00    0.9482661153E-03    0.9510038911E-01    0.1164919930E-03    0.5886916848E+00
    0.1000000000E+05    0.6492652956E+00    0.2645524459E-02    0.9577262924E-01    0.4337750963E-03    0.5844420069E+00
    0.3000000000E+05    0.6697542711E+00    0.1248698004E-02    0.9536962974E-01    0.1654697846E-03    0.5877370271E+00
    0.5000000000E+05    0.6738219995E+00    0.9380007865E-03    0.9508857385E-01    0.1149133518E-03    0.5887267713E+00
    0.7000000000E+05    0.6755630228E+00    0.7853806269E-03    0.9488509168E-01    0.9224724556E-04    0.5892721268E+00
    0.9000000000E+05    0.6765313451E+00    0.6902604741E-03    0.9472609591E-01    0.7889784620E-04    0.5896384651E+00
    0.1100000000E+06    0.6771488343E+00    0.6236054920E-03    0.9459566544E-01    0.6989939877E-04    0.5899105106E+00
    0.1300000000E+06    0.6775773989E+00    0.5735030334E-03    0.9448509278E-01    0.6332580072E-04    0.5901251513E+00
    0.1500000000E+06    0.6778925285E+00    0.5340374146E-03    0.9438911937E-01    0.5826067634E-04    0.5903014977E+00
    0.1700000000E+06    0.6781341801E+00    0.5018908294E-03    0.9430433069E-01    0.5420716096E-04    0.5904506330E+00
    0.1900000000E+06    0.6783254924E+00    0.4750376781E-03    0.9422838516E-01    0.5087011265E-04    0.5905795172E+00
    0.2100000000E+06    0.6784807967E+00    0.4521611860E-03    0.9415960741E-01    0.4806198449E-04    0.5906927879E+00
    0.2300000000E+06    0.6786094463E+00    0.4323629291E-03    0.9409675747E-01    0.4565725046E-04    0.5907936803E+00
    0.2500000000E+06    0.6787178065E+00    0.4150058720E-03    0.9403889185E-01    0.4356836051E-04    0.5908845355E+00
    0.2700000000E+06    0.6788103612E+00    0.3996239276E-03    0.9398527601E-01    0.4173216990E-04    0.5909670987E+00
    0.2900000000E+06    0.6788903601E+00    0.3858670776E-03    0.9393532683E-01    0.4010185205E-04    0.5910427042E+00
    0.3100000000E+06    0.6789602172E+00    0.3734666162E-03    0.9388857366E-01    0.3864185812E-04    0.5911123933E+00
    0.3300000000E+06    0.6790217630E+00    0.3622123362E-03    0.9384463114E-01    0.3732465511E-04    0.5911769935E+00
    0.3500000000E+06    0.6790764113E+00    0.3519370875E-03    0.9380317970E-01    0.3612854612E-04    0.5912371730E+00
    0.3700000000E+06    0.6791252713E+00    0.3425060472E-03    0.9376395146E-01    0.3503617309E-04    0.5912934784E+00
    0.3900000000E+06    0.6791692259E+00    0.3338090894E-03    0.9372671955E-01    0.3403346314E-04    0.5913463625E+00
    0.4100000000E+06    0.6792089862E+00    0.3257552499E-03    0.9369129022E-01    0.3310887141E-04    0.5913962042E+00
    0.4300000000E+06    0.6792451320E+00    0.3182686354E-03    0.9365749665E-01    0.3225282649E-04    0.5914433238E+00
    0.4500000000E+06    0.6792781403E+00    0.3112853542E-03    0.9362519418E-01    0.3145731759E-04    0.5914879941E+00
    0.4700000000E+06    0.6793084075E+00    0.3047511780E-03    0.9359425654E-01    0.3071558239E-04    0.5915304497E+00
    0.4900000000E+06    0.6793362656E+00    0.2986197376E-03    0.9356457288E-01    0.3002186792E-04    0.5915708933E+00
    0.1000000000E+06    0.6768707844E+00    0.6543265812E-03    0.9465796330E-01    0.7401057196E-04    0.5897833647E+00
    0.3000000000E+06    0.6789264306E+00    0.3795115983E-03    0.9391157657E-01    0.3935244365E-04    0.5910782323E+00
    0.5000000000E+06    0.6793493806E+00    0.2956923490E-03    0.9355017026E-01    0.2969145012E-04    0.5915904167E+00
    0.7000000000E+06    0.6795347914E+00    0.2509848345E-03    0.9330925240E-01    0.2470934127E-04    0.5919082141E+00
    0.9000000000E+06    0.6796398108E+00    0.2220910247E-03    0.9312822316E-01    0.2155510947E-04    0.5921376052E+00
    0.1100000000E+07    0.6797078004E+00    0.2014381561E-03    0.9298314626E-01    0.1933356754E-04    0.5923166195E+00
    0.1300000000E+07    0.6797556109E+00    0.1857226582E-03    0.9286207747E-01    0.1766244185E-04    0.5924631664E+00
    0.1500000000E+07    0.6797911799E+00    0.1732416851E-03    0.9275818733E-01    0.1634768729E-04    0.5925870826E+00
    0.1700000000E+07    0.6798187466E+00    0.1630161611E-03    0.9266720170E-01    0.1527905848E-04    0.5926943417E+00
    0.1900000000E+07    0.6798407852E+00    0.1544377151E-03    0.9258626691E-01    0.1438871631E-04    0.5927888386E+00
    0.2100000000E+07    0.6798588391E+00    0.1471056724E-03    0.9251338255E-01    0.1363234773E-04    0.5928732513E+00
    0.2300000000E+07    0.6798739224E+00    0.1407439103E-03    0.9244709181E-01    0.1297963098E-04    0.5929494994E+00
    0.2500000000E+07    0.6798867292E+00    0.1351550963E-03    0.9238630078E-01    0.1240903160E-04    0.5930190042E+00
    0.2700000000E+07    0.6798977515E+00    0.1301939367E-03    0.9233016705E-01    0.1190478232E-04    0.5930828478E+00
    0.2900000000E+07    0.6799073478E+00    0.1257507540E-03    0.9227802811E-01    0.1145504078E-04    0.5931418722E+00
    0.3100000000E+07    0.6799157855E+00    0.1217409873E-03    0.9222935345E-01    0.1105071843E-04    0.5931967457E+00
    0.3300000000E+07    0.6799232686E+00    0.1180982449E-03    0.9218371171E-01    0.1068470960E-04    0.5932480070E+00
    0.3500000000E+07    0.6799299555E+00    0.1147695716E-03    0.9214074738E-01    0.1035136870E-04    0.5932960970E+00
    0.3700000000E+07    0.6799359706E+00    0.1117121404E-03    0.9210016402E-01    0.1004614650E-04    0.5933413810E+00
    0.3900000000E+07    0.6799414139E+00    0.1088908891E-03    0.9206171184E-01    0.9765331131E-05    0.5933841646E+00
    0.4100000000E+07    0.6799463658E+00    0.1062767979E-03    0.9202517840E-01    0.9505860175E-05    0.5934247067E+00
    0.4300000000E+07    0.6799508923E+00    0.1038456122E-03    0.9199038152E-01    0.9265181741E-05    0.5934632277E+00
    0.4500000000E+07    0.6799550481E+00    0.1015768811E-03    0.9195716381E-01    0.9041150200E-05    0.5934999176E+00
    0.4700000000E+07    0.6799588785E+00    0.9945322256E-04    0.9192538831E-01    0.8831946785E-05    0.5935349407E+00
    0.4900000000E+07    0.6799624218E+00    0.9745975505E-04    0.9189493517E-01    0.8636018349E-05    0.5935684403E+00
    0.1000000000E+07    0.6796770687E+00    0.2109952811E-03    0.9305210403E-01    0.2035807292E-04    0.5922320220E+00
    0.3000000000E+07    0.6799116974E+00    0.1236962051E-03    0.9225328672E-01    0.1124768572E-04    0.5931697915E+00
    0.5000000000E+07    0.6799640960E+00    0.9650776484E-04    0.9188017102E-01    0.8542607542E-05    0.5935846587E+00
    0.7000000000E+07    0.6799882720E+00    0.8195247566E-04    0.9163424174E-01    0.7127616235E-05    0.5938527857E+00
    0.9000000000E+07    0.6800025153E+00    0.7253223943E-04    0.9145055552E-01    0.6226128844E-05    0.5940508343E+00
    0.1100000000E+08    0.6800120408E+00    0.6579398576E-04    0.9130391639E-01    0.5588982172E-05    0.5942077707E+00
    0.1300000000E+08    0.6800189280E+00    0.6066449218E-04    0.9118187803E-01    0.5108636279E-05    0.5943376758E+00
    0.1500000000E+08    0.6800241784E+00    0.5658967488E-04    0.9107737163E-01    0.4730152752E-05    0.5944484578E+00
    0.1700000000E+08    0.6800283371E+00    0.5325063686E-04    0.9098599480E-01    0.4422185207E-05    0.5945450005E+00
    0.1900000000E+08    0.6800317277E+00    0.5044909065E-04    0.9090481930E-01    0.4165385928E-05    0.5946305308E+00
    0.2100000000E+08    0.6800345556E+00    0.4805438103E-04    0.9083179852E-01    0.3947088019E-05    0.5947072919E+00
    0.2300000000E+08    0.6800369574E+00    0.4597643587E-04    0.9076544570E-01    0.3758608702E-05    0.5947769059E+00
    0.2500000000E+08    0.6800390280E+00    0.4415086727E-04    0.9070464672E-01    0.3593772824E-05    0.5948405838E+00
    0.2700000000E+08    0.6800408355E+00    0.4253025714E-04    0.9064854516E-01    0.3448053847E-05    0.5948992532E+00
