  Pressure (Pa) 22mC5-400 (mol/kg) 2mC6-400 (mol/kg) 3mC6-400 (mol/kg) 33mC5-400 (mol/kg) C7-400 (mol/kg)
    0.1000000000E+01    0.1591105613E-02    0.1592384766E-02    0.2113411140E-02    0.6482724151E-03    0.1714700850E-02
    0.3000000000E+01    0.4730664201E-02    0.4689127170E-02    0.6236720133E-02    0.1909086804E-02    0.5060487971E-02
    0.5000000000E+01    0.7814896135E-02    0.7673341338E-02    0.1022781691E-01    0.3124225488E-02    0.8299471974E-02
    0.7000000000E+01    0.1084558196E-01    0.1055050892E-01    0.1409326029E-01    0.4295913141E-02    0.1143694374E-01
    0.9000000000E+01    0.1382442435E-01    0.1332576381E-01    0.1783917764E-01    0.5426233178E-02    0.1447784639E-01
    0.1100000000E+02    0.1675305232E-01    0.1600391944E-01    0.2147129992E-01    0.6517138863E-02    0.1742680345E-01
    0.1300000000E+02    0.1963302516E-01    0.1858949355E-01    0.2499499333E-01    0.7570463371E-02    0.2028814443E-01
    0.1500000000E+02    0.2246583620E-01    0.2108673069E-01    0.2841528798E-01    0.8587928931E-02    0.2306592784E-01
    0.1700000000E+02    0.2525291622E-01    0.2349962266E-01    0.3173690387E-01    0.9571155135E-02    0.2576396222E-01
    0.1900000000E+02    0.2799563675E-01    0.2583192710E-01    0.3496427456E-01    0.1052166651E-01    0.2838582514E-01
    0.2100000000E+02    0.3069531306E-01    0.2808718452E-01    0.3810156861E-01    0.1144089942E-01    0.3093488051E-01
    0.2300000000E+02    0.3335320711E-01    0.3026873382E-01    0.4115270920E-01    0.1233020837E-01    0.3341429438E-01
    0.2500000000E+02    0.3597053016E-01    0.3237972646E-01    0.4412139197E-01    0.1319087178E-01    0.3582704933E-01
    0.2700000000E+02    0.3854844536E-01    0.3442313947E-01    0.4701110140E-01    0.1402409728E-01    0.3817595763E-01
    0.2900000000E+02    0.4108807009E-01    0.3640178742E-01    0.4982512567E-01    0.1483102652E-01    0.4046367331E-01
    0.3100000000E+02    0.4359047825E-01    0.3831833334E-01    0.5256657041E-01    0.1561273968E-01    0.4269270313E-01
    0.3300000000E+02    0.4605670231E-01    0.4017529880E-01    0.5523837124E-01    0.1637025952E-01    0.4486541677E-01
    0.3500000000E+02    0.4848773533E-01    0.4197507323E-01    0.5784330528E-01    0.1710455514E-01    0.4698405606E-01
    0.3700000000E+02    0.5088453284E-01    0.4371992243E-01    0.6038400179E-01    0.1781654553E-01    0.4905074358E-01
    0.3900000000E+02    0.5324801461E-01    0.4541199647E-01    0.6286295190E-01    0.1850710266E-01    0.5106749049E-01
    0.4100000000E+02    0.5557906630E-01    0.4705333702E-01    0.6528251761E-01    0.1917705456E-01    0.5303620382E-01
    0.4300000000E+02    0.5787854104E-01    0.4864588405E-01    0.6764494012E-01    0.1982718798E-01    0.5495869313E-01
    0.4500000000E+02    0.6014726095E-01    0.5019148213E-01    0.6995234748E-01    0.2045825096E-01    0.5683667669E-01
    0.4700000000E+02    0.6238601852E-01    0.5169188616E-01    0.7220676166E-01    0.2107095516E-01    0.5867178725E-01
    0.4900000000E+02    0.6459557793E-01    0.5314876679E-01    0.7441010515E-01    0.2166597807E-01    0.6046557726E-01
    0.1000000000E+02    0.1529491609E-01    0.1467669002E-01    0.1966911958E-01    0.5976495538E-02    0.1596354092E-01
    0.3000000000E+02    0.4234386077E-01    0.3736766233E-01    0.5120473316E-01    0.1522496989E-01    0.4158537275E-01
    0.5000000000E+02    0.6568963972E-01    0.5386138610E-01    0.7549320045E-01    0.2195706192E-01    0.6134744146E-01
    0.7000000000E+02    0.8620420042E-01    0.6617804902E-01    0.9487437620E-01    0.2699209680E-01    0.7713884607E-01
    0.9000000000E+02    0.1044964877E+00    0.7555905221E-01    0.1107688093E+00    0.3083346857E-01    0.9010703923E-01
    0.1100000000E+03    0.1210052457E+00    0.8280848442E-01    0.1240903828E+00    0.3380724395E-01    0.1009905647E+00
    0.1300000000E+03    0.1360550625E+00    0.8846922840E-01    0.1354546838E+00    0.3613360538E-01    0.1102871342E+00
    0.1500000000E+03    0.1498915928E+00    0.9292032398E-01    0.1452921655E+00    0.3796633197E-01    0.1183449349E+00
    0.1700000000E+03    0.1627044615E+00    0.9643386514E-01    0.1539133086E+00    0.3941586332E-01    0.1254152233E+00
    0.1900000000E+03    0.1746426033E+00    0.9920979065E-01    0.1615479939E+00    0.4056339846E-01    0.1316841131E+00
    0.2100000000E+03    0.1858248033E+00    0.1013979766E+00    0.1683702750E+00    0.4146984708E-01    0.1372925815E+00
    0.2300000000E+03    0.1963471063E+00    0.1031127222E+00    0.1745145082E+00    0.4218169792E-01    0.1423494997E+00
    0.2500000000E+03    0.2062881318E+00    0.1044425129E+00    0.1800861731E+00    0.4273497378E-01    0.1469403761E+00
    0.2700000000E+03    0.2157129547E+00    0.1054567603E+00    0.1851693190E+00    0.4315796163E-01    0.1511333756E+00
    0.2900000000E+03    0.2246759860E+00    0.1062105538E+00    0.1898318090E+00    0.4347313744E-01    0.1549835591E+00
    0.3100000000E+03    0.2332231421E+00    0.1067480725E+00    0.1941290868E+00    0.4369854873E-01    0.1585359297E+00
    0.3300000000E+03    0.2413935008E+00    0.1071050783E+00    0.1981069322E+00    0.4384882439E-01    0.1618276617E+00
    0.3500000000E+03    0.2492205801E+00    0.1073107626E+00    0.2018035087E+00    0.4393592330E-01    0.1648897580E+00
    0.3700000000E+03    0.2567333376E+00    0.1073891346E+00    0.2052509087E+00    0.4396969691E-01    0.1677482997E+00
    0.3900000000E+03    0.2639569590E+00    0.1073600763E+00    0.2084763337E+00    0.4395831729E-01    0.1704254024E+00
    0.4100000000E+03    0.2709134862E+00    0.1072401550E+00    0.2115030078E+00    0.4390860637E-01    0.1729399553E+00
    0.4300000000E+03    0.2776223224E+00    0.1070432537E+00    0.2143508912E+00    0.4382629188E-01    0.1753081998E+00
    0.4500000000E+03    0.2841006408E+00    0.1067810661E+00    0.2170372455E+00    0.4371620821E-01    0.1775441868E+00
    0.4700000000E+03    0.2903637186E+00    0.1064634878E+00    0.2195770828E+00    0.4358245536E-01    0.1796601409E+00
    0.4900000000E+03    0.2964252115E+00    0.1060989287E+00    0.2219835281E+00    0.4342852578E-01    0.1816667544E+00
    0.1000000000E+03    0.1129513339E+00    0.7941156440E-01    0.1177073757E+00    0.3241313129E-01    0.9577395528E-01
    0.3000000000E+03    0.2289989624E+00    0.1065039393E+00    0.1920230386E+00    0.4359607905E-01    0.1567944859E+00
    0.5000000000E+03    0.2993842444E+00    0.1059013160E+00    0.2231403878E+00    0.4334494550E-01    0.1826320402E+00
    0.7000000000E+03    0.3503982915E+00    0.1007591230E+00    0.2414538365E+00    0.4114818377E-01    0.1979747715E+00
    0.9000000000E+03    0.3900233578E+00    0.9500222355E-01    0.2539534791E+00    0.3865343583E-01    0.2085262404E+00
    0.1100000000E+04    0.4219237990E+00    0.8957222803E-01    0.2632241087E+00    0.3627291199E-01    0.2164038033E+00
    0.1300000000E+04    0.4481875904E+00    0.8468869243E-01    0.2704749843E+00    0.3411197412E-01    0.2226015731E+00
    0.1500000000E+04    0.4701603052E+00    0.8036200025E-01    0.2763591734E+00    0.3218338792E-01    0.2276581947E+00
    0.1700000000E+04    0.4887753129E+00    0.7654095435E-01    0.2812654340E+00    0.3047058914E-01    0.2318952938E+00
    0.1900000000E+04    0.5047108959E+00    0.7316070297E-01    0.2854420975E+00    0.2894902599E-01    0.2355189066E+00
    0.2100000000E+04    0.5184756897E+00    0.7015879752E-01    0.2890565107E+00    0.2759375670E-01    0.2386682506E+00
    0.2300000000E+04    0.5304598585E+00    0.6748007974E-01    0.2922262817E+00    0.2638205691E-01    0.2414414130E+00
    0.2500000000E+04    0.5409679466E+00    0.6507750811E-01    0.2950369078E+00    0.2529411670E-01    0.2439098709E+00
    0.2700000000E+04    0.5502410402E+00    0.6291155559E-01    0.2975522980E+00    0.2431300526E-01    0.2461271748E+00
    0.2900000000E+04    0.5584722714E+00    0.6094919030E-01    0.2998213521E+00    0.2342437659E-01    0.2481343877E+00
    0.3100000000E+04    0.5658179627E+00    0.5916282598E-01    0.3018822349E+00    0.2261610988E-01    0.2499636244E+00
    0.3300000000E+04    0.5724058096E+00    0.5752937875E-01    0.3037652452E+00    0.2187796169E-01    0.2516404315E+00
    0.3500000000E+04    0.5783409917E+00    0.5602946622E-01    0.3054947966E+00    0.2120125742E-01    0.2531854329E+00
    0.3700000000E+04    0.5837108018E+00    0.5464674530E-01    0.3070908189E+00    0.2057862842E-01    0.2546154954E+00
    0.3900000000E+04    0.5885881954E+00    0.5336737187E-01    0.3085697696E+00    0.2000379242E-01    0.2559445724E+00
    0.4100000000E+04    0.5930345414E+00    0.5217956228E-01    0.3099453794E+00    0.1947137205E-01    0.2571843252E+00
    0.4300000000E+04    0.5971017749E+00    0.5107323820E-01    0.3112292100E+00    0.1897674555E-01    0.2583445894E+00
    0.4500000000E+04    0.6008340958E+00    0.5003973848E-01    0.3124310778E+00    0.1851592410E-01    0.2594337295E+00
    0.4700000000E+04    0.6042693203E+00    0.4907158512E-01    0.3135593804E+00    0.1808545096E-01    0.2604589124E+00
    0.4900000000E+04    0.6074399644E+00    0.4816229228E-01    0.3146213512E+00    0.1768231837E-01    0.2614263208E+00
    0.1000000000E+04    0.4067853571E+00    0.9222471038E-01    0.2588983485E+00    0.3743885786E-01    0.2127219986E+00
    0.3000000000E+04    0.5622472377E+00    0.6003554619E-01    0.3008757636E+00    0.2301087837E-01    0.2490695246E+00
    0.5000000000E+04    0.6089349993E+00    0.4772792399E-01    0.3151294546E+00    0.1749017052E-01    0.2618900647E+00
    0.7000000000E+04    0.6300828464E+00    0.4108157823E-01    0.3229690932E+00    0.1459294169E-01    0.2691274629E+00
    0.9000000000E+04    0.6418576529E+00    0.3677214017E-01    0.3281028088E+00    0.1276959161E-01    0.2739684198E+00
    0.1100000000E+05    0.6492745003E+00    0.3367664503E-01    0.3317942207E+00    0.1149359766E-01    0.2775138548E+00
    0.1300000000E+05    0.6543429936E+00    0.3130622482E-01    0.3346096269E+00    0.1053780678E-01    0.2802627123E+00
    0.1500000000E+05    0.6580121294E+00    0.2941057947E-01    0.3368460849E+00    0.9787559287E-02    0.2824792859E+00
    0.1700000000E+05    0.6607843843E+00    0.2784653952E-01    0.3386764828E+00    0.9178291896E-02    0.2843187498E+00
    0.1900000000E+05    0.6629492197E+00    0.2652539873E-01    0.3402091974E+00    0.8670621208E-02    0.2858791619E+00
    0.2100000000E+05    0.6646845353E+00    0.2538878785E-01    0.3415160731E+00    0.8239015021E-02    0.2872260123E+00
    0.2300000000E+05    0.6661054143E+00    0.2439645906E-01    0.3426468644E+00    0.7866110585E-02    0.2884049736E+00
    0.2500000000E+05    0.6672894635E+00    0.2351960213E-01    0.3436372614E+00    0.7539637889E-02    0.2894490245E+00
    0.2700000000E+05    0.6682908479E+00    0.2273695426E-01    0.3445136166E+00    0.7250647857E-02    0.2903826686E+00
    0.2900000000E+05    0.6691484811E+00    0.2203241893E-01    0.3452958651E+00    0.6992439235E-02    0.2912245538E+00
    0.3100000000E+05    0.6698910166E+00    0.2139354622E-01    0.3459994015E+00    0.6759880707E-02    0.2919891628E+00
    0.3300000000E+05    0.6705400070E+00    0.2081052818E-01    0.3466363263E+00    0.6548967161E-02    0.2926879428E+00
    0.3500000000E+05    0.6711119665E+00    0.2027551438E-01    0.3472162988E+00    0.6356520213E-02    0.2933300798E+00
    0.3700000000E+05    0.6716197566E+00    0.1978213336E-01    0.3477471350E+00    0.6179980679E-02    0.2939230451E+00
    0.3900000000E+05    0.6720735390E+00    0.1932515025E-01    0.3482352355E+00    0.6017261394E-02    0.2944729873E+00
    0.4100000000E+05    0.6724814470E+00    0.1890021706E-01    0.3486858982E+00    0.5866640678E-02    0.2949850206E+00
    0.4300000000E+05    0.6728500654E+00    0.1850368712E-01    0.3491035506E+00    0.5726683814E-02    0.2954634387E+00
    0.4500000000E+05    0.6731847811E+00    0.1813247511E-01    0.3494919249E+00    0.5596184232E-02    0.2959118778E+00
    0.4700000000E+05    0.6734900431E+00    0.1778394994E-01    0.3498541924E+00    0.5474118793E-02    0.2963334409E+00
    0.4900000000E+05    0.6737695575E+00    0.1745585170E-01    0.3501930665E+00    0.5359613359E-02    0.2967307949E+00
    0.1000000000E+05    0.6459483367E+00    0.3511131732E-01    0.3300843441E+00    0.1208120623E-01    0.2758640177E+00
    0.3000000000E+05    0.6695326508E+00    0.2170544042E-01    0.3456566504E+00    0.6873226366E-02    0.2916157417E+00
    0.5000000000E+05    0.6739006514E+00    0.1729884163E-01    0.3503544743E+00    0.5304956489E-02    0.2969211268E+00
    0.7000000000E+05    0.6757164721E+00    0.1487094702E-01    0.3527822814E+00    0.4471281410E-02    0.2998822386E+00
    0.9000000000E+05    0.6767085457E+00    0.1327068000E-01    0.3543029932E+00    0.3933714168E-02    0.3018587078E+00
    0.1100000000E+06    0.6773331702E+00    0.1211115323E-01    0.3553581289E+00    0.3550254818E-02    0.3033085986E+00
    0.1300000000E+06    0.6777624067E+00    0.1121980745E-01    0.3561386562E+00    0.3259036880E-02    0.3044365306E+00
    0.1500000000E+06    0.6780754662E+00    0.1050623989E-01    0.3567420322E+00    0.3028192523E-02    0.3053499179E+00
    0.1700000000E+06    0.6783138658E+00    0.9917812314E-02    0.3572237133E+00    0.2839408317E-02    0.3061114601E+00
    0.1900000000E+06    0.6785014565E+00    0.9421481777E-02    0.3576178029E+00    0.2681310380E-02    0.3067606291E+00
    0.2100000000E+06    0.6786529123E+00    0.8995301067E-02    0.3579465331E+00    0.2546411647E-02    0.3073237249E+00
    0.2300000000E+06    0.6787777550E+00    0.8624036307E-02    0.3582250719E+00    0.2429555227E-02    0.3078190633E+00
    0.2500000000E+06    0.6788824324E+00    0.8296732769E-02    0.3584641531E+00    0.2327057804E-02    0.3082598609E+00
    0.2700000000E+06    0.6789714655E+00    0.8005280687E-02    0.3586716048E+00    0.2236208994E-02    0.3086559362E+00
    0.2900000000E+06    0.6790481182E+00    0.7743528769E-02    0.3588532807E+00    0.2154964065E-02    0.3090147636E+00
    0.3100000000E+06    0.6791148056E+00    0.7506713969E-02    0.3590136528E+00    0.2081747517E-02    0.3093421511E+00
    0.3300000000E+06    0.6791733531E+00    0.7291082167E-02    0.3591562009E+00    0.2015323163E-02    0.3096426932E+00
    0.3500000000E+06    0.6792251660E+00    0.7093628459E-02    0.3592836760E+00    0.1954705624E-02    0.3099200805E+00
    0.3700000000E+06    0.6792713437E+00    0.6911914863E-02    0.3593982839E+00    0.1899098501E-02    0.3101773183E+00
    0.3900000000E+06    0.6793127587E+00    0.6743939529E-02    0.3595018153E+00    0.1847850210E-02    0.3104168827E+00
    0.4100000000E+06    0.6793501122E+00    0.6588041090E-02    0.3595957399E+00    0.1800421805E-02    0.3106408361E+00
    0.4300000000E+06    0.6793839742E+00    0.6442827492E-02    0.3596812760E+00    0.1756363130E-02    0.3108509128E+00
    0.4500000000E+06    0.6794148128E+00    0.6307122230E-02    0.3597594425E+00    0.1715294865E-02    0.3110485833E+00
    0.4700000000E+06    0.6794430159E+00    0.6179923162E-02    0.3598310989E+00    0.1676894818E-02    0.3112351046E+00
    0.4900000000E+06    0.6794689078E+00    0.6060370561E-02    0.3598969749E+00    0.1640887322E-02    0.3114115587E+00
    0.1000000000E+06    0.6770527532E+00    0.1264937961E-01    0.3548736417E+00    0.3727606270E-02    0.3026334093E+00
    0.3000000000E+06    0.6790825819E+00    0.7622259006E-02    0.3589358926E+00    0.2117436262E-02    0.3091820759E+00
    0.5000000000E+06    0.6794810742E+00    0.6003225685E-02    0.3599279438E+00    0.1623705279E-02    0.3114963085E+00
    0.7000000000E+06    0.6796512425E+00    0.5125279932E-02    0.3603566382E+00    0.1362209894E-02    0.3128362004E+00
    0.9000000000E+06    0.6797456991E+00    0.4552734357E-02    0.3605796953E+00    0.1194374078E-02    0.3137569585E+00
    0.1100000000E+07    0.6798058157E+00    0.4141038119E-02    0.3607054266E+00    0.1075141735E-02    0.3144489115E+00
    0.1300000000E+07    0.6798474591E+00    0.3826396328E-02    0.3607780605E+00    0.9849042257E-03    0.3149984375E+00
    0.1500000000E+07    0.6798780223E+00    0.3575667465E-02    0.3608190025E+00    0.9135843866E-03    0.3154515328E+00
    0.1700000000E+07    0.6799014161E+00    0.3369686054E-02    0.3608398298E+00    0.8554060627E-03    0.3158353970E+00
    0.1900000000E+07    0.6799199035E+00    0.3196489398E-02    0.3608473168E+00    0.8067909012E-03    0.3161673580E+00
    0.2100000000E+07    0.6799348852E+00    0.3048169959E-02    0.3608456671E+00    0.7653889694E-03    0.3164590882E+00
    0.2300000000E+07    0.6799472745E+00    0.2919261637E-02    0.3608376099E+00    0.7295852515E-03    0.3167187995E+00
    0.2500000000E+07    0.6799576926E+00    0.2805847865E-02    0.3608249825E+00    0.6982285567E-03    0.3169524738E+00
    0.2700000000E+07    0.6799665769E+00    0.2705038397E-02    0.3608090581E+00    0.6704733561E-03    0.3171645946E+00
    0.2900000000E+07    0.6799742438E+00    0.2614647138E-02    0.3607907403E+00    0.6456828739E-03    0.3173586035E+00
    0.3100000000E+07    0.6799809285E+00    0.2532985635E-02    0.3607706834E+00    0.6233672437E-03    0.3175371962E+00
    0.3300000000E+07    0.6799868091E+00    0.2458726124E-02    0.3607493689E+00    0.6031426662E-03    0.3177025208E+00
    0.3500000000E+07    0.6799920230E+00    0.2390808028E-02    0.3607271563E+00    0.5847036294E-03    0.3178563153E+00
    0.3700000000E+07    0.6799966780E+00    0.2328372495E-02    0.3607043170E+00    0.5678035282E-03    0.3180000045E+00
    0.3900000000E+07    0.6800008598E+00    0.2270715540E-02    0.3606810576E+00    0.5522408393E-03    0.3181347699E+00
    0.4100000000E+07    0.6800046373E+00    0.2217253853E-02    0.3606575371E+00    0.5378490622E-03    0.3182616017E+00
    0.4300000000E+07    0.6800080668E+00    0.2167499410E-02    0.3606338781E+00    0.5244892726E-03    0.3183813374E+00
    0.4500000000E+07    0.6800111944E+00    0.2121040321E-02    0.3606101760E+00    0.5120445223E-03    0.3184946913E+00
    0.4700000000E+07    0.6800140587E+00    0.2077526195E-02    0.3605865048E+00    0.5004155682E-03    0.3186022772E+00
    0.4900000000E+07    0.6800166915E+00    0.2036656797E-02    0.3605629224E+00    0.4895175732E-03    0.3187046264E+00
    0.1000000000E+07    0.6797787601E+00    0.4331804223E-02    0.3606511741E+00    0.1130231751E-02    0.3141247814E+00
    0.3000000000E+07    0.6799776967E+00    0.2572815344E-02    0.3607808958E+00    0.6342418002E-03    0.3174496816E+00
    0.5000000000E+07    0.6800179299E+00    0.2017131537E-02    0.3605511789E+00    0.4843194666E-03    0.3187539841E+00
    0.7000000000E+07    0.6800353388E+00    0.1717953332E-02    0.3603276285E+00    0.4053863765E-03    0.3195525527E+00
    0.9000000000E+07    0.6800450916E+00    0.1523646358E-02    0.3601294868E+00    0.3549035773E-03    0.3201228063E+00
    0.1100000000E+08    0.6800513444E+00    0.1384312637E-02    0.3599544802E+00    0.3191270002E-03    0.3205639978E+00
    0.1300000000E+08    0.6800557028E+00    0.1278040954E-02    0.3597985237E+00    0.2920992961E-03    0.3209226180E+00
    0.1500000000E+08    0.6800589192E+00    0.1193488525E-02    0.3596581114E+00    0.2707678197E-03    0.3212240578E+00
    0.1700000000E+08    0.6800613933E+00    0.1124113404E-02    0.3595304995E+00    0.2533867466E-03    0.3214836531E+00
    0.1900000000E+08    0.6800633573E+00    0.1065840877E-02    0.3594135670E+00    0.2388764825E-03    0.3217113533E+00
    0.2100000000E+08    0.6800649555E+00    0.1015982156E-02    0.3593056615E+00    0.2265291084E-03    0.3219139680E+00
    0.2300000000E+08    0.6800662823E+00    0.9726813172E-03    0.3592054792E+00    0.2158587145E-03    0.3220963561E+00
    0.2500000000E+08    0.6800674021E+00    0.9346102069E-03    0.3591119759E+00    0.2065193193E-03    0.3222621028E+00
    0.2700000000E+08    0.6800683604E+00    0.9007897676E-03    0.3590243049E+00    0.1982570471E-03    0.3224139263E+00
