  Pressure (Pa) 22mC5-400 (mol/kg) 2mC6-400 (mol/kg) 3mC6-400 (mol/kg) 33mC5-400 (mol/kg) C7-400 (mol/kg)
    0.1000000000E+01    0.1591505222E-02    0.1573377368E-02    0.5205860404E-03    0.3843802544E-03    0.1351694264E-01
    0.3000000000E+01    0.4734179641E-02    0.4529100750E-02    0.1493461908E-02    0.1106886057E-02    0.3878583865E-01
    0.5000000000E+01    0.7824443583E-02    0.7256518903E-02    0.2384935893E-02    0.1774134906E-02    0.6195067854E-01
    0.7000000000E+01    0.1086388234E-01    0.9782749343E-02    0.3204943005E-02    0.2392712958E-02    0.8326786039E-01
    0.9000000000E+01    0.1385401602E-01    0.1213062480E-01    0.3961859445E-02    0.2968162384E-02    0.1029535845E+00
    0.1100000000E+02    0.1679630293E-01    0.1431951292E-01    0.4662797066E-02    0.3505181466E-02    0.1211914431E+00
    0.1300000000E+02    0.1969214263E-01    0.1636595500E-01    0.5313833496E-02    0.4007780456E-02    0.1381383524E+00
    0.1500000000E+02    0.2254287890E-01    0.1828416845E-01    0.5920193753E-02    0.4479404173E-02    0.1539292347E+00
    0.1700000000E+02    0.2534980252E-01    0.2008644579E-01    0.6486394879E-02    0.4923029306E-02    0.1686807476E+00
    0.1900000000E+02    0.2811415383E-01    0.2178347418E-01    0.7016362084E-02    0.5341242297E-02    0.1824942781E+00
    0.2100000000E+02    0.3083712517E-01    0.2338459317E-01    0.7513522745E-02    0.5736302176E-02    0.1954583672E+00
    0.2300000000E+02    0.3351986325E-01    0.2489800432E-01    0.7980883028E-02    0.6110191620E-02    0.2076506855E+00
    0.2500000000E+02    0.3616347126E-01    0.2633094275E-01    0.8421090782E-02    0.6464658727E-02    0.2191396556E+00
    0.2700000000E+02    0.3876901095E-01    0.2768981843E-01    0.8836487474E-02    0.6801251418E-02    0.2299857914E+00
    0.2900000000E+02    0.4133750456E-01    0.2898033333E-01    0.9229151343E-02    0.7121345939E-02    0.2402428116E+00
    0.3100000000E+02    0.4386993664E-01    0.3020757900E-01    0.9600933459E-02    0.7426170599E-02    0.2499585696E+00
    0.3300000000E+02    0.4636725581E-01    0.3137611839E-01    0.9953488003E-02    0.7716825665E-02    0.2591758351E+00
    0.3500000000E+02    0.4883037635E-01    0.3249005473E-01    0.1028829782E-01    0.7994300105E-02    0.2679329534E+00
    0.3700000000E+02    0.5126017979E-01    0.3355308985E-01    0.1060669612E-01    0.8259485747E-02    0.2762644046E+00
    0.3900000000E+02    0.5365751633E-01    0.3456857371E-01    0.1090988489E-01    0.8513189322E-02    0.2842012803E+00
    0.4100000000E+02    0.5602320628E-01    0.3553954675E-01    0.1119895074E-01    0.8756142733E-02    0.2917716912E+00
    0.4300000000E+02    0.5835804131E-01    0.3646877616E-01    0.1147487844E-01    0.8989011859E-02    0.2990011168E+00
    0.4500000000E+02    0.6066278572E-01    0.3735878712E-01    0.1173856260E-01    0.9212404133E-02    0.3059127078E+00
    0.4700000000E+02    0.6293817766E-01    0.3821188976E-01    0.1199081782E-01    0.9426875076E-02    0.3125275465E+00
    0.4900000000E+02    0.6518493019E-01    0.3903020260E-01    0.1223238742E-01    0.9632933977E-02    0.3188648742E+00
    0.1000000000E+02    0.1533105151E-01    0.1324384867E-01    0.4318923850E-02    0.3241210528E-02    0.1122431246E+00
    0.3000000000E+02    0.4260816818E-01    0.2960156811E-01    0.9417544940E-02    0.7275595443E-02    0.2451655644E+00
    0.5000000000E+02    0.6629778291E-01    0.3942692753E-01    0.1234937984E-01    0.9732956647E-02    0.3219350299E+00
    0.7000000000E+02    0.8720724480E-01    0.4593386262E-01    0.1426586467E-01    0.1138760154E-01    0.3723329205E+00
    0.9000000000E+02    0.1059104704E+00    0.5046097543E-01    0.1562288140E-01    0.1256102979E-01    0.4081680384E+00
    0.1100000000E+03    0.1228270682E+00    0.5368990617E-01    0.1663772475E-01    0.1341683462E-01    0.4350772589E+00
    0.1300000000E+03    0.1382712990E+00    0.5601477063E-01    0.1742742751E-01    0.1404971489E-01    0.4561009442E+00
    0.1500000000E+03    0.1524834827E+00    0.5768373388E-01    0.1806075641E-01    0.1451945424E-01    0.4730281326E+00
    0.1700000000E+03    0.1656507793E+00    0.5886273191E-01    0.1858084763E-01    0.1486617072E-01    0.4869826574E+00
    0.1900000000E+03    0.1779213156E+00    0.5966771312E-01    0.1901617464E-01    0.1511801825E-01    0.4987073926E+00
    0.2100000000E+03    0.1894140198E+00    0.6018245273E-01    0.1938631663E-01    0.1529543809E-01    0.5087138778E+00
    0.2300000000E+03    0.2002256131E+00    0.6046908662E-01    0.1970519596E-01    0.1541367250E-01    0.5173663663E+00
    0.2500000000E+03    0.2104356747E+00    0.6057468096E-01    0.1998299381E-01    0.1548433332E-01    0.5249315994E+00
    0.2700000000E+03    0.2201103728E+00    0.6053550807E-01    0.2022733446E-01    0.1551642407E-01    0.5316096038E+00
    0.2900000000E+03    0.2293052564E+00    0.6037992791E-01    0.2044404513E-01    0.1551702977E-01    0.5375534679E+00
    0.3100000000E+03    0.2380673716E+00    0.6013038645E-01    0.2063765908E-01    0.1549179623E-01    0.5428824480E+00
    0.3300000000E+03    0.2464368875E+00    0.5980483556E-01    0.2081175814E-01    0.1544527138E-01    0.5476908978E+00
    0.3500000000E+03    0.2544483592E+00    0.5941776289E-01    0.2096921142E-01    0.1538115336E-01    0.5520544975E+00
    0.3700000000E+03    0.2621317197E+00    0.5898095222E-01    0.2111234538E-01    0.1530247419E-01    0.5560346946E+00
    0.3900000000E+03    0.2695130652E+00    0.5850405367E-01    0.2124306715E-01    0.1521173787E-01    0.5596819281E+00
    0.4100000000E+03    0.2766152850E+00    0.5799501709E-01    0.2136295561E-01    0.1511102567E-01    0.5630380099E+00
    0.4300000000E+03    0.2834585682E+00    0.5746042563E-01    0.2147332958E-01    0.1500207735E-01    0.5661379103E+00
    0.4500000000E+03    0.2900608166E+00    0.5690575518E-01    0.2157529961E-01    0.1488635461E-01    0.5690111155E+00
    0.4700000000E+03    0.2964379818E+00    0.5633557817E-01    0.2166980784E-01    0.1476509101E-01    0.5716826721E+00
    0.4900000000E+03    0.3026043445E+00    0.5575372515E-01    0.2175765897E-01    0.1463933175E-01    0.5741740007E+00
    0.1000000000E+03    0.1145704201E+00    0.5220856647E-01    0.1616423354E-01    0.1302163600E-01    0.4225088002E+00
    0.3000000000E+03    0.2337377546E+00    0.6026568865E-01    0.2054349623E-01    0.1550733620E-01    0.5402884212E+00
    0.5000000000E+03    0.3056125382E+00    0.5545944663E-01    0.2179930812E-01    0.1457504933E-01    0.5753579422E+00
    0.7000000000E+03    0.3572457883E+00    0.4951384675E-01    0.2240874638E-01    0.1321011802E-01    0.5929397381E+00
    0.9000000000E+03    0.3970223607E+00    0.4408218968E-01    0.2277142445E-01    0.1188954633E-01    0.6037212427E+00
    0.1100000000E+04    0.4288146752E+00    0.3941365227E-01    0.2301261652E-01    0.1071294710E-01    0.6110974612E+00
    0.1300000000E+04    0.4548275366E+00    0.3546296160E-01    0.2318470712E-01    0.9690360942E-02    0.6165055034E+00
    0.1500000000E+04    0.4764751906E+00    0.3212512244E-01    0.2331361568E-01    0.8807892516E-02    0.6206647223E+00
    0.1700000000E+04    0.4947321244E+00    0.2929489415E-01    0.2341368540E-01    0.8046436303E-02    0.6239776286E+00
    0.1900000000E+04    0.5103012446E+00    0.2688140750E-01    0.2349351697E-01    0.7387476080E-02    0.6266881718E+00
    0.2100000000E+04    0.5237057010E+00    0.2480996836E-01    0.2355858989E-01    0.6814757684E-02    0.6289533828E+00
    0.2300000000E+04    0.5353439057E+00    0.2302026795E-01    0.2361256481E-01    0.6314553923E-02    0.6308792206E+00
    0.2500000000E+04    0.5455247548E+00    0.2146386561E-01    0.2365798252E-01    0.5875458762E-02    0.6325399465E+00
    0.2700000000E+04    0.5544912753E+00    0.2010182764E-01    0.2369666288E-01    0.5488052844E-02    0.6339892558E+00
    0.2900000000E+04    0.5624370653E+00    0.1890274955E-01    0.2372994421E-01    0.5144565466E-02    0.6352670009E+00
    0.3100000000E+04    0.5695180327E+00    0.1784117205E-01    0.2375883298E-01    0.4838575019E-02    0.6364034241E+00
    0.3300000000E+04    0.5758609552E+00    0.1689633653E-01    0.2378410083E-01    0.4564757594E-02    0.6374219183E+00
    0.3500000000E+04    0.5815698291E+00    0.1605121430E-01    0.2380634943E-01    0.4318681341E-02    0.6383408815E+00
    0.3700000000E+04    0.5867306483E+00    0.1529175073E-01    0.2382605482E-01    0.4096640315E-02    0.6391749963E+00
    0.3900000000E+04    0.5914150449E+00    0.1460627554E-01    0.2384359865E-01    0.3895520940E-02    0.6399361323E+00
    0.4100000000E+04    0.5956830965E+00    0.1398504110E-01    0.2385929044E-01    0.3712694812E-02    0.6406339970E+00
    0.4300000000E+04    0.5995855092E+00    0.1341985918E-01    0.2387338383E-01    0.3545932574E-02    0.6412766114E+00
    0.4500000000E+04    0.6031653336E+00    0.1290381383E-01    0.2388608870E-01    0.3393334539E-02    0.6418706656E+00
    0.4700000000E+04    0.6064593230E+00    0.1243103299E-01    0.2389758014E-01    0.3253274613E-02    0.6424217871E+00
    0.4900000000E+04    0.6094990178E+00    0.1199650595E-01    0.2390800540E-01    0.3124354809E-02    0.6429347457E+00
    0.1000000000E+04    0.4137539764E+00    0.4165265975E-01    0.2290302335E-01    0.1128167428E-01    0.6077206240E+00
    0.3000000000E+04    0.5660771288E+00    0.1835616825E-01    0.2374488481E-01    0.4987238978E-02    0.6358512803E+00
    0.5000000000E+04    0.6109321539E+00    0.1179222054E-01    0.2391285794E-01    0.3063688689E-02    0.6431782102E+00
    0.7000000000E+04    0.6312061601E+00    0.8939524887E-02    0.2397609593E-01    0.2215027894E-02    0.6467781454E+00
    0.9000000000E+04    0.6425145394E+00    0.7369301395E-02    0.2400464943E-01    0.1750966600E-02    0.6489835533E+00
    0.1100000000E+05    0.6496573407E+00    0.6374695658E-02    0.2401801028E-01    0.1461560753E-02    0.6505002367E+00
    0.1300000000E+05    0.6545529061E+00    0.5684501955E-02    0.2402364139E-01    0.1264562530E-02    0.6516206695E+00
    0.1500000000E+05    0.6581069448E+00    0.5174288164E-02    0.2402496237E-01    0.1121885671E-02    0.6524897242E+00
    0.1700000000E+05    0.6607994168E+00    0.4779384375E-02    0.2402373351E-01    0.1013688101E-02    0.6531880542E+00
    0.1900000000E+05    0.6629071768E+00    0.4462952320E-02    0.2402093793E-01    0.9286886336E-03    0.6537644445E+00
    0.2100000000E+05    0.6646006357E+00    0.4202481816E-02    0.2401715857E-01    0.8600265808E-03    0.6542502960E+00
    0.2300000000E+05    0.6659902091E+00    0.3983434905E-02    0.2401275709E-01    0.8033004929E-03    0.6546668215E+00
    0.2500000000E+05    0.6671504759E+00    0.3795992996E-02    0.2400796585E-01    0.7555612626E-03    0.6550289181E+00
    0.2700000000E+05    0.6681335703E+00    0.3633276116E-02    0.2400293819E-01    0.7147605017E-03    0.6553473848E+00
    0.2900000000E+05    0.6689770041E+00    0.3490312582E-02    0.2399777747E-01    0.6794317083E-03    0.6556302606E+00
    0.3100000000E+05    0.6697084400E+00    0.3363414613E-02    0.2399255438E-01    0.6484975147E-03    0.6558836658E+00
    0.3300000000E+05    0.6703487146E+00    0.3249784790E-02    0.2398731780E-01    0.6211486144E-03    0.6561123509E+00
    0.3500000000E+05    0.6709138153E+00    0.3147259487E-02    0.2398210173E-01    0.5967651667E-03    0.6563200655E+00
    0.3700000000E+05    0.6714162094E+00    0.3054136645E-02    0.2397692982E-01    0.5748642900E-03    0.6565098130E+00
    0.3900000000E+05    0.6718657598E+00    0.2969057142E-02    0.2397181844E-01    0.5550640901E-03    0.6566840302E+00
    0.4100000000E+05    0.6722703699E+00    0.2890921213E-02    0.2396677876E-01    0.5370584599E-03    0.6568447177E+00
    0.4300000000E+05    0.6726364456E+00    0.2818828366E-02    0.2396181822E-01    0.5205990716E-03    0.6569935345E+00
    0.4500000000E+05    0.6729692335E+00    0.2752033406E-02    0.2395694155E-01    0.5054822761E-03    0.6571318698E+00
    0.4700000000E+05    0.6732730710E+00    0.2689913714E-02    0.2395215150E-01    0.4915394183E-03    0.6572608961E+00
    0.4900000000E+05    0.6735515751E+00    0.2631944549E-02    0.2394744939E-01    0.4786295726E-03    0.6573816111E+00
    0.1000000000E+05    0.6464514983E+00    0.6822167662E-02    0.2401262039E-01    0.1591118448E-02    0.6498046214E+00
    0.3000000000E+05    0.6693552866E+00    0.3425047592E-02    0.2399517025E-01    0.6634710720E-03    0.6557603230E+00
    0.5000000000E+05    0.6736822962E+00    0.2604374454E-02    0.2394513142E-01    0.4725241858E-03    0.6574391238E+00
    0.7000000000E+05    0.6755006645E+00    0.2191003924E-02    0.2390315570E-01    0.3836802931E-03    0.6583081595E+00
    0.9000000000E+05    0.6765018215E+00    0.1930310462E-02    0.2386818438E-01    0.3302596582E-03    0.6588614016E+00
    0.1100000000E+06    0.6771360496E+00    0.1746397485E-02    0.2383840299E-01    0.2937737941E-03    0.6592535934E+00
    0.1300000000E+06    0.6775741565E+00    0.1607562343E-02    0.2381251605E-01    0.2668780406E-03    0.6595506723E+00
    0.1500000000E+06    0.6778951458E+00    0.1497880492E-02    0.2378963525E-01    0.2460177855E-03    0.6597860680E+00
    0.1700000000E+06    0.6781405883E+00    0.1408349713E-02    0.2376913781E-01    0.2292407215E-03    0.6599787667E+00
    0.1900000000E+06    0.6783344467E+00    0.1333442157E-02    0.2375057379E-01    0.2153754576E-03    0.6601404544E+00
    0.2100000000E+06    0.6784915077E+00    0.1269548624E-02    0.2373360871E-01    0.2036716281E-03    0.6602787704E+00
    0.2300000000E+06    0.6786213925E+00    0.1214198177E-02    0.2371798764E-01    0.1936236954E-03    0.6603989478E+00
    0.2500000000E+06    0.6787306319E+00    0.1165633984E-02    0.2370351199E-01    0.1848771298E-03    0.6605047082E+00
    0.2700000000E+06    0.6788238158E+00    0.1122567796E-02    0.2369002414E-01    0.1771750457E-03    0.6605987811E+00
    0.2900000000E+06    0.6789042649E+00    0.1084030383E-02    0.2367739692E-01    0.1703261898E-03    0.6606832200E+00
    0.3100000000E+06    0.6789744412E+00    0.1049276522E-02    0.2366552627E-01    0.1641848743E-03    0.6607596040E+00
    0.3300000000E+06    0.6790362091E+00    0.1017722454E-02    0.2365432597E-01    0.1586379266E-03    0.6608291700E+00
    0.3500000000E+06    0.6790910065E+00    0.9889034647E-03    0.2364372376E-01    0.1535959301E-03    0.6608929028E+00
    0.3700000000E+06    0.6791399603E+00    0.9624443451E-03    0.2363365851E-01    0.1489871836E-03    0.6609515977E+00
    0.3900000000E+06    0.6791839662E+00    0.9380383531E-03    0.2362407803E-01    0.1447534364E-03    0.6610059049E+00
    0.4100000000E+06    0.6792237451E+00    0.9154319247E-03    0.2361493740E-01    0.1408468137E-03    0.6610563622E+00
    0.4300000000E+06    0.6792598841E+00    0.8944133639E-03    0.2360619770E-01    0.1372275585E-03    0.6611034186E+00
    0.4500000000E+06    0.6792928660E+00    0.8748043438E-03    0.2359782496E-01    0.1338623459E-03    0.6611474524E+00
    0.4700000000E+06    0.6793230913E+00    0.8564534261E-03    0.2358978938E-01    0.1307230064E-03    0.6611887851E+00
    0.4900000000E+06    0.6793508957E+00    0.8392310577E-03    0.2358206464E-01    0.1277855453E-03    0.6612276919E+00
    0.1000000000E+06    0.6768508864E+00    0.1831280204E-02    0.2385273744E-01    0.3104910588E-03    0.6590723966E+00
    0.3000000000E+06    0.6789405089E+00    0.1066220204E-02    0.2367137278E-01    0.1671748059E-03    0.6607223348E+00
    0.5000000000E+06    0.6793639802E+00    0.8310075982E-03    0.2357831145E-01    0.1263859712E-03    0.6612463109E+00
    0.7000000000E+06    0.6795485704E+00    0.7053590442E-03    0.2351507347E-01    0.1052499695E-03    0.6615347788E+00
    0.9000000000E+06    0.6796527504E+00    0.6241070268E-03    0.2346705480E-01    0.9184037210E-04    0.6617264714E+00
    0.1100000000E+07    0.6797200160E+00    0.5660133840E-03    0.2342830906E-01    0.8238511138E-04    0.6618669512E+00
    0.1300000000E+07    0.6797672149E+00    0.5218017120E-03    0.2339581687E-01    0.7526753553E-04    0.6619762980E+00
    0.1500000000E+07    0.6798022644E+00    0.4866870851E-03    0.2336783144E-01    0.6966522060E-04    0.6620649659E+00
    0.1700000000E+07    0.6798293850E+00    0.4579171225E-03    0.2334325012E-01    0.6511022955E-04    0.6621390245E+00
    0.1900000000E+07    0.6798510360E+00    0.4337810583E-03    0.2332133181E-01    0.6131432021E-04    0.6622022811E+00
    0.2100000000E+07    0.6798687495E+00    0.4131519402E-03    0.2330155418E-01    0.5808906542E-04    0.6622572661E+00
    0.2300000000E+07    0.6798835309E+00    0.3952530172E-03    0.2328353517E-01    0.5530545538E-04    0.6623057388E+00
    0.2500000000E+07    0.6798960677E+00    0.3795291171E-03    0.2326698683E-01    0.5287182492E-04    0.6623489675E+00
    0.2700000000E+07    0.6799068467E+00    0.3655714381E-03    0.2325168669E-01    0.5072103280E-04    0.6623878934E+00
    0.2900000000E+07    0.6799162222E+00    0.3530713694E-03    0.2323745930E-01    0.4880263582E-04    0.6624232329E+00
    0.3100000000E+07    0.6799244584E+00    0.3417909614E-03    0.2322416382E-01    0.4707791096E-04    0.6624555427E+00
    0.3300000000E+07    0.6799317568E+00    0.3315433855E-03    0.2321168548E-01    0.4551657717E-04    0.6624852630E+00
    0.3500000000E+07    0.6799382732E+00    0.3221796191E-03    0.2319992953E-01    0.4409457140E-04    0.6625127476E+00
    0.3700000000E+07    0.6799441307E+00    0.3135791394E-03    0.2318881680E-01    0.4279250045E-04    0.6625382846E+00
    0.3900000000E+07    0.6799494274E+00    0.3056432738E-03    0.2317828048E-01    0.4159453890E-04    0.6625621115E+00
    0.4100000000E+07    0.6799542427E+00    0.2982903536E-03    0.2316826366E-01    0.4048762867E-04    0.6625844263E+00
    0.4300000000E+07    0.6799586415E+00    0.2914521201E-03    0.2315871747E-01    0.3946088754E-04    0.6626053954E+00
    0.4500000000E+07    0.6799626774E+00    0.2850710189E-03    0.2314959966E-01    0.3850516496E-04    0.6626251602E+00
    0.4700000000E+07    0.6799663950E+00    0.2790981322E-03    0.2314087339E-01    0.3761270380E-04    0.6626438414E+00
    0.4900000000E+07    0.6799698320E+00    0.2734915797E-03    0.2313250642E-01    0.3677687938E-04    0.6626615431E+00
    0.1000000000E+07    0.6796896312E+00    0.5928975878E-03    0.2344675281E-01    0.8674658693E-04    0.6618015320E+00
    0.3000000000E+07    0.6799204689E+00    0.3472914029E-03    0.2323070277E-01    0.4791812472E-04    0.6624397367E+00
    0.5000000000E+07    0.6799714553E+00    0.2708142019E-03    0.2312844864E-01    0.3637839434E-04    0.6626700553E+00
    0.7000000000E+07    0.6799948400E+00    0.2298843442E-03    0.2306073970E-01    0.3034247095E-04    0.6628055931E+00
    0.9000000000E+07    0.6800085591E+00    0.2034009675E-03    0.2301003939E-01    0.2649757285E-04    0.6628999099E+00
    0.1100000000E+08    0.6800177042E+00    0.1844614872E-03    0.2296949825E-01    0.2378052952E-04    0.6629715103E+00
    0.1300000000E+08    0.6800242989E+00    0.1700464082E-03    0.2293571919E-01    0.2173245040E-04    0.6630288544E+00
    0.1500000000E+08    0.6800293153E+00    0.1585970227E-03    0.2290676751E-01    0.2011890967E-04    0.6630764770E+00
    0.1700000000E+08    0.6800332812E+00    0.1492163399E-03    0.2288143584E-01    0.1880615699E-04    0.6631170759E+00
    0.1900000000E+08    0.6800365094E+00    0.1413466797E-03    0.2285891981E-01    0.1771164371E-04    0.6631523791E+00
    0.2100000000E+08    0.6800391981E+00    0.1346206139E-03    0.2283865649E-01    0.1678132908E-04    0.6631835567E+00
    0.2300000000E+08    0.6800414787E+00    0.1287848661E-03    0.2282023653E-01    0.1597817232E-04    0.6632114352E+00
    0.2500000000E+08    0.6800434428E+00    0.1236583979E-03    0.2280335287E-01    0.1527583196E-04    0.6632366196E+00
    0.2700000000E+08    0.6800451556E+00    0.1191078957E-03    0.2278776931E-01    0.1465500035E-04    0.6632595650E+00
