  Pressure (Pa) 22mC5-400 (mol/kg) 2mC6-400 (mol/kg) 3mC6-400 (mol/kg) 33mC5-400 (mol/kg) C7-400 (mol/kg)
    0.1000000000E+01    0.1589568029E-02    0.3161623600E-02    0.5239563687E-02    0.6436072783E-04    0.3400999675E-02
    0.3000000000E+01    0.4717187167E-02    0.9180618045E-02    0.1521559859E-01    0.1869263300E-03    0.9877922498E-02
    0.5000000000E+01    0.7778424753E-02    0.1482508754E-01    0.2457456295E-01    0.3019152463E-03    0.1595607133E-01
    0.7000000000E+01    0.1077591733E-01    0.2012839895E-01    0.3337386302E-01    0.4100034480E-03    0.2167248973E-01
    0.9000000000E+01    0.1371215909E-01    0.2511996181E-01    0.4166394320E-01    0.5117865734E-03    0.2705973221E-01
    0.1100000000E+02    0.1658951143E-01    0.2982580785E-01    0.4948931275E-01    0.6077917105E-03    0.3214652596E-01
    0.1300000000E+02    0.1941021174E-01    0.3426907084E-01    0.5688939601E-01    0.6984871489E-03    0.3695831886E-01
    0.1500000000E+02    0.2217638146E-01    0.3847038615E-01    0.6389924030E-01    0.7842905002E-03    0.4151773578E-01
    0.1700000000E+02    0.2489003360E-01    0.4244822543E-01    0.7055010874E-01    0.8655754981E-03    0.4584496073E-01
    0.1900000000E+02    0.2755307961E-01    0.4621917837E-01    0.7686997906E-01    0.9426777208E-03    0.4995805847E-01
    0.2100000000E+02    0.3016733575E-01    0.4979819113E-01    0.8288396559E-01    0.1015899433E-02    0.5387324650E-01
    0.2300000000E+02    0.3273452901E-01    0.5319876895E-01    0.8861467760E-01    0.1085513703E-02    0.5760512618E-01
    0.2500000000E+02    0.3525630256E-01    0.5643314930E-01    0.9408252522E-01    0.1151767912E-02    0.6116687995E-01
    0.2700000000E+02    0.3773422082E-01    0.5951245025E-01    0.9930598144E-01    0.1214886769E-02    0.6457044027E-01
    0.2900000000E+02    0.4016977417E-01    0.6244679827E-01    0.1043018075E+00    0.1275074904E-02    0.6782663500E-01
    0.3100000000E+02    0.4256438334E-01    0.6524543869E-01    0.1090852475E+00    0.1332519109E-02    0.7094531289E-01
    0.3300000000E+02    0.4491940341E-01    0.6791683154E-01    0.1136701969E+00    0.1387390280E-02    0.7393545230E-01
    0.3500000000E+02    0.4723612766E-01    0.7046873493E-01    0.1180693493E+00    0.1439845108E-02    0.7680525575E-01
    0.3700000000E+02    0.4951579106E-01    0.7290827791E-01    0.1222943239E+00    0.1490027559E-02    0.7956223236E-01
    0.3900000000E+02    0.5175957355E-01    0.7524202434E-01    0.1263557779E+00    0.1538070165E-02    0.8221326999E-01
    0.4100000000E+02    0.5396860312E-01    0.7747602897E-01    0.1302635038E+00    0.1584095163E-02    0.8476469852E-01
    0.4300000000E+02    0.5614395864E-01    0.7961588690E-01    0.1340265164E+00    0.1628215497E-02    0.8722234556E-01
    0.4500000000E+02    0.5828667258E-01    0.8166677728E-01    0.1376531287E+00    0.1670535700E-02    0.8959158556E-01
    0.4700000000E+02    0.6039773346E-01    0.8363350209E-01    0.1411510193E+00    0.1711152684E-02    0.9187738330E-01
    0.4900000000E+02    0.6247808821E-01    0.8552052051E-01    0.1445272920E+00    0.1750156433E-02    0.9408433242E-01
    0.1000000000E+02    0.1515805379E-01    0.2750709068E-01    0.4563214252E-01    0.5604808466E-03    0.2963902357E-01
    0.3000000000E+02    0.4137211059E-01    0.6386253581E-01    0.1067191775E+00    0.1304128965E-02    0.6940258317E-01
    0.5000000000E+02    0.6350703588E-01    0.8643544721E-01    0.1461718977E+00    0.1769079725E-02    0.9515958128E-01
    0.7000000000E+02    0.8267573329E-01    0.1014170717E+00    0.1740457731E+00    0.2080355769E-02    0.1134090358E+00
    0.9000000000E+02    0.9960614845E-01    0.1117587520E+00    0.1949561808E+00    0.2297495625E-02    0.1271369504E+00
    0.1100000000E+03    0.1147957674E+00    0.1190625923E+00    0.2113289523E+00    0.2452812864E-02    0.1379142979E+00
    0.1300000000E+03    0.1285970206E+00    0.1242783251E+00    0.2245661671E+00    0.2565471770E-02    0.1466499364E+00
    0.1500000000E+03    0.1412671867E+00    0.1280058959E+00    0.2355374284E+00    0.2647590378E-02    0.1539080917E+00
    0.1700000000E+03    0.1529989257E+00    0.1306429474E+00    0.2448123216E+00    0.2707212094E-02    0.1600586709E+00
    0.1900000000E+03    0.1639397008E+00    0.1324631494E+00    0.2527804986E+00    0.2749882869E-02    0.1653549575E+00
    0.2100000000E+03    0.1742045480E+00    0.1336606509E+00    0.2597181440E+00    0.2779545876E-02    0.1699766403E+00
    0.2300000000E+03    0.1838847173E+00    0.1343766698E+00    0.2658268777E+00    0.2799076627E-02    0.1740550123E+00
    0.2500000000E+03    0.1930536683E+00    0.1347160958E+00    0.2712575995E+00    0.2810617124E-02    0.1776884243E+00
    0.2700000000E+03    0.2017713241E+00    0.1347582339E+00    0.2761256819E+00    0.2815792153E-02    0.1809521375E+00
    0.2900000000E+03    0.2100871474E+00    0.1345639684E+00    0.2805209773E+00    0.2815853575E-02    0.1839048155E+00
    0.3100000000E+03    0.2180424069E+00    0.1341806652E+00    0.2845146002E+00    0.2811779133E-02    0.1865929278E+00
    0.3300000000E+03    0.2256718708E+00    0.1336456031E+00    0.2881636394E+00    0.2804341651E-02    0.1890538103E+00
    0.3500000000E+03    0.2330050931E+00    0.1329884216E+00    0.2915145062E+00    0.2794158454E-02    0.1913178406E+00
    0.3700000000E+03    0.2400674013E+00    0.1322328988E+00    0.2946053581E+00    0.2781727301E-02    0.1934100151E+00
    0.3900000000E+03    0.2468806651E+00    0.1313982630E+00    0.2974678860E+00    0.2767452912E-02    0.1953511105E+00
    0.4100000000E+03    0.2534639003E+00    0.1305001729E+00    0.3001286518E+00    0.2751666820E-02    0.1971585550E+00
    0.4300000000E+03    0.2598337487E+00    0.1295514596E+00    0.3026101040E+00    0.2734642441E-02    0.1988470896E+00
    0.4500000000E+03    0.2660048625E+00    0.1285626958E+00    0.3049313587E+00    0.2716606612E-02    0.2004292770E+00
    0.4700000000E+03    0.2719902151E+00    0.1275426350E+00    0.3071088073E+00    0.2697748552E-02    0.2019158976E+00
    0.4900000000E+03    0.2778013541E+00    0.1264985559E+00    0.3091565949E+00    0.2678226859E-02    0.2033162615E+00
    0.1000000000E+03    0.1073938380E+00    0.1157203845E+00    0.2036057301E+00    0.2381469546E-02    0.1328270228E+00
    0.3000000000E+03    0.2141075390E+00    0.1343934127E+00    0.2825641456E+00    0.2814280890E-02    0.1852794238E+00
    0.5000000000E+03    0.2806448640E+00    0.1259694485E+00    0.3101357668E+00    0.2668259726E-02    0.2039866666E+00
    0.7000000000E+03    0.3303931633E+00    0.1151623059E+00    0.3251868400E+00    0.2457278826E-02    0.2143668693E+00
    0.9000000000E+03    0.3700347468E+00    0.1050986249E+00    0.3349770668E+00    0.2252229243E-02    0.2212123244E+00
    0.1100000000E+04    0.4026095737E+00    0.9627258109E-01    0.3419819918E+00    0.2067271356E-02    0.2261696667E+00
    0.1300000000E+04    0.4298736149E+00    0.8864842428E-01    0.3473051017E+00    0.1904053418E-02    0.2299778461E+00
    0.1500000000E+04    0.4529868491E+00    0.8207607830E-01    0.3515220137E+00    0.1760925474E-02    0.2330246932E+00
    0.1700000000E+04    0.4727773561E+00    0.7639508038E-01    0.3549660907E+00    0.1635458288E-02    0.2355360910E+00
    0.1900000000E+04    0.4898644079E+00    0.7146180773E-01    0.3578454275E+00    0.1525224089E-02    0.2376537880E+00
    0.2100000000E+04    0.5047249485E+00    0.6715477224E-01    0.3602974785E+00    0.1428036917E-02    0.2394718783E+00
    0.2300000000E+04    0.5177337051E+00    0.6337337161E-01    0.3624171426E+00    0.1342007089E-02    0.2410556287E+00
    0.2500000000E+04    0.5291894111E+00    0.6003492230E-01    0.3642723117E+00    0.1265529933E-02    0.2424519376E+00
    0.2700000000E+04    0.5393329437E+00    0.5707155308E-01    0.3659129984E+00    0.1197253209E-02    0.2436954979E+00
    0.2900000000E+04    0.5483603684E+00    0.5442744737E-01    0.3673769586E+00    0.1136040288E-02    0.2448126048E+00
    0.3100000000E+04    0.5564325841E+00    0.5205654129E-01    0.3686932949E+00    0.1080935511E-02    0.2458236043E+00
    0.3300000000E+04    0.5636825972E+00    0.4992065348E-01    0.3698848460E+00    0.1031133874E-02    0.2467445216E+00
    0.3500000000E+04    0.5702210916E+00    0.4798798397E-01    0.3709698159E+00    0.9859553621E-03    0.2475881748E+00
    0.3700000000E+04    0.5761407453E+00    0.4623191510E-01    0.3719629150E+00    0.9448236061E-03    0.2483649572E+00
    0.3900000000E+04    0.5815196080E+00    0.4463005457E-01    0.3728761754E+00    0.9072482833E-03    0.2490833975E+00
    0.4100000000E+04    0.5864237684E+00    0.4316347046E-01    0.3737195451E+00    0.8728106671E-03    0.2497505697E+00
    0.4300000000E+04    0.5909094743E+00    0.4181607807E-01    0.3745013295E+00    0.8411517759E-03    0.2503723976E+00
    0.4500000000E+04    0.5950248313E+00    0.4057414658E-01    0.3752285232E+00    0.8119626478E-03    0.2509538854E+00
    0.4700000000E+04    0.5988111715E+00    0.3942590062E-01    0.3759070643E+00    0.7849763470E-03    0.2514992934E+00
    0.4900000000E+04    0.6023041634E+00    0.3836119682E-01    0.3765420298E+00    0.7599613772E-03    0.2520122746E+00
    0.1000000000E+04    0.3870770143E+00    0.1005281936E+00    0.3387409212E+00    0.2157006018E-02    0.2238690052E+00
    0.3000000000E+04    0.5525069831E+00    0.5321039623E-01    0.3680520275E+00    0.1107777902E-02    0.2453302802E+00
    0.5000000000E+04    0.6039504777E+00    0.3785738383E-01    0.3768445615E+00    0.7481291298E-03    0.2522576076E+00
    0.7000000000E+04    0.6271527751E+00    0.3055976238E-01    0.3814063794E+00    0.5777174313E-03    0.2560411565E+00
    0.9000000000E+04    0.6399531075E+00    0.2626592808E-01    0.3842824015E+00    0.4793679057E-03    0.2585298947E+00
    0.1100000000E+05    0.6479447297E+00    0.2339935639E-01    0.3862932521E+00    0.4152471557E-03    0.2603356149E+00
    0.1300000000E+05    0.6533642089E+00    0.2132382365E-01    0.3877931596E+00    0.3699170747E-03    0.2617281094E+00
    0.1500000000E+05    0.6572619814E+00    0.1973506179E-01    0.3889627748E+00    0.3359927993E-03    0.2628475850E+00
    0.1700000000E+05    0.6601908200E+00    0.1846915536E-01    0.3899049071E+00    0.3095179633E-03    0.2637752100E+00
    0.1900000000E+05    0.6624672484E+00    0.1742971302E-01    0.3906828219E+00    0.2881862906E-03    0.2645617270E+00
    0.2100000000E+05    0.6642847095E+00    0.1655612940E-01    0.3913378055E+00    0.2705628975E-03    0.2652407413E+00
    0.2300000000E+05    0.6657677011E+00    0.1580824190E-01    0.3918980639E+00    0.2557076917E-03    0.2658355320E+00
    0.2500000000E+05    0.6669997879E+00    0.1515828480E-01    0.3923835891E+00    0.2429783677E-03    0.2663628176E+00
    0.2700000000E+05    0.6680390478E+00    0.1458638474E-01    0.3928089859E+00    0.2319205939E-03    0.2668349651E+00
    0.2900000000E+05    0.6689270453E+00    0.1407789964E-01    0.3931851966E+00    0.2222035075E-03    0.2672613520E+00
    0.3100000000E+05    0.6696942800E+00    0.1362177441E-01    0.3935205977E+00    0.2135801194E-03    0.2676492395E+00
    0.3300000000E+05    0.6703636202E+00    0.1320948567E-01    0.3938217202E+00    0.2058620813E-03    0.2680043527E+00
    0.3500000000E+05    0.6709525377E+00    0.1283434193E-01    0.3940937392E+00    0.1989030798E-03    0.2683312764E+00
    0.3700000000E+05    0.6714746033E+00    0.1249100626E-01    0.3943408134E+00    0.1925875965E-03    0.2686337334E+00
    0.3900000000E+05    0.6719405136E+00    0.1217516252E-01    0.3945663264E+00    0.1868231101E-03    0.2689147828E+00
    0.4100000000E+05    0.6723588105E+00    0.1188327692E-01    0.3947730620E+00    0.1815345689E-03    0.2691769666E+00
    0.4300000000E+05    0.6727363952E+00    0.1161242424E-01    0.3949633333E+00    0.1766603945E-03    0.2694224167E+00
    0.4500000000E+05    0.6730789029E+00    0.1136015908E-01    0.3951390800E+00    0.1721495425E-03    0.2696529373E+00
    0.4700000000E+05    0.6733909791E+00    0.1112441891E-01    0.3953019413E+00    0.1679593067E-03    0.2698700673E+00
    0.4900000000E+05    0.6736764873E+00    0.1090345008E-01    0.3954533134E+00    0.1640536552E-03    0.2700751286E+00
    0.1000000000E+05    0.6443689405E+00    0.2470553394E-01    0.3853679253E+00    0.4442726385E-03    0.2594968846E+00
    0.3000000000E+05    0.6693241805E+00    0.1384387455E-01    0.3933575535E+00    0.2177680204E-03    0.2674597197E+00
    0.5000000000E+05    0.6738103113E+00    0.1079802700E-01    0.3955250718E+00    0.1621977931E-03    0.2701734969E+00
    0.7000000000E+05    0.6756585991E+00    0.9192343298E-02    0.3965743801E+00    0.1345274183E-03    0.2717180487E+00
    0.9000000000E+05    0.6766642613E+00    0.8156513023E-02    0.3971963927E+00    0.1172643249E-03    0.2727675447E+00
    0.1100000000E+06    0.6772960347E+00    0.7415621781E-02    0.3976064628E+00    0.1051949395E-03    0.2735496693E+00
    0.1300000000E+06    0.6777296213E+00    0.6851051402E-02    0.3978951284E+00    0.9615244867E-04    0.2741667026E+00
    0.1500000000E+06    0.6780456067E+00    0.6401953009E-02    0.3981075204E+00    0.8905470599E-04    0.2746726853E+00
    0.1700000000E+06    0.6782861217E+00    0.6033413672E-02    0.3982687948E+00    0.8329337305E-04    0.2750993723E+00
    0.1900000000E+06    0.6784753264E+00    0.5723755376E-02    0.3983941331E+00    0.7849682266E-04    0.2754668862E+00
    0.2100000000E+06    0.6786280652E+00    0.5458701074E-02    0.3984932603E+00    0.7442355966E-04    0.2757887205E+00
    0.2300000000E+06    0.6787539607E+00    0.5228407975E-02    0.3985727023E+00    0.7090896407E-04    0.2760743298E+00
    0.2500000000E+06    0.6788595238E+00    0.5025837520E-02    0.3986370046E+00    0.6783645423E-04    0.2763305769E+00
    0.2700000000E+06    0.6789493172E+00    0.4845803432E-02    0.3986894316E+00    0.6512085380E-04    0.2765625890E+00
    0.2900000000E+06    0.6790266332E+00    0.4684387574E-02    0.3987323881E+00    0.6269829468E-04    0.2767742905E+00
    0.3100000000E+06    0.6790939071E+00    0.4538566527E-02    0.3987676850E+00    0.6051982282E-04    0.2769687466E+00
    0.3300000000E+06    0.6791529791E+00    0.4405964483E-02    0.3987967108E+00    0.5854720235E-04    0.2771483941E+00
    0.3500000000E+06    0.6792052653E+00    0.4284684840E-02    0.3988205482E+00    0.5675007740E-04    0.2773152002E+00
    0.3700000000E+06    0.6792518737E+00    0.4173192466E-02    0.3988400531E+00    0.5510400127E-04    0.2774707737E+00
    0.3900000000E+06    0.6792936832E+00    0.4070229535E-02    0.3988559107E+00    0.5358903625E-04    0.2776164464E+00
    0.4100000000E+06    0.6793314001E+00    0.3974754159E-02    0.3988686755E+00    0.5218873850E-04    0.2777533324E+00
    0.4300000000E+06    0.6793655987E+00    0.3885894873E-02    0.3988788012E+00    0.5088940891E-04    0.2778823719E+00
    0.4500000000E+06    0.6793967504E+00    0.3802916323E-02    0.3988866618E+00    0.4967953129E-04    0.2780043660E+00
    0.4700000000E+06    0.6794252461E+00    0.3725193055E-02    0.3988925684E+00    0.4854934494E-04    0.2781200016E+00
    0.4900000000E+06    0.6794514123E+00    0.3652189224E-02    0.3988967816E+00    0.4749051518E-04    0.2782298725E+00
    0.1000000000E+06    0.6770125352E+00    0.7758580982E-02    0.3974207052E+00    0.1107531823E-03    0.2731840117E+00
    0.3000000000E+06    0.6790613988E+00    0.4609689091E-02    0.3987508989E+00    0.6158115037E-04    0.2768735093E+00
    0.5000000000E+06    0.6794637096E+00    0.3617310167E-02    0.3988983234E+00    0.4698557998E-04    0.2782828101E+00
    0.7000000000E+06    0.6796358846E+00    0.3082706836E-02    0.3988789706E+00    0.3932519384E-04    0.2791350383E+00
    0.9000000000E+06    0.6797316604E+00    0.2735289617E-02    0.3988143717E+00    0.3443117679E-04    0.2797387583E+00
    0.1100000000E+07    0.6797927380E+00    0.2486037497E-02    0.3987357949E+00    0.3096440394E-04    0.2802031284E+00
    0.1300000000E+07    0.6798351250E+00    0.2295849519E-02    0.3986538812E+00    0.2834590666E-04    0.2805788836E+00
    0.1500000000E+07    0.6798662875E+00    0.2144477410E-02    0.3985727560E+00    0.2627941682E-04    0.2808935689E+00
    0.1700000000E+07    0.6798901783E+00    0.2020239037E-02    0.3984940841E+00    0.2459563507E-04    0.2811637416E+00
    0.1900000000E+07    0.6799090871E+00    0.1915855780E-02    0.3984184963E+00    0.2318992298E-04    0.2814001002E+00
    0.2100000000E+07    0.6799244322E+00    0.1826523298E-02    0.3983461598E+00    0.2199368959E-04    0.2816099421E+00
    0.2300000000E+07    0.6799371394E+00    0.1748924543E-02    0.3982770295E+00    0.2095986534E-04    0.2817984585E+00
    0.2500000000E+07    0.6799478388E+00    0.1680685171E-02    0.3982109644E+00    0.2005494050E-04    0.2819694696E+00
    0.2700000000E+07    0.6799569743E+00    0.1620054533E-02    0.3981477847E+00    0.1925432874E-04    0.2821258650E+00
    0.2900000000E+07    0.6799648675E+00    0.1565709484E-02    0.3980872998E+00    0.1853953064E-04    0.2822698813E+00
    0.3100000000E+07    0.6799717574E+00    0.1516628752E-02    0.3980293220E+00    0.1789632606E-04    0.2824032842E+00
    0.3300000000E+07    0.6799778253E+00    0.1472009697E-02    0.3979736733E+00    0.1731358157E-04    0.2825274909E+00
    0.3500000000E+07    0.6799832110E+00    0.1431211534E-02    0.3979201881E+00    0.1678244024E-04    0.2826436559E+00
    0.3700000000E+07    0.6799880244E+00    0.1393715599E-02    0.3978687141E+00    0.1629575686E-04    0.2827527314E+00
    0.3900000000E+07    0.6799923528E+00    0.1359096938E-02    0.3978191118E+00    0.1584769537E-04    0.2828555119E+00
    0.4100000000E+07    0.6799962667E+00    0.1327003577E-02    0.3977712539E+00    0.1543343613E-04    0.2829526666E+00
    0.4300000000E+07    0.6799998233E+00    0.1297141144E-02    0.3977250247E+00    0.1504895943E-04    0.2830447650E+00
    0.4500000000E+07    0.6800030700E+00    0.1269261273E-02    0.3976803186E+00    0.1469088271E-04    0.2831322949E+00
    0.4700000000E+07    0.6800060459E+00    0.1243152746E-02    0.3976370391E+00    0.1435633652E-04    0.2832156777E+00
    0.4900000000E+07    0.6800087838E+00    0.1218634630E-02    0.3975950986E+00    0.1404286872E-04    0.2832952794E+00
    0.1000000000E+07    0.6797652355E+00    0.2601475393E-02    0.3987759308E+00    0.3256519086E-04    0.2799844180E+00
    0.3000000000E+07    0.6799684254E+00    0.1540565601E-02    0.3980580089E+00    0.1820973639E-04    0.2823378138E+00
    0.5000000000E+07    0.6800100724E+00    0.1206922371E-02    0.3975746050E+00    0.1389336828E-04    0.2833337641E+00
    0.7000000000E+07    0.6800282559E+00    0.1027555688E-02    0.3972187852E+00    0.1162451536E-04    0.2839651875E+00
    0.9000000000E+07    0.6800385156E+00    0.9111553931E-03    0.3969368232E+00    0.1017467313E-04    0.2844261666E+00
    0.1100000000E+08    0.6800451331E+00    0.8277295903E-03    0.3967029295E+00    0.9147737772E-05    0.2847885104E+00
    0.1300000000E+08    0.6800497700E+00    0.7641224032E-03    0.3965028542E+00    0.8372219945E-05    0.2850866399E+00
    0.1500000000E+08    0.6800532077E+00    0.7135284111E-03    0.3963278974E+00    0.7760314550E-05    0.2853396861E+00
    0.1700000000E+08    0.6800558630E+00    0.6720247057E-03    0.3961723534E+00    0.7261834019E-05    0.2855593675E+00
    0.1900000000E+08    0.6800579789E+00    0.6371688868E-03    0.3960322745E+00    0.6845756619E-05    0.2857533753E+00
    0.2100000000E+08    0.6800597066E+00    0.6073498243E-03    0.3959048139E+00    0.6491747648E-05    0.2859270262E+00
    0.2300000000E+08    0.6800611455E+00    0.5814557483E-03    0.3957878499E+00    0.6185853513E-05    0.2860841468E+00
    0.2500000000E+08    0.6800623635E+00    0.5586912295E-03    0.3956797581E+00    0.5918141224E-05    0.2862275816E+00
    0.2700000000E+08    0.6800634085E+00    0.5384700272E-03    0.3955792665E+00    0.5681323593E-05    0.2863595019E+00
