  Pressure (Pa) 22mC5-400 (mol/kg) 2mC6-400 (mol/kg) 3mC6-400 (mol/kg) 33mC5-400 (mol/kg) C7-400 (mol/kg)
    0.1000000000E+01    0.1583378813E-02    0.7069667104E-02    0.5211652583E-03    0.1279256443E-03    0.8457383641E-02
    0.3000000000E+01    0.4663602275E-02    0.2028886942E-01    0.1498408819E-02    0.3672019306E-03    0.2432054412E-01
    0.5000000000E+01    0.7635117454E-02    0.3240593385E-01    0.2397999935E-02    0.5866260769E-03    0.3892887926E-01
    0.7000000000E+01    0.1050527173E-01    0.4354972276E-01    0.3229327927E-02    0.7885204739E-03    0.5243390534E-01
    0.9000000000E+01    0.1328073972E-01    0.5382948147E-01    0.4000308943E-02    0.9748535823E-03    0.6496338297E-01
    0.1100000000E+02    0.1596759950E-01    0.6333848307E-01    0.4717665094E-02    0.1147305756E-02    0.7662581633E-01
    0.1300000000E+02    0.1857139870E-01    0.7215688250E-01    0.5387142353E-02    0.1307320775E-02    0.8751396546E-01
    0.1500000000E+02    0.2109721191E-01    0.8035397402E-01    0.6013682324E-02    0.1456146595E-02    0.9770761556E-01
    0.1700000000E+02    0.2354969072E-01    0.8798999371E-01    0.6601558924E-02    0.1594867881E-02    0.1072757805E+00
    0.1900000000E+02    0.2593310757E-01    0.9511757104E-01    0.7154488039E-02    0.1724432198E-02    0.1162784708E+00
    0.2100000000E+02    0.2825139415E-01    0.1017829073E+00    0.7675716223E-02    0.1845671273E-02    0.1247681242E+00
    0.2300000000E+02    0.3050817523E-01    0.1080267392E+00    0.8168092951E-02    0.1959318378E-02    0.1327907708E+00
    0.2500000000E+02    0.3270679853E-01    0.1138851330E+00    0.8634129902E-02    0.2066022646E-02    0.1403869888E+00
    0.2700000000E+02    0.3485036107E-01    0.1193901420E+00    0.9076049890E-02    0.2166360935E-02    0.1475926943E+00
    0.2900000000E+02    0.3694173262E-01    0.1245703558E+00    0.9495827514E-02    0.2260847717E-02    0.1544397965E+00
    0.3100000000E+02    0.3898357653E-01    0.1294513598E+00    0.9895223106E-02    0.2349943378E-02    0.1609567456E+00
    0.3300000000E+02    0.4097836825E-01    0.1340561239E+00    0.1027581124E-01    0.2434061208E-02    0.1671689931E+00
    0.3500000000E+02    0.4292841193E-01    0.1384053309E+00    0.1063900481E-01    0.2513573328E-02    0.1730993791E+00
    0.3700000000E+02    0.4483585526E-01    0.1425176570E+00    0.1098607539E-01    0.2588815738E-02    0.1787684626E+00
    0.3900000000E+02    0.4670270274E-01    0.1464100106E+00    0.1131817067E-01    0.2660092623E-02    0.1841948012E+00
    0.4100000000E+02    0.4853082768E-01    0.1500977387E+00    0.1163632926E-01    0.2727680068E-02    0.1893951911E+00
    0.4300000000E+02    0.5032198295E-01    0.1535948037E+00    0.1194149353E-01    0.2791829246E-02    0.1943848737E+00
    0.4500000000E+02    0.5207781068E-01    0.1569139374E+00    0.1223452055E-01    0.2852769184E-02    0.1991777125E+00
    0.4700000000E+02    0.5379985109E-01    0.1600667740E+00    0.1251619163E-01    0.2910709166E-02    0.2037863473E+00
    0.4900000000E+02    0.5548955039E-01    0.1630639668E+00    0.1278722064E-01    0.2965840827E-02    0.2082223279E+00
    0.1000000000E+02    0.1463488719E-01    0.5867503875E-01    0.4365310333E-02    0.1062719528E-02    0.7089684927E-01
    0.3000000000E+02    0.3796868661E-01    0.1270467662E+00    0.9697970600E-02    0.2306042577E-02    0.1577378840E+00
    0.5000000000E+02    0.5632270015E-01    0.1645072829E+00    0.1291895079E-01    0.2992409052E-02    0.2103789129E+00
    0.7000000000E+02    0.7157829157E-01    0.1871934286E+00    0.1512753473E-01    0.3412155122E-02    0.2465938761E+00
    0.9000000000E+02    0.8474244244E-01    0.2017278858E+00    0.1676444732E-01    0.3684428172E-02    0.2735175717E+00
    0.1100000000E+03    0.9640837699E-01    0.2113352980E+00    0.1804282571E-01    0.3867272753E-02    0.2946044830E+00
    0.1300000000E+03    0.1069512696E+00    0.2177699666E+00    0.1907926271E-01    0.3992297684E-02    0.3117464510E+00
    0.1500000000E+03    0.1166217330E+00    0.2220642482E+00    0.1994338332E-01    0.4078129084E-02    0.3260744455E+00
    0.1700000000E+03    0.1255946131E+00    0.2248624536E+00    0.2067959004E-01    0.4136411566E-02    0.3383104917E+00
    0.1900000000E+03    0.1339962900E+00    0.2265855568E+00    0.2131768646E-01    0.4174768817E-02    0.3489397223E+00
    0.2100000000E+03    0.1419208344E+00    0.2275189015E+00    0.2187851353E-01    0.4198380472E-02    0.3583017200E+00
    0.2300000000E+03    0.1494400231E+00    0.2278618107E+00    0.2237714171E-01    0.4210874424E-02    0.3666422842E+00
    0.2500000000E+03    0.1566097929E+00    0.2277570605E+00    0.2282477754E-01    0.4214857226E-02    0.3741443681E+00
    0.2700000000E+03    0.1634745408E+00    0.2273091174E+00    0.2322995357E-01    0.4212242513E-02    0.3809474016E+00
    0.2900000000E+03    0.1700700709E+00    0.2265958186E+00    0.2359929927E-01    0.4204461493E-02    0.3871598155E+00
    0.3100000000E+03    0.1764256664E+00    0.2256760753E+00    0.2393805659E-01    0.4192601911E-02    0.3928674228E+00
    0.3300000000E+03    0.1825655772E+00    0.2245950860E+00    0.2425043425E-01    0.4177502162E-02    0.3981391833E+00
    0.3500000000E+03    0.1885101106E+00    0.2233879425E+00    0.2453985739E-01    0.4159816483E-02    0.4030312651E+00
    0.3700000000E+03    0.1942764428E+00    0.2220821759E+00    0.2480914694E-01    0.4140061011E-02    0.4075899674E+00
    0.3900000000E+03    0.1998792344E+00    0.2206995837E+00    0.2506065122E-01    0.4118646909E-02    0.4118538643E+00
    0.4100000000E+03    0.2053311024E+00    0.2192575637E+00    0.2529634399E-01    0.4095904558E-02    0.4158554030E+00
    0.4300000000E+03    0.2106429866E+00    0.2177701005E+00    0.2551789859E-01    0.4072101487E-02    0.4196221140E+00
    0.4500000000E+03    0.2158244391E+00    0.2162485048E+00    0.2572674489E-01    0.4047455838E-02    0.4231775405E+00
    0.4700000000E+03    0.2208838529E+00    0.2147019742E+00    0.2592411350E-01    0.4022146579E-02    0.4265419601E+00
    0.4900000000E+03    0.2258286470E+00    0.2131380228E+00    0.2611107048E-01    0.3996321361E-02    0.4297329520E+00
    0.1000000000E+03    0.9073552680E-01    0.2070151296E+00    0.1743968688E-01    0.3784645329E-02    0.2846484279E+00
    0.3000000000E+03    0.1732762412E+00    0.2261586547E+00    0.2377221755E-01    0.4198984155E-02    0.3900720693E+00
    0.5000000000E+03    0.2282601507E+00    0.2123514853E+00    0.2620093967E-01    0.3983254367E-02    0.4312682812E+00
    0.7000000000E+03    0.2721505705E+00    0.1967260644E+00    0.2762526429E-01    0.3715573936E-02    0.4557377384E+00
    0.9000000000E+03    0.3091443772E+00    0.1823566360E+00    0.2860204636E-01    0.3459400418E-02    0.4726884687E+00
    0.1100000000E+04    0.3410741194E+00    0.1696057719E+00    0.2933008844E-01    0.3225649028E-02    0.4854304108E+00
    0.1300000000E+04    0.3689844866E+00    0.1583686829E+00    0.2990178718E-01    0.3015056951E-02    0.4955106924E+00
    0.1500000000E+04    0.3935743473E+00    0.1484591281E+00    0.3036712755E-01    0.2825930962E-02    0.5037704485E+00
    0.1700000000E+04    0.4153596582E+00    0.1396940132E+00    0.3075599125E-01    0.2656057255E-02    0.5107147645E+00
    0.1900000000E+04    0.4347449204E+00    0.1319119739E+00    0.3108755826E-01    0.2503246933E-02    0.5166691544E+00
    0.2100000000E+04    0.4520589791E+00    0.1249752896E+00    0.3137481403E-01    0.2365495582E-02    0.5218548279E+00
    0.2300000000E+04    0.4675751379E+00    0.1187675520E+00    0.3162692344E-01    0.2241020007E-02    0.5264284541E+00
    0.2500000000E+04    0.4815236736E+00    0.1131905378E+00    0.3185057436E-01    0.2128253438E-02    0.5305047319E+00
    0.2700000000E+04    0.4941003357E+00    0.1081612547E+00    0.3205078272E-01    0.2025826981E-02    0.5341699483E+00
    0.2900000000E+04    0.5054725350E+00    0.1036093941E+00    0.3223139767E-01    0.1932547503E-02    0.5374905098E+00
    0.3100000000E+04    0.5157840866E+00    0.9947520449E-01    0.3239543101E-01    0.1847375786E-02    0.5405185188E+00
    0.3300000000E+04    0.5251589761E+00    0.9570773472E-01    0.3254527919E-01    0.1769406412E-02    0.5432955389E+00
    0.3500000000E+04    0.5337044192E+00    0.9226338866E-01    0.3268287694E-01    0.1697849806E-02    0.5458552087E+00
    0.3700000000E+04    0.5415133877E+00    0.8910473497E-01    0.3280980633E-01    0.1632016492E-02    0.5482251001E+00
    0.3900000000E+04    0.5486667122E+00    0.8619952566E-01    0.3292737579E-01    0.1571303419E-02    0.5504280668E+00
    0.4100000000E+04    0.5552348466E+00    0.8351988480E-01    0.3303667839E-01    0.1515182150E-02    0.5524832420E+00
    0.4300000000E+04    0.5612793529E+00    0.8104163605E-01    0.3313863559E-01    0.1463188710E-02    0.5544067886E+00
    0.4500000000E+04    0.5668541564E+00    0.7874374353E-01    0.3323403056E-01    0.1414914863E-02    0.5562124710E+00
    0.4700000000E+04    0.5720066082E+00    0.7660784579E-01    0.3332353388E-01    0.1370000634E-02    0.5579120976E+00
    0.4900000000E+04    0.5767783880E+00    0.7461786598E-01    0.3340772360E-01    0.1328127904E-02    0.5595158666E+00
    0.1000000000E+04    0.3256658515E+00    0.1757815940E+00    0.2898997193E-01    0.3339577759E-02    0.4794653563E+00
    0.3000000000E+04    0.5107527167E+00    0.1014934628E+00    0.3231532490E-01    0.1889007677E-02    0.5390382737E+00
    0.5000000000E+04    0.5790331912E+00    0.7367311444E-01    0.3344798519E-01    0.1308242763E-02    0.5602846196E+00
    0.7000000000E+04    0.6110890021E+00    0.5978977857E-01    0.3406711271E-01    0.1016633779E-02    0.5722736487E+00
    0.9000000000E+04    0.6288121998E+00    0.5148671736E-01    0.3446951292E-01    0.8446322491E-03    0.5802752887E+00
    0.1100000000E+05    0.6397700319E+00    0.4591227842E-01    0.3475662415E-01    0.7315387993E-03    0.5861198836E+00
    0.1300000000E+05    0.6471022942E+00    0.4186853972E-01    0.3497390808E-01    0.6513412562E-03    0.5906385430E+00
    0.1500000000E+05    0.6523022073E+00    0.3877151548E-01    0.3514518754E-01    0.5912777722E-03    0.5942718111E+00
    0.1700000000E+05    0.6561566973E+00    0.3630362271E-01    0.3528430635E-01    0.5444163458E-03    0.5972783759E+00
    0.1900000000E+05    0.6591146122E+00    0.3427725188E-01    0.3539992720E-01    0.5066848897E-03    0.5998216783E+00
    0.2100000000E+05    0.6614484695E+00    0.3257420495E-01    0.3549778163E-01    0.4755390680E-03    0.6020108373E+00
    0.2300000000E+05    0.6633322857E+00    0.3111609878E-01    0.3558183090E-01    0.4493081625E-03    0.6039219155E+00
    0.2500000000E+05    0.6648818854E+00    0.2984874485E-01    0.3565491062E-01    0.4268495084E-03    0.6056098050E+00
    0.2700000000E+05    0.6661770814E+00    0.2873337159E-01    0.3571911008E-01    0.4073546266E-03    0.6071152663E+00
    0.2900000000E+05    0.6672745117E+00    0.2774142803E-01    0.3577600645E-01    0.3902348607E-03    0.6084692988E+00
    0.3100000000E+05    0.6682153948E+00    0.2685136978E-01    0.3582681502E-01    0.3750509853E-03    0.6096959616E+00
    0.3300000000E+05    0.6690303906E+00    0.2604659552E-01    0.3587248899E-01    0.3614682707E-03    0.6108142570E+00
    0.3500000000E+05    0.6697427450E+00    0.2531407860E-01    0.3591378762E-01    0.3492268803E-03    0.6118394233E+00
    0.3700000000E+05    0.6703703821E+00    0.2464343410E-01    0.3595132396E-01    0.3381218240E-03    0.6127838445E+00
    0.3900000000E+05    0.6709273315E+00    0.2402626667E-01    0.3598559892E-01    0.3279890499E-03    0.6136577049E+00
    0.4100000000E+05    0.6714247215E+00    0.2345570494E-01    0.3601702624E-01    0.3186955843E-03    0.6144694684E+00
    0.4300000000E+05    0.6718714866E+00    0.2292606239E-01    0.3604595096E-01    0.3101324071E-03    0.6152262360E+00
    0.4500000000E+05    0.6722748778E+00    0.2243258623E-01    0.3607266327E-01    0.3022092132E-03    0.6159340164E+00
    0.4700000000E+05    0.6726408386E+00    0.2197126843E-01    0.3609740925E-01    0.2948505007E-03    0.6165979332E+00
    0.4900000000E+05    0.6729742844E+00    0.2153870151E-01    0.3612039897E-01    0.2879926091E-03    0.6172223867E+00
    0.1000000000E+05    0.6348838496E+00    0.4845437960E-01    0.3462390985E-01    0.7827999544E-03    0.5834021717E+00
    0.3000000000E+05    0.6677624012E+00    0.2728479803E-01    0.3580210691E-01    0.3824239020E-03    0.6090972627E+00
    0.5000000000E+05    0.6731301221E+00    0.2133227107E-01    0.3613129268E-01    0.2847342446E-03    0.6175210236E+00
    0.7000000000E+05    0.6752509029E+00    0.1818319672E-01    0.3628988298E-01    0.2361689916E-03    0.6221222735E+00
    0.9000000000E+05    0.6763781339E+00    0.1614605250E-01    0.3638255416E-01    0.2058720605E-03    0.6251373346E+00
    0.1100000000E+06    0.6770758017E+00    0.1468588265E-01    0.3644245336E-01    0.1846832873E-03    0.6273133284E+00
    0.1300000000E+06    0.6775497301E+00    0.1357140454E-01    0.3648361404E-01    0.1688019625E-03    0.6289814109E+00
    0.1500000000E+06    0.6778925670E+00    0.1268373874E-01    0.3651305168E-01    0.1563311871E-03    0.6303141598E+00
    0.1700000000E+06    0.6781520780E+00    0.1195455425E-01    0.3653467859E-01    0.1462047901E-03    0.6314116232E+00
    0.1900000000E+06    0.6783553596E+00    0.1134135634E-01    0.3655085336E-01    0.1377714182E-03    0.6323363774E+00
    0.2100000000E+06    0.6785189173E+00    0.1081611954E-01    0.3656308361E-01    0.1306077234E-03    0.6331298598E+00
    0.2300000000E+06    0.6786533755E+00    0.1035949927E-01    0.3657237798E-01    0.1244250517E-03    0.6338207583E+00
    0.2500000000E+06    0.6787658807E+00    0.9957647467E-02    0.3657943649E-01    0.1190189266E-03    0.6344296572E+00
    0.2700000000E+06    0.6788614167E+00    0.9600350705E-02    0.3658475973E-01    0.1142399129E-03    0.6349717659E+00
    0.2900000000E+06    0.6789435643E+00    0.9279886396E-02    0.3658871481E-01    0.1099759280E-03    0.6354586016E+00
    0.3100000000E+06    0.6790149629E+00    0.8990290914E-02    0.3659157672E-01    0.1061410392E-03    0.6358990697E+00
    0.3300000000E+06    0.6790776002E+00    0.8726874836E-02    0.3659355524E-01    0.1026681106E-03    0.6363001799E+00
    0.3500000000E+06    0.6791330023E+00    0.8485892299E-02    0.3659481293E-01    0.9950382959E-04    0.6366675368E+00
    0.3700000000E+06    0.6791823597E+00    0.8264309655E-02    0.3659547756E-01    0.9660525144E-04    0.6370056833E+00
    0.3900000000E+06    0.6792266152E+00    0.8059639981E-02    0.3659565074E-01    0.9393734465E-04    0.6373183459E+00
    0.4100000000E+06    0.6792665249E+00    0.7869822341E-02    0.3659541416E-01    0.9147121071E-04    0.6376086153E+00
    0.4300000000E+06    0.6793027024E+00    0.7693132159E-02    0.3659483416E-01    0.8918277006E-04    0.6378790789E+00
    0.4500000000E+06    0.6793356508E+00    0.7528113645E-02    0.3659396507E-01    0.8705177651E-04    0.6381319225E+00
    0.4700000000E+06    0.6793657865E+00    0.7373528127E-02    0.3659285170E-01    0.8506106719E-04    0.6383690065E+00
    0.4900000000E+06    0.6793934571E+00    0.7228314036E-02    0.3659153130E-01    0.8319598442E-04    0.6385919264E+00
    0.1000000000E+06    0.6767637632E+00    0.1536212661E-01    0.3641548310E-01    0.1944422665E-03    0.6263041599E+00
    0.3000000000E+06    0.6789804703E+00    0.9131548541E-02    0.3659026802E-01    0.1080094158E-03    0.6356841557E+00
    0.5000000000E+06    0.6794064613E+00    0.7158930109E-02    0.3659080342E-01    0.8230654443E-04    0.6386985126E+00
    0.7000000000E+06    0.6795886323E+00    0.6095130344E-02    0.3657077348E-01    0.6881209870E-04    0.6403396139E+00
    0.9000000000E+06    0.6796902255E+00    0.5403604063E-02    0.3654698653E-01    0.6019146894E-04    0.6414150798E+00
    0.1100000000E+07    0.6797552400E+00    0.4907466390E-02    0.3652323180E-01    0.5408619618E-04    0.6421922728E+00
    0.1300000000E+07    0.6798005316E+00    0.4528939088E-02    0.3650054506E-01    0.4947607058E-04    0.6427891567E+00
    0.1500000000E+07    0.6798339592E+00    0.4227719110E-02    0.3647917859E-01    0.4583888750E-04    0.6432670474E+00
    0.1700000000E+07    0.6798596858E+00    0.3980544534E-02    0.3645913053E-01    0.4287619625E-04    0.6436614379E+00
    0.1900000000E+07    0.6798801250E+00    0.3772918227E-02    0.3644031548E-01    0.4040352367E-04    0.6439945088E+00
    0.2100000000E+07    0.6798967736E+00    0.3595269689E-02    0.3642262542E-01    0.3829994646E-04    0.6442809418E+00
    0.2300000000E+07    0.6799106101E+00    0.3440990576E-02    0.3640595238E-01    0.3648248565E-04    0.6445308999E+00
    0.2500000000E+07    0.6799223014E+00    0.3305350424E-02    0.3639019645E-01    0.3489207045E-04    0.6447516760E+00
    0.2700000000E+07    0.6799323179E+00    0.3184861330E-02    0.3637526816E-01    0.3348536357E-04    0.6449486599E+00
    0.2900000000E+07    0.6799410013E+00    0.3076887161E-02    0.3636108847E-01    0.3222975982E-04    0.6451259344E+00
    0.3100000000E+07    0.6799486056E+00    0.2979393275E-02    0.3634758794E-01    0.3110019868E-04    0.6452866580E+00
    0.3300000000E+07    0.6799553238E+00    0.2890780679E-02    0.3633470560E-01    0.3007706153E-04    0.6454333178E+00
    0.3500000000E+07    0.6799613052E+00    0.2809772887E-02    0.3632238790E-01    0.2914474298E-04    0.6455679037E+00
    0.3700000000E+07    0.6799666670E+00    0.2735336760E-02    0.3631058764E-01    0.2829065500E-04    0.6456920293E+00
    0.3900000000E+07    0.6799715029E+00    0.2666625875E-02    0.3629926312E-01    0.2750451710E-04    0.6458070195E+00
    0.4100000000E+07    0.6799758881E+00    0.2602939228E-02    0.3628837735E-01    0.2677784031E-04    0.6459139734E+00
    0.4300000000E+07    0.6799798844E+00    0.2543690581E-02    0.3627789740E-01    0.2610354537E-04    0.6460138121E+00
    0.4500000000E+07    0.6799835424E+00    0.2488385360E-02    0.3626779387E-01    0.2547567586E-04    0.6461073139E+00
    0.4700000000E+07    0.6799869043E+00    0.2436602996E-02    0.3625804040E-01    0.2488917947E-04    0.6461951420E+00
    0.4900000000E+07    0.6799900057E+00    0.2387983256E-02    0.3624861328E-01    0.2433973916E-04    0.6462778653E+00
    0.1000000000E+07    0.6797259349E+00    0.5137241898E-02    0.3653501104E-01    0.5690512070E-04    0.6418316710E+00
    0.3000000000E+07    0.6799449251E+00    0.3026938803E-02    0.3635425731E-01    0.3165055832E-04    0.6452081962E+00
    0.5000000000E+07    0.6799914681E+00    0.2364760614E-02    0.3624401533E-01    0.2407773396E-04    0.6463174690E+00
    0.7000000000E+07    0.6800123444E+00    0.2009381924E-02    0.3616495083E-01    0.2010468889E-04    0.6469319602E+00
    0.9000000000E+07    0.6800243894E+00    0.1779068031E-02    0.3610314132E-01    0.1756952698E-04    0.6473405066E+00
    0.1100000000E+08    0.6800323107E+00    0.1614181408E-02    0.3605231592E-01    0.1577598257E-04    0.6476394484E+00
    0.1300000000E+08    0.6800379580E+00    0.1488583785E-02    0.3600911254E-01    0.1442290131E-04    0.6478715842E+00
    0.1500000000E+08    0.6800422114E+00    0.1388763962E-02    0.3597151585E-01    0.1335621470E-04    0.6480593006E+00
    0.1700000000E+08    0.6800455446E+00    0.1306938666E-02    0.3593822080E-01    0.1248792442E-04    0.6482156313E+00
    0.1900000000E+08    0.6800482368E+00    0.1238264913E-02    0.3590833294E-01    0.1176367277E-04    0.6483487658E+00
    0.2100000000E+08    0.6800504630E+00    0.1179549759E-02    0.3588121204E-01    0.1114784942E-04    0.6484641521E+00
    0.2300000000E+08    0.6800523392E+00    0.1128590995E-02    0.3585638376E-01    0.1061603195E-04    0.6485655798E+00
    0.2500000000E+08    0.6800539454E+00    0.1083813752E-02    0.3583348677E-01    0.1015084372E-04    0.6486557804E+00
    0.2700000000E+08    0.6800553384E+00    0.1044057836E-02    0.3581223931E-01    0.9739542542E-05    0.6487367813E+00
