  Pressure (Pa) 22mC5-400 (mol/kg) 2mC6-400 (mol/kg) 3mC6-400 (mol/kg) 33mC5-400 (mol/kg) C7-400 (mol/kg)
    0.1000000000E+01    0.1593141525E-02    0.7854199755E-03    0.3115478625E-02    0.1279253888E-03    0.1348234820E-01
    0.3000000000E+01    0.4748619395E-02    0.2254456493E-02    0.8894722660E-02    0.3673643985E-03    0.3850152339E-01
    0.5000000000E+01    0.7863779295E-02    0.3603390356E-02    0.1414138718E-01    0.5874537404E-03    0.6122642746E-01
    0.7000000000E+01    0.1093950423E-01    0.4848013738E-02    0.1892615050E-01    0.7907498654E-03    0.8196104653E-01
    0.9000000000E+01    0.1397665100E-01    0.6001383791E-02    0.2330770041E-01    0.9793648601E-03    0.1009578363E+00
    0.1100000000E+02    0.1697605115E-01    0.7074389365E-02    0.2733517407E-01    0.1155058704E-02    0.1184282029E+00
    0.1300000000E+02    0.1993851191E-01    0.8076183054E-02    0.3105002556E-01    0.1319309581E-02    0.1345505259E+00
    0.1500000000E+02    0.2286481707E-01    0.9014514368E-02    0.3448747157E-01    0.1473368080E-02    0.1494763691E+00
    0.1700000000E+02    0.2575572779E-01    0.9895989353E-02    0.3767762252E-01    0.1618299413E-02    0.1633353413E+00
    0.1900000000E+02    0.2861198347E-01    0.1072627488E-01    0.4064637610E-01    0.1755016625E-02    0.1762389355E+00
    0.2100000000E+02    0.3143430246E-01    0.1151026081E-01    0.4341612954E-01    0.1884306944E-02    0.1882835906E+00
    0.2300000000E+02    0.3422338285E-01    0.1225218983E-01    0.4600635204E-01    0.2006852872E-02    0.1995531510E+00
    0.2500000000E+02    0.3697990313E-01    0.1295576218E-01    0.4843404840E-01    0.2123249181E-02    0.2101208601E+00
    0.2700000000E+02    0.3970452292E-01    0.1362422071E-01    0.5071413727E-01    0.2234016724E-02    0.2200509860E+00
    0.2900000000E+02    0.4239788360E-01    0.1426042053E-01    0.5285976177E-01    0.2339613726E-02    0.2294001574E+00
    0.3100000000E+02    0.4506060892E-01    0.1486688626E-01    0.5488254621E-01    0.2440445071E-02    0.2382184666E+00
    0.3300000000E+02    0.4769330562E-01    0.1544585950E-01    0.5679280951E-01    0.2536869990E-02    0.2465503883E+00
    0.3500000000E+02    0.5029656400E-01    0.1599933830E-01    0.5859974358E-01    0.2629208459E-02    0.2544355457E+00
    0.3700000000E+02    0.5287095848E-01    0.1652911026E-01    0.6031156326E-01    0.2717746550E-02    0.2619093561E+00
    0.3900000000E+02    0.5541704811E-01    0.1703678031E-01    0.6193563290E-01    0.2802740935E-02    0.2690035751E+00
    0.4100000000E+02    0.5793537711E-01    0.1752379424E-01    0.6347857376E-01    0.2884422685E-02    0.2757467588E+00
    0.4300000000E+02    0.6042647532E-01    0.1799145863E-01    0.6494635553E-01    0.2963000493E-02    0.2821646570E+00
    0.4500000000E+02    0.6289085873E-01    0.1844095793E-01    0.6634437465E-01    0.3038663430E-02    0.2882805509E+00
    0.4700000000E+02    0.6532902985E-01    0.1887336893E-01    0.6767752156E-01    0.3111583290E-02    0.2941155420E+00
    0.4900000000E+02    0.6774147823E-01    0.1928967336E-01    0.6895023877E-01    0.3181916613E-02    0.2996888023E+00
    0.1000000000E+02    0.1548101839E-01    0.6547323723E-02    0.2536294452E-01    0.1068728637E-02    0.1098719801E+00
    0.3000000000E+02    0.4373303737E-01    0.1456722392E-01    0.5388583571E-01    0.2390601664E-02    0.2338727681E+00
    0.5000000000E+02    0.6893820591E-01    0.1949206907E-01    0.6956521452E-01    0.3216158504E-02    0.3023828006E+00
    0.7000000000E+02    0.9163225656E-01    0.2287648400E-01    0.7950446510E-01    0.3794198887E-02    0.3460291300E+00
    0.9000000000E+02    0.1122285764E+00    0.2532851743E-01    0.8637853482E-01    0.4221502373E-02    0.3763648377E+00
    0.1100000000E+03    0.1310513037E+00    0.2715038960E-01    0.9142123916E-01    0.4546075081E-02    0.3987277503E+00
    0.1300000000E+03    0.1483582652E+00    0.2851725111E-01    0.9528128096E-01    0.4795768949E-02    0.4159290414E+00
    0.1500000000E+03    0.1643572026E+00    0.2954152341E-01    0.9833266697E-01    0.4988520380E-02    0.4295921923E+00
    0.1700000000E+03    0.1792174670E+00    0.3030055937E-01    0.1008063585E+00    0.5136729468E-02    0.4407214309E+00
    0.1900000000E+03    0.1930785863E+00    0.3085022912E-01    0.1028527816E+00    0.5249402798E-02    0.4499719070E+00
    0.2100000000E+03    0.2060566385E+00    0.3123231803E-01    0.1045741669E+00    0.5333317626E-02    0.4577896073E+00
    0.2300000000E+03    0.2182490566E+00    0.3147889474E-01    0.1060424504E+00    0.5393708656E-02    0.4644888798E+00
    0.2500000000E+03    0.2297382976E+00    0.3161505993E-01    0.1073097402E+00    0.5434700397E-02    0.4702978059E+00
    0.2700000000E+03    0.2405946768E+00    0.3166076582E-01    0.1084147194E+00    0.5459593717E-02    0.4753859857E+00
    0.2900000000E+03    0.2508785784E+00    0.3163206966E-01    0.1093867158E+00    0.5471063674E-02    0.4798822153E+00
    0.3100000000E+03    0.2606421997E+00    0.3154202574E-01    0.1102483739E+00    0.5471300644E-02    0.4838861048E+00
    0.3300000000E+03    0.2699309368E+00    0.3140133685E-01    0.1110174599E+00    0.5462113694E-02    0.4874759330E+00
    0.3500000000E+03    0.2787844970E+00    0.3121884049E-01    0.1117081102E+00    0.5445007970E-02    0.4907140893E+00
    0.3700000000E+03    0.2872377975E+00    0.3100187816E-01    0.1123317156E+00    0.5421243680E-02    0.4936509266E+00
    0.3900000000E+03    0.2953216975E+00    0.3075658028E-01    0.1128975579E+00    0.5391881739E-02    0.4963275430E+00
    0.4100000000E+03    0.3030635981E+00    0.3048808868E-01    0.1134132774E+00    0.5357819561E-02    0.4987778231E+00
    0.4300000000E+03    0.3104879378E+00    0.3020073251E-01    0.1138852213E+00    0.5319819433E-02    0.5010299619E+00
    0.4500000000E+03    0.3176166038E+00    0.2989816847E-01    0.1143187063E+00    0.5278531241E-02    0.5031076155E+00
    0.4700000000E+03    0.3244692752E+00    0.2958349375E-01    0.1147182202E+00    0.5234510825E-02    0.5050307840E+00
    0.4900000000E+03    0.3310637114E+00    0.2925933756E-01    0.1150875775E+00    0.5188234918E-02    0.5068164946E+00
    0.1000000000E+03    0.1218441874E+00    0.2630532349E-01    0.8907950264E-01    0.4394580303E-02    0.3883293331E+00
    0.3000000000E+03    0.2558224416E+00    0.3159399849E-01    0.1098301292E+00    0.5472465291E-02    0.4819403833E+00
    0.5000000000E+03    0.3342691770E+00    0.2909441628E-01    0.1152619860E+00    0.5164381565E-02    0.5076624454E+00
    0.7000000000E+03    0.3880327748E+00    0.2568990228E-01    0.1177563890E+00    0.4642390020E-02    0.5200081587E+00
    0.9000000000E+03    0.4277460861E+00    0.2254925183E-01    0.1191792786E+00    0.4129524569E-02    0.5273554396E+00
    0.1100000000E+04    0.4584054932E+00    0.1987187540E-01    0.1200924346E+00    0.3675441405E-02    0.5322701137E+00
    0.1300000000E+04    0.4827968491E+00    0.1763683177E-01    0.1207237112E+00    0.3285752989E-02    0.5358097517E+00
    0.1500000000E+04    0.5026417900E+00    0.1577646624E-01    0.1211830623E+00    0.2954215969E-02    0.5384926617E+00
    0.1700000000E+04    0.5190776290E+00    0.1422194076E-01    0.1215300421E+00    0.2672138117E-02    0.5406038205E+00
    0.1900000000E+04    0.5328913731E+00    0.1291440839E-01    0.1217996912E+00    0.2431233171E-02    0.5423133759E+00
    0.2100000000E+04    0.5446467115E+00    0.1180629907E-01    0.1220139565E+00    0.2224381878E-02    0.5437294313E+00
    0.2300000000E+04    0.5547584106E+00    0.1085990855E-01    0.1221872726E+00    0.2045703013E-02    0.5449240932E+00
    0.2500000000E+04    0.5635384349E+00    0.1004550519E-01    0.1223295147E+00    0.1890412141E-02    0.5459473775E+00
    0.2700000000E+04    0.5712257973E+00    0.9339608284E-02    0.1224476611E+00    0.1754635295E-02    0.5468351122E+00
    0.2900000000E+04    0.5780065494E+00    0.8723585697E-02    0.1225467783E+00    0.1635233904E-02    0.5476136641E+00
    0.3100000000E+04    0.5840275430E+00    0.8182559198E-02    0.1226306310E+00    0.1529656777E-02    0.5483028866E+00
    0.3300000000E+04    0.5894061266E+00    0.7704564758E-02    0.1227020724E+00    0.1435820339E-02    0.5489180275E+00
    0.3500000000E+04    0.5942371138E+00    0.7279911999E-02    0.1227633025E+00    0.1352013624E-02    0.5494709995E+00
    0.3700000000E+04    0.5985978789E+00    0.6900695444E-02    0.1228160438E+00    0.1276823530E-02    0.5499712516E+00
    0.3900000000E+04    0.6025521396E+00    0.6560420317E-02    0.1228616626E+00    0.1209076138E-02    0.5504263791E+00
    0.4100000000E+04    0.6061528048E+00    0.6253714563E-02    0.1229012562E+00    0.1147790586E-02    0.5508425606E+00
    0.4300000000E+04    0.6094441438E+00    0.5976105873E-02    0.1229357152E+00    0.1092142696E-02    0.5512248760E+00
    0.4500000000E+04    0.6124634583E+00    0.5723847918E-02    0.1229657691E+00    0.1041436175E-02    0.5515775423E+00
    0.4700000000E+04    0.6152423841E+00    0.5493784020E-02    0.1229920213E+00    0.9950796919E-03    0.5519040913E+00
    0.4900000000E+04    0.6178079143E+00    0.5283239480E-02    0.1230149743E+00    0.9525685402E-03    0.5522075040E+00
    0.1000000000E+04    0.4440000406E+00    0.2115187679E-01    0.1196812488E+00    0.3894311916E-02    0.5300321549E+00
    0.3000000000E+04    0.5811040828E+00    0.8444505638E-02    0.1225904165E+00    0.1580857267E-02    0.5479683979E+00
    0.5000000000E+04    0.6190180250E+00    0.5184561482E-02    0.1230253481E+00    0.9326172389E-03    0.5523513415E+00
    0.7000000000E+04    0.6362133123E+00    0.3828832904E-02    0.1231334017E+00    0.6573312219E-03    0.5544675563E+00
    0.9000000000E+04    0.6459223257E+00    0.3103047657E-02    0.1231469558E+00    0.5102158287E-03    0.5557586817E+00
    0.1100000000E+05    0.6521318234E+00    0.2652635110E-02    0.1231249278E+00    0.4199938747E-03    0.5566482869E+00
    0.1300000000E+05    0.6564354203E+00    0.2345079113E-02    0.1230879526E+00    0.3594016067E-03    0.5573088075E+00
    0.1500000000E+05    0.6595900813E+00    0.2120697413E-02    0.1230446349E+00    0.3160137829E-03    0.5578246627E+00
    0.1700000000E+05    0.6620000608E+00    0.1948921393E-02    0.1229989591E+00    0.2834343947E-03    0.5582424746E+00
    0.1900000000E+05    0.6639004122E+00    0.1812549389E-02    0.1229528892E+00    0.2580623462E-03    0.5585902880E+00
    0.2100000000E+05    0.6654369336E+00    0.1701180916E-02    0.1229074233E+00    0.2377258341E-03    0.5588860867E+00
    0.2300000000E+05    0.6667047747E+00    0.1608161631E-02    0.1228630671E+00    0.2210417861E-03    0.5591419898E+00
    0.2500000000E+05    0.6677686335E+00    0.1529035052E-02    0.1228200640E+00    0.2070896520E-03    0.5593664962E+00
    0.2700000000E+05    0.6686740153E+00    0.1460702241E-02    0.1227785135E+00    0.1952339274E-03    0.5595657628E+00
    0.2900000000E+05    0.6694538475E+00    0.1400939364E-02    0.1227384353E+00    0.1850221995E-03    0.5597443728E+00
    0.3100000000E+05    0.6701325390E+00    0.1348107384E-02    0.1226998044E+00    0.1761238504E-03    0.5599058175E+00
    0.3300000000E+05    0.6707285637E+00    0.1300970278E-02    0.1226625716E+00    0.1682917490E-03    0.5600528091E+00
    0.3500000000E+05    0.6712561590E+00    0.1258577240E-02    0.1226266758E+00    0.1613375003E-03    0.5601874912E+00
    0.3700000000E+05    0.6717264735E+00    0.1220184048E-02    0.1225920504E+00    0.1551149815E-03    0.5603115831E+00
    0.3900000000E+05    0.6721483602E+00    0.1185199195E-02    0.1225586276E+00    0.1495091111E-03    0.5604264827E+00
    0.4100000000E+05    0.6725289386E+00    0.1153146118E-02    0.1225263409E+00    0.1444280107E-03    0.5605333397E+00
    0.4300000000E+05    0.6728739981E+00    0.1123636181E-02    0.1224951265E+00    0.1397974250E-03    0.5606331094E+00
    0.4500000000E+05    0.6731882953E+00    0.1096348978E-02    0.1224649235E+00    0.1355566774E-03    0.5607265937E+00
    0.4700000000E+05    0.6734757738E+00    0.1071017751E-02    0.1224356748E+00    0.1316556898E-03    0.5608144711E+00
    0.4900000000E+05    0.6737397310E+00    0.1047418415E-02    0.1224073270E+00    0.1280527547E-03    0.5608973203E+00
    0.1000000000E+05    0.6493358017E+00    0.2854286116E-02    0.1231386677E+00    0.4602200808E-03    0.5562398494E+00
    0.3000000000E+05    0.6698045654E+00    0.1373742091E-02    0.1227189416E+00    0.1804259147E-03    0.5598270559E+00
    0.5000000000E+05    0.6738637748E+00    0.1036207749E-02    0.1223934752E+00    0.1263518882E-03    0.5609370174E+00
    0.7000000000E+05    0.6755998046E+00    0.8690840299E-03    0.1221533562E+00    0.1018277600E-03    0.5615576508E+00
    0.9000000000E+05    0.6765647293E+00    0.7645273998E-03    0.1219641220E+00    0.8728821435E-04    0.5619785327E+00
    0.1100000000E+06    0.6771797051E+00    0.6910985898E-03    0.1218081010E+00    0.7744557117E-04    0.5622932253E+00
    0.1300000000E+06    0.6776063081E+00    0.6358260633E-03    0.1216753850E+00    0.7023384708E-04    0.5625428158E+00
    0.1500000000E+06    0.6779198482E+00    0.5922449884E-03    0.1215599079E+00    0.6466487913E-04    0.5627487334E+00
    0.1700000000E+06    0.6781601761E+00    0.5567204422E-03    0.1214576957E+00    0.6020070379E-04    0.5629234744E+00
    0.1900000000E+06    0.6783503624E+00    0.5270291245E-03    0.1213660060E+00    0.5652074450E-04    0.5630749227E+00
    0.2100000000E+06    0.6785046927E+00    0.5017237119E-03    0.1212828677E+00    0.5342076632E-04    0.5632083520E+00
    0.2300000000E+06    0.6786324882E+00    0.4798156199E-03    0.1212068164E+00    0.5076378338E-04    0.5633274543E+00
    0.2500000000E+06    0.6787400910E+00    0.4606032622E-03    0.1211367346E+00    0.4845408282E-04    0.5634349092E+00
    0.2700000000E+06    0.6788319676E+00    0.4435729500E-03    0.1210717502E+00    0.4642252833E-04    0.5635327198E+00
    0.2900000000E+06    0.6789113546E+00    0.4283386830E-03    0.1210111695E+00    0.4461778361E-04    0.5636224213E+00
    0.3100000000E+06    0.6789806554E+00    0.4146039809E-03    0.1209544314E+00    0.4300083237E-04    0.5637052144E+00
    0.3300000000E+06    0.6790416926E+00    0.4021368063E-03    0.1209010760E+00    0.4154142627E-04    0.5637820554E+00
    0.3500000000E+06    0.6790958733E+00    0.3907525802E-03    0.1208507213E+00    0.4021570791E-04    0.5638537177E+00
    0.3700000000E+06    0.6791443014E+00    0.3803023720E-03    0.1208030466E+00    0.3900457602E-04    0.5639208350E+00
    0.3900000000E+06    0.6791878553E+00    0.3706644972E-03    0.1207577803E+00    0.3789253374E-04    0.5639839334E+00
    0.4100000000E+06    0.6792272425E+00    0.3617384174E-03    0.1207146900E+00    0.3686686010E-04    0.5640434534E+00
    0.4300000000E+06    0.6792630397E+00    0.3534402323E-03    0.1206735755E+00    0.3591700273E-04    0.5640997682E+00
    0.4500000000E+06    0.6792957212E+00    0.3456992944E-03    0.1206342630E+00    0.3503412530E-04    0.5641531960E+00
    0.4700000000E+06    0.6793256812E+00    0.3384556301E-03    0.1205966007E+00    0.3421076514E-04    0.5642040106E+00
    0.4900000000E+06    0.6793532497E+00    0.3316579489E-03    0.1205604553E+00    0.3344057074E-04    0.5642524490E+00
    0.1000000000E+06    0.6769028273E+00    0.7249571971E-03    0.1218826995E+00    0.8194665484E-04    0.5621459181E+00
    0.3000000000E+06    0.6789471405E+00    0.4212996693E-03    0.1209823509E+00    0.4378789753E-04    0.5636646168E+00
    0.5000000000E+06    0.6793662260E+00    0.3284123084E-03    0.1205429141E+00    0.3307367862E-04    0.5642758428E+00
    0.7000000000E+06    0.6795494819E+00    0.2788318475E-03    0.1202491987E+00    0.2753810649E-04    0.5646576051E+00
    0.9000000000E+06    0.6796530685E+00    0.2467767784E-03    0.1200281686E+00    0.2403030265E-04    0.5649342160E+00
    0.1100000000E+07    0.6797200122E+00    0.2238587860E-03    0.1198508600E+00    0.2155838603E-04    0.5651506312E+00
    0.1300000000E+07    0.6797670134E+00    0.2064166411E-03    0.1197027868E+00    0.1969822452E-04    0.5653281262E+00
    0.1500000000E+07    0.6798019307E+00    0.1925625223E-03    0.1195756529E+00    0.1823434382E-04    0.5654784273E+00
    0.1700000000E+07    0.6798289570E+00    0.1812107456E-03    0.1194642606E+00    0.1704425183E-04    0.5656086747E+00
    0.1900000000E+07    0.6798505375E+00    0.1716865767E-03    0.1193651363E+00    0.1605254061E-04    0.5657235337E+00
    0.2100000000E+07    0.6798681963E+00    0.1635455703E-03    0.1192758433E+00    0.1520993636E-04    0.5658262181E+00
    0.2300000000E+07    0.6798829338E+00    0.1564814040E-03    0.1191946062E+00    0.1448271374E-04    0.5659190342E+00
    0.2500000000E+07    0.6798954345E+00    0.1502751406E-03    0.1191200908E+00    0.1384691567E-04    0.5660036927E+00
    0.2700000000E+07    0.6799061832E+00    0.1447655654E-03    0.1190512694E+00    0.1328499775E-04    0.5660814966E+00
    0.2900000000E+07    0.6799155328E+00    0.1398309734E-03    0.1189873335E+00    0.1278378075E-04    0.5661534614E+00
    0.3100000000E+07    0.6799237466E+00    0.1353775242E-03    0.1189276354E+00    0.1233314868E-04    0.5662203933E+00
    0.3300000000E+07    0.6799310252E+00    0.1313315360E-03    0.1188716483E+00    0.1192519163E-04    0.5662829431E+00
    0.3500000000E+07    0.6799375241E+00    0.1276342357E-03    0.1188189379E+00    0.1155362435E-04    0.5663416436E+00
    0.3700000000E+07    0.6799433658E+00    0.1242380886E-03    0.1187691419E+00    0.1121338164E-04    0.5663969363E+00
    0.3900000000E+07    0.6799486482E+00    0.1211041765E-03    0.1187219551E+00    0.1090033030E-04    0.5664491914E+00
    0.4100000000E+07    0.6799534504E+00    0.1182002870E-03    0.1186771177E+00    0.1061106000E-04    0.5664987219E+00
    0.4300000000E+07    0.6799578371E+00    0.1154994958E-03    0.1186344071E+00    0.1034272874E-04    0.5665457952E+00
    0.4500000000E+07    0.6799618619E+00    0.1129791002E-03    0.1185936307E+00    0.1009294680E-04    0.5665906411E+00
    0.4700000000E+07    0.6799655692E+00    0.1106198036E-03    0.1185546210E+00    0.9859688385E-05    0.5666334590E+00
    0.4900000000E+07    0.6799689964E+00    0.1084050848E-03    0.1185172314E+00    0.9641223452E-05    0.5666744226E+00
    0.1000000000E+07    0.6796897668E+00    0.2344646621E-03    0.1199351563E+00    0.2269849021E-04    0.5650483016E+00
    0.3000000000E+07    0.6799197679E+00    0.1375491126E-03    0.1189569901E+00    0.1255267981E-04    0.5661875126E+00
    0.5000000000E+07    0.6799706152E+00    0.1073474145E-03    0.1184991032E+00    0.9537065441E-05    0.5666942575E+00
    0.7000000000E+07    0.6799939288E+00    0.9117462096E-04    0.1181970328E+00    0.7959055387E-05    0.5670224301E+00
    0.9000000000E+07    0.6800075993E+00    0.8070566224E-04    0.1179712930E+00    0.6953483687E-05    0.5672651152E+00
    0.1100000000E+08    0.6800167066E+00    0.7321625835E-04    0.1177910133E+00    0.6242658708E-05    0.5674575751E+00
    0.1300000000E+08    0.6800232703E+00    0.6751433912E-04    0.1176409344E+00    0.5706699446E-05    0.5676169787E+00
    0.1500000000E+08    0.6800282599E+00    0.6298438611E-04    0.1175123856E+00    0.5284352611E-05    0.5677529791E+00
    0.1700000000E+08    0.6800322023E+00    0.5927210892E-04    0.1173999652E+00    0.4940664170E-05    0.5678715428E+00
    0.1900000000E+08    0.6800354095E+00    0.5615719425E-04    0.1173000787E+00    0.4654057393E-05    0.5679766149E+00
    0.2100000000E+08    0.6800380789E+00    0.5349446303E-04    0.1172102138E+00    0.4410404787E-05    0.5680709391E+00
    0.2300000000E+08    0.6800403420E+00    0.5118382419E-04    0.1171285445E+00    0.4200021627E-05    0.5681565005E+00
    0.2500000000E+08    0.6800422898E+00    0.4915372368E-04    0.1170537026E+00    0.4016019710E-05    0.5682347817E+00
    0.2700000000E+08    0.6800439874E+00    0.4735146324E-04    0.1169846360E+00    0.3853349507E-05    0.5683069188E+00
