  Pressure (Pa) 22mC5-400 (mol/kg) 2mC6-400 (mol/kg) 3mC6-400 (mol/kg) 33mC5-400 (mol/kg) C7-400 (mol/kg)
    0.1000000000E+01    0.1588240771E-02    0.3930049832E-02    0.2082594350E-02    0.1280124218E-03    0.1013889030E-01
    0.3000000000E+01    0.4705605104E-02    0.1129337263E-01    0.5976208183E-02    0.3679709489E-03    0.2910057276E-01
    0.5000000000E+01    0.7747215482E-02    0.1806267872E-01    0.9546512995E-02    0.5887229303E-03    0.4649517378E-01
    0.7000000000E+01    0.1071655031E-01    0.2430823809E-01    0.1283331773E-01    0.7925448467E-03    0.6251536004E-01
    0.9000000000E+01    0.1361687097E-01    0.3008929886E-01    0.1587010821E-01    0.9813552771E-03    0.7732321874E-01
    0.1100000000E+02    0.1645123860E-01    0.3545619795E-01    0.1868525725E-01    0.1156783547E-02    0.9105610710E-01
    0.1300000000E+02    0.1922252942E-01    0.4045200218E-01    0.2130296693E-01    0.1320223090E-02    0.1038312075E+00
    0.1500000000E+02    0.2193344858E-01    0.4511379748E-01    0.2374400968E-01    0.1472873351E-02    0.1157491108E+00
    0.1700000000E+02    0.2458654281E-01    0.4947371138E-01    0.2602631670E-01    0.1615773017E-02    0.1268966611E+00
    0.1900000000E+02    0.2718421201E-01    0.5355973104E-01    0.2816544907E-01    0.1749826586E-02    0.1373492342E+00
    0.2100000000E+02    0.2972871973E-01    0.5739636326E-01    0.3017497812E-01    0.1875825800E-02    0.1471725767E+00
    0.2300000000E+02    0.3222220287E-01    0.6100517084E-01    0.3206679461E-01    0.1994467062E-02    0.1564243017E+00
    0.2500000000E+02    0.3466668047E-01    0.6440521181E-01    0.3385136207E-01    0.2106365684E-02    0.1651551141E+00
    0.2700000000E+02    0.3706406187E-01    0.6761340143E-01    0.3553792544E-01    0.2212067640E-02    0.1734098198E+00
    0.2900000000E+02    0.3941615406E-01    0.7064481243E-01    0.3713468423E-01    0.2312059291E-02    0.1812281633E+00
    0.3100000000E+02    0.4172466862E-01    0.7351292547E-01    0.3864893682E-01    0.2406775520E-02    0.1886455262E+00
    0.3300000000E+02    0.4399122794E-01    0.7622983936E-01    0.4008720151E-01    0.2496606532E-02    0.1956935124E+00
    0.3500000000E+02    0.4621737107E-01    0.7880644831E-01    0.4145531851E-01    0.2581903606E-02    0.2024004422E+00
    0.3700000000E+02    0.4840455904E-01    0.8125259218E-01    0.4275853633E-01    0.2662983957E-02    0.2087917699E+00
    0.3900000000E+02    0.5055417981E-01    0.8357718444E-01    0.4400158523E-01    0.2740134882E-02    0.2148904395E+00
    0.4100000000E+02    0.5266755288E-01    0.8578832166E-01    0.4518874001E-01    0.2813617302E-02    0.2207171888E+00
    0.4300000000E+02    0.5474593345E-01    0.8789337756E-01    0.4632387382E-01    0.2883668807E-02    0.2262908093E+00
    0.4500000000E+02    0.5679051639E-01    0.8989908409E-01    0.4741050453E-01    0.2950506279E-02    0.2316283715E+00
    0.4700000000E+02    0.5880243987E-01    0.9181160174E-01    0.4845183481E-01    0.3014328163E-02    0.2367454180E+00
    0.4900000000E+02    0.6078278870E-01    0.9363658053E-01    0.4945078684E-01    0.3075316442E-02    0.2416561324E+00
    0.1000000000E+02    0.1504211499E-01    0.3282167314E-01    0.1730378706E-01    0.1070650103E-02    0.8431628355E-01
    0.3000000000E+02    0.4057575512E-01    0.7209849485E-01    0.3790169941E-01    0.2360051470E-02    0.1849849098E+00
    0.5000000000E+02    0.6176144781E-01    0.9451788214E-01    0.4993521504E-01    0.3104800776E-02    0.2440382123E+00
    0.7000000000E+02    0.7990468195E-01    0.1086107305E+00    0.5793995886E-01    0.3579941880E-02    0.2834745121E+00
    0.9000000000E+02    0.9581791668E-01    0.1179315100E+00    0.6370880377E-01    0.3899944560E-02    0.3120017481E+00
    0.1100000000E+03    0.1100353219E+00    0.1242600300E+00    0.6809813474E-01    0.4122146965E-02    0.3337850365E+00
    0.1300000000E+03    0.1229238560E+00    0.1285961400E+00    0.7157108406E-01    0.4278806400E-02    0.3510798681E+00
    0.1500000000E+03    0.1347448216E+00    0.1315474768E+00    0.7440121331E-01    0.4389570641E-02    0.3652202490E+00
    0.1700000000E+03    0.1456899380E+00    0.1335050541E+00    0.7676114911E-01    0.4467119653E-02    0.3770490620E+00
    0.1900000000E+03    0.1559034796E+00    0.1347316920E+00    0.7876557250E-01    0.4520005663E-02    0.3871269667E+00
    0.2100000000E+03    0.1654964029E+00    0.1354102195E+00    0.8049387119E-01    0.4554201427E-02    0.3958425602E+00
    0.2300000000E+03    0.1745556655E+00    0.1356714103E+00    0.8200288497E-01    0.4573997963E-02    0.4034744103E+00
    0.2500000000E+03    0.1831505525E+00    0.1356109828E+00    0.8333446983E-01    0.4582551314E-02    0.4102278971E+00
    0.2700000000E+03    0.1913370810E+00    0.1353003669E+00    0.8452018987E-01    0.4582229214E-02    0.4162580847E+00
    0.2900000000E+03    0.1991611344E+00    0.1347937539E+00    0.8558433840E-01    0.4574838378E-02    0.4216844576E+00
    0.3100000000E+03    0.2066607374E+00    0.1341328446E+00    0.8654594615E-01    0.4561777824E-02    0.4266007249E+00
    0.3300000000E+03    0.2138677363E+00    0.1333501260E+00    0.8742015356E-01    0.4544144855E-02    0.4310815248E+00
    0.3500000000E+03    0.2208090594E+00    0.1324711804E+00    0.8821917147E-01    0.4522809892E-02    0.4351871206E+00
    0.3700000000E+03    0.2275076767E+00    0.1315163437E+00    0.8895296801E-01    0.4498470322E-02    0.4389667621E+00
    0.3900000000E+03    0.2339833395E+00    0.1305019149E+00    0.8962976918E-01    0.4471689877E-02    0.4424611361E+00
    0.4100000000E+03    0.2402531574E+00    0.1294410534E+00    0.9025642980E-01    0.4442927877E-02    0.4457041841E+00
    0.4300000000E+03    0.2463320530E+00    0.1283444510E+00    0.9083871261E-01    0.4412561232E-02    0.4487244704E+00
    0.4500000000E+03    0.2522331247E+00    0.1272208431E+00    0.9138150120E-01    0.4380901198E-02    0.4515462274E+00
    0.4700000000E+03    0.2579679371E+00    0.1260774014E+00    0.9188896448E-01    0.4348206278E-02    0.4541901625E+00
    0.4900000000E+03    0.2635467579E+00    0.1249200374E+00    0.9236468514E-01    0.4314692257E-02    0.4566740899E+00
    0.1000000000E+03    0.1031126297E+00    0.1213951055E+00    0.6604097153E-01    0.4020862312E-02    0.3235663062E+00
    0.3000000000E+03    0.2029493735E+00    0.1344803708E+00    0.8607693528E-01    0.4568942163E-02    0.4242013054E+00
    0.5000000000E+03    0.2662805733E+00    0.1243376973E+00    0.9259162668E-01    0.4297685810E-02    0.4578609512E+00
    0.7000000000E+03    0.3145560071E+00    0.1127798622E+00    0.9603432816E-01    0.3945801207E-02    0.4760419749E+00
    0.9000000000E+03    0.3536720082E+00    0.1022651314E+00    0.9822268132E-01    0.3608749349E-02    0.4878165593E+00
    0.1100000000E+04    0.3862803860E+00    0.9309984228E-01    0.9975964251E-01    0.3304772066E-02    0.4962247099E+00
    0.1300000000E+04    0.4139136077E+00    0.8518865744E-01    0.1009092209E+00    0.3035499065E-02    0.5026094183E+00
    0.1500000000E+04    0.4375928502E+00    0.7836179426E-01    0.1018072474E+00    0.2798228011E-02    0.5076672853E+00
    0.1700000000E+04    0.4580571858E+00    0.7245219690E-01    0.1025314876E+00    0.2589243612E-02    0.5118001519E+00
    0.1900000000E+04    0.4758683050E+00    0.6731382036E-01    0.1031300019E+00    0.2404849918E-02    0.5152581285E+00
    0.2100000000E+04    0.4914661044E+00    0.6282385920E-01    0.1036342537E+00    0.2241695123E-02    0.5182060529E+00
    0.2300000000E+04    0.5052018889E+00    0.5888050592E-01    0.1040657902E+00    0.2096850638E-02    0.5207575295E+00
    0.2500000000E+04    0.5173600557E+00    0.5539973236E-01    0.1044399122E+00    0.1967800752E-02    0.5229937168E+00
    0.2700000000E+04    0.5281731971E+00    0.5231218170E-01    0.1047678136E+00    0.1852401347E-02    0.5249743314E+00
    0.2900000000E+04    0.5378330991E+00    0.4956047723E-01    0.1050578906E+00    0.1748830820E-02    0.5267444123E+00
    0.3100000000E+04    0.5464990021E+00    0.4709699034E-01    0.1053165761E+00    0.1655542451E-02    0.5283386484E+00
    0.3300000000E+04    0.5543039388E+00    0.4488202436E-01    0.1055488894E+00    0.1571221629E-02    0.5297842444E+00
    0.3500000000E+04    0.5613596717E+00    0.4288234927E-01    0.1057588097E+00    0.1494748853E-02    0.5311028726E+00
    0.3700000000E+04    0.5677605838E+00    0.4107002304E-01    0.1059495360E+00    0.1425168362E-02    0.5323120380E+00
    0.3900000000E+04    0.5735867735E+00    0.3942144362E-01    0.1061236719E+00    0.1361661814E-02    0.5334260530E+00
    0.4100000000E+04    0.5789065324E+00    0.3791658519E-01    0.1062833599E+00    0.1303526332E-02    0.5344567478E+00
    0.4300000000E+04    0.5837783450E+00    0.3653838114E-01    0.1064303807E+00    0.1250156255E-02    0.5354139966E+00
    0.4500000000E+04    0.5882525094E+00    0.3527222413E-01    0.1065662272E+00    0.1201027963E-02    0.5363061138E+00
    0.4700000000E+04    0.5923724589E+00    0.3410555924E-01    0.1066921617E+00    0.1155687265E-02    0.5371401567E+00
    0.4900000000E+04    0.5961758453E+00    0.3302755187E-01    0.1068092591E+00    0.1113738896E-02    0.5379221594E+00
    0.1000000000E+04    0.3706777105E+00    0.9751630242E-01    0.9905174038E-01    0.3452353722E-02    0.4923356434E+00
    0.3000000000E+04    0.5422814353E+00    0.4829535482E-01    0.1051908155E+00    0.1700988507E-02    0.5275616616E+00
    0.5000000000E+04    0.5979692352E+00    0.3251881128E-01    0.1068647870E+00    0.1093927243E-02    0.5382952973E+00
    0.7000000000E+04    0.6232713801E+00    0.2527660386E-01    0.1076786855E+00    0.8117095570E-03    0.5439754532E+00
    0.9000000000E+04    0.6372130753E+00    0.2116740871E-01    0.1081642390E+00    0.6529983106E-03    0.5476281048E+00
    0.1100000000E+05    0.6458869816E+00    0.1851092872E-01    0.1084869926E+00    0.5521662148E-03    0.5502312803E+00
    0.1300000000E+05    0.6517460011E+00    0.1663923127E-01    0.1087164547E+00    0.4825690857E-03    0.5522089694E+00
    0.1500000000E+05    0.6559438141E+00    0.1523887209E-01    0.1088872415E+00    0.4315957203E-03    0.5537785355E+00
    0.1700000000E+05    0.6590870031E+00    0.1414428142E-01    0.1090186379E+00    0.3925752968E-03    0.5550643899E+00
    0.1900000000E+05    0.6615222545E+00    0.1325994181E-01    0.1091222814E+00    0.3616711697E-03    0.5561435491E+00
    0.2100000000E+05    0.6634609567E+00    0.1252687443E-01    0.1092056282E+00    0.3365282914E-03    0.5570665783E+00
    0.2300000000E+05    0.6650388218E+00    0.1190664761E-01    0.1092736846E+00    0.3156239119E-03    0.5578682338E+00
    0.2500000000E+05    0.6663467163E+00    0.1137310253E-01    0.1093299404E+00    0.2979307681E-03    0.5585733004E+00
    0.2700000000E+05    0.6674476399E+00    0.1090778215E-01    0.1093769046E+00    0.2827310064E-03    0.5591999937E+00
    0.2900000000E+05    0.6683865749E+00    0.1049726550E-01    0.1094164278E+00    0.2695078676E-03    0.5597620429E+00
    0.3100000000E+05    0.6691964557E+00    0.1013154104E-01    0.1094499056E+00    0.2578798013E-03    0.5602700197E+00
    0.3300000000E+05    0.6699019246E+00    0.9802975023E-02    0.1094784101E+00    0.2475588567E-03    0.5607322151E+00
    0.3500000000E+05    0.6705217713E+00    0.9505635166E-02    0.1095027786E+00    0.2383235388E-03    0.5611552364E+00
    0.3700000000E+05    0.6710705633E+00    0.9234834228E-02    0.1095236742E+00    0.2300005938E-03    0.5615444232E+00
    0.3900000000E+05    0.6715597626E+00    0.8986814162E-02    0.1095416293E+00    0.2224524782E-03    0.5619041443E+00
    0.4100000000E+05    0.6719985068E+00    0.8758522582E-02    0.1095570756E+00    0.2155685478E-03    0.5622380138E+00
    0.4300000000E+05    0.6723941674E+00    0.8547451398E-02    0.1095703670E+00    0.2092587368E-03    0.5625490511E+00
    0.4500000000E+05    0.6727527544E+00    0.8351518241E-02    0.1095817962E+00    0.2034489454E-03    0.5628398015E+00
    0.4700000000E+05    0.6730792156E+00    0.8168977928E-02    0.1095916073E+00    0.1980776184E-03    0.5631124276E+00
    0.4900000000E+05    0.6733776604E+00    0.7998355384E-02    0.1096000054E+00    0.1930931705E-03    0.5633687809E+00
    0.1000000000E+05    0.6420100639E+00    0.1971169416E-01    0.1083404247E+00    0.5974990998E-03    0.5490273508E+00
    0.3000000000E+05    0.6688059461E+00    0.1030932783E-01    0.1094338490E+00    0.2635142691E-03    0.5600222268E+00
    0.5000000000E+05    0.6735174742E+00    0.7917113256E-02    0.1096037298E+00    0.1907321395E-03    0.5634913625E+00
    0.7000000000E+05    0.6754436569E+00    0.6691834610E-02    0.1096347759E+00    0.1560900673E-03    0.5653810741E+00
    0.9000000000E+05    0.6764880957E+00    0.5912381995E-02    0.1096238047E+00    0.1349910881E-03    0.5666246003E+00
    0.1100000000E+06    0.6771431783E+00    0.5359514546E-02    0.1095968975E+00    0.1204598931E-03    0.5675279526E+00
    0.1300000000E+06    0.6775924691E+00    0.4940589788E-02    0.1095635196E+00    0.1096848100E-03    0.5682255836E+00
    0.1500000000E+06    0.6779198651E+00    0.4608711602E-02    0.1095276986E+00    0.1012907895E-03    0.5687872545E+00
    0.1700000000E+06    0.6781691234E+00    0.4337220802E-02    0.1094913133E+00    0.9451661572E-04    0.5692533269E+00
    0.1900000000E+06    0.6783652946E+00    0.4109677334E-02    0.1094552839E+00    0.8890270648E-04    0.5696490311E+00
    0.2100000000E+06    0.6785237515E+00    0.3915311038E-02    0.1094200660E+00    0.8415317760E-04    0.5699910802E+00
    0.2300000000E+06    0.6786544511E+00    0.3746728152E-02    0.1093858766E+00    0.8006785297E-04    0.5702910564E+00
    0.2500000000E+06    0.6787641263E+00    0.3598659699E-02    0.1093528059E+00    0.7650585665E-04    0.5705572816E+00
    0.2700000000E+06    0.6788574934E+00    0.3467234537E-02    0.1093208750E+00    0.7336480555E-04    0.5707959155E+00
    0.2900000000E+06    0.6789379545E+00    0.3349535296E-02    0.1092900669E+00    0.7056827607E-04    0.5710116316E+00
    0.3100000000E+06    0.6790080260E+00    0.3243315588E-02    0.1092603447E+00    0.6805791978E-04    0.5712080508E+00
    0.3300000000E+06    0.6790696088E+00    0.3146813482E-02    0.1092316614E+00    0.6578831939E-04    0.5713880299E+00
    0.3500000000E+06    0.6791241663E+00    0.3058624747E-02    0.1092039654E+00    0.6372352680E-04    0.5715538580E+00
    0.3700000000E+06    0.6791728430E+00    0.2977614448E-02    0.1091772042E+00    0.6183466974E-04    0.5717073949E+00
    0.3900000000E+06    0.6792165472E+00    0.2902853888E-02    0.1091513264E+00    0.6009825811E-04    0.5718501702E+00
    0.4100000000E+06    0.6792560090E+00    0.2833574726E-02    0.1091262824E+00    0.5849496050E-04    0.5719834550E+00
    0.4300000000E+06    0.6792918219E+00    0.2769134994E-02    0.1091020253E+00    0.5700870412E-04    0.5721083166E+00
    0.4500000000E+06    0.6793244734E+00    0.2708993533E-02    0.1090785108E+00    0.5562600176E-04    0.5722256584E+00
    0.4700000000E+06    0.6793543676E+00    0.2652690480E-02    0.1090556976E+00    0.5433544108E-04    0.5723362515E+00
    0.4900000000E+06    0.6793818423E+00    0.2599832192E-02    0.1090335471E+00    0.5312729199E-04    0.5724407586E+00
    0.1000000000E+06    0.6768492998E+00    0.5614982624E-02    0.1096115583E+00    0.1271301311E-03    0.5671082031E+00
    0.3000000000E+06    0.6789741582E+00    0.3295110262E-02    0.1092750729E+00    0.6928042098E-04    0.5711120595E+00
    0.5000000000E+06    0.6793947632E+00    0.2574586972E-02    0.1090227091E+00    0.5255146450E-04    0.5724909121E+00
    0.7000000000E+06    0.6795763987E+00    0.2188370516E-02    0.1088332918E+00    0.4384021664E-04    0.5732802964E+00
    0.9000000000E+06    0.6796782719E+00    0.1938129893E-02    0.1086819616E+00    0.3829876229E-04    0.5738188077E+00
    0.1100000000E+07    0.6797437279E+00    0.1758973685E-02    0.1085558768E+00    0.3438463772E-04    0.5742213220E+00
    0.1300000000E+07    0.6797894694E+00    0.1622492547E-02    0.1084477325E+00    0.3143452538E-04    0.5745396205E+00
    0.1500000000E+07    0.6798233159E+00    0.1514008730E-02    0.1083529978E+00    0.2911021391E-04    0.5748011368E+00
    0.1700000000E+07    0.6798494221E+00    0.1425068994E-02    0.1082686716E+00    0.2721894842E-04    0.5750220276E+00
    0.1900000000E+07    0.6798702028E+00    0.1350414046E-02    0.1081926632E+00    0.2564184058E-04    0.5752125510E+00
    0.2100000000E+07    0.6798871588E+00    0.1286576598E-02    0.1081234574E+00    0.2430109018E-04    0.5753795969E+00
    0.2300000000E+07    0.6799012729E+00    0.1231165207E-02    0.1080599207E+00    0.2314338355E-04    0.5755280002E+00
    0.2500000000E+07    0.6799132158E+00    0.1182469626E-02    0.1080011827E+00    0.2213081175E-04    0.5756612751E+00
    0.2700000000E+07    0.6799234615E+00    0.1139229865E-02    0.1079465603E+00    0.2123559013E-04    0.5757820500E+00
    0.2900000000E+07    0.6799323546E+00    0.1100494310E-02    0.1078955073E+00    0.2043683237E-04    0.5758923387E+00
    0.3100000000E+07    0.6799401517E+00    0.1065528934E-02    0.1078475802E+00    0.1971849697E-04    0.5759937161E+00
    0.3300000000E+07    0.6799470477E+00    0.1033757197E-02    0.1078024136E+00    0.1906803403E-04    0.5760874351E+00
    0.3500000000E+07    0.6799531938E+00    0.1004719072E-02    0.1077597033E+00    0.1847546668E-04    0.5761745079E+00
    0.3700000000E+07    0.6799587088E+00    0.9780423943E-03    0.1077191926E+00    0.1793275127E-04    0.5762557632E+00
    0.3900000000E+07    0.6799636875E+00    0.9534223867E-03    0.1076806637E+00    0.1743332175E-04    0.5763318874E+00
    0.4100000000E+07    0.6799682063E+00    0.9306067250E-03    0.1076439295E+00    0.1697175856E-04    0.5764034548E+00
    0.4300000000E+07    0.6799723279E+00    0.9093844669E-03    0.1076088285E+00    0.1654354393E-04    0.5764709510E+00
    0.4500000000E+07    0.6799761037E+00    0.8895777083E-03    0.1075752201E+00    0.1614487798E-04    0.5765347894E+00
    0.4700000000E+07    0.6799795767E+00    0.8710352093E-03    0.1075429812E+00    0.1577253866E-04    0.5765953251E+00
    0.4900000000E+07    0.6799827830E+00    0.8536274623E-03    0.1075120035E+00    0.1542377366E-04    0.5766528650E+00
    0.1000000000E+07    0.6797141959E+00    0.1841907443E-02    0.1086163066E+00    0.3619082187E-04    0.5740330092E+00
    0.3000000000E+07    0.6799363768E+00    0.1082579521E-02    0.1078711775E+00    0.2006846565E-04    0.5759440566E+00
    0.5000000000E+07    0.6799842958E+00    0.8453136245E-03    0.1074969572E+00    0.1525747874E-04    0.5766805963E+00
    0.7000000000E+07    0.6800059593E+00    0.7181456340E-03    0.1072438219E+00    0.1273704672E-04    0.5771277037E+00
    0.9000000000E+07    0.6800185304E+00    0.6357867633E-03    0.1070519622E+00    0.1112994522E-04    0.5774451687E+00
    0.1100000000E+08    0.6800268354E+00    0.5768489180E-03    0.1068972946E+00    0.9993467552E-05    0.5776897445E+00
    0.1300000000E+08    0.6800327789E+00    0.5319672954E-03    0.1067676555E+00    0.9136335414E-05    0.5778878793E+00
    0.1500000000E+08    0.6800372699E+00    0.4963043224E-03    0.1066560297E+00    0.8460760941E-05    0.5780539611E+00
    0.1700000000E+08    0.6800407994E+00    0.4670746032E-03    0.1065579978E+00    0.7910919367E-05    0.5781966521E+00
    0.1900000000E+08    0.6800436572E+00    0.4425456165E-03    0.1064705938E+00    0.7452340095E-05    0.5783215566E+00
    0.2100000000E+08    0.6800460258E+00    0.4215754545E-03    0.1063917293E+00    0.7062447760E-05    0.5784325013E+00
    0.2300000000E+08    0.6800480260E+00    0.4033767148E-03    0.1063198779E+00    0.6725763318E-05    0.5785322112E+00
    0.2500000000E+08    0.6800497414E+00    0.3873864104E-03    0.1062538898E+00    0.6431275535E-05    0.5786226930E+00
    0.2700000000E+08    0.6800512317E+00    0.3731898595E-03    0.1061928773E+00    0.6170911254E-05    0.5787054658E+00
