  Pressure (Pa) 22mC5-400 (mol/kg) 2mC6-400 (mol/kg) 3mC6-400 (mol/kg) 33mC5-400 (mol/kg) C7-400 (mol/kg)
    0.1000000000E+01    0.1591605914E-02    0.1570354518E-02    0.5193418411E-03    0.3197097175E-03    0.1517039610E-01
    0.3000000000E+01    0.4735066175E-02    0.4504551719E-02    0.1483269545E-02    0.9174786001E-03    0.4333777155E-01
    0.5000000000E+01    0.7826853230E-02    0.7194711728E-02    0.2359053778E-02    0.1466053448E-02    0.6894200381E-01
    0.7000000000E+01    0.1086850473E-01    0.9672502221E-02    0.3158384105E-02    0.1971842537E-02    0.9232248374E-01
    0.9000000000E+01    0.1386149617E-01    0.1196415015E-01    0.3890964827E-02    0.2440149487E-02    0.1137610075E+00
    0.1100000000E+02    0.1680724396E-01    0.1409156702E-01    0.4564919586E-02    0.2875402168E-02    0.1334935093E+00
    0.1300000000E+02    0.1970710841E-01    0.1607320653E-01    0.5187100883E-02    0.3281327119E-02    0.1517190369E+00
    0.1500000000E+02    0.2256239645E-01    0.1792472597E-01    0.5763329583E-02    0.3661083982E-02    0.1686066989E+00
    0.1700000000E+02    0.2537436425E-01    0.1965950148E-01    0.6298582231E-02    0.4017370224E-02    0.1843010972E+00
    0.1900000000E+02    0.2814421967E-01    0.2128903369E-01    0.6797138964E-02    0.4352503518E-02    0.1989266181E+00
    0.2100000000E+02    0.3087312454E-01    0.2282326962E-01    0.7262701370E-02    0.4668487120E-02    0.2125908514E+00
    0.2300000000E+02    0.3356219688E-01    0.2427086062E-01    0.7698487186E-02    0.4967062209E-02    0.2253873383E+00
    0.2500000000E+02    0.3621251292E-01    0.2563937041E-01    0.8107306979E-02    0.5249750103E-02    0.2373977960E+00
    0.2700000000E+02    0.3882510905E-01    0.2693544425E-01    0.8491626679E-02    0.5517886559E-02    0.2486939329E+00
    0.2900000000E+02    0.4140098367E-01    0.2816494742E-01    0.8853618925E-02    0.5772649842E-02    0.2593389384E+00
    0.3100000000E+02    0.4394109890E-01    0.2933307919E-01    0.9195205495E-02    0.6015083828E-02    0.2693887148E+00
    0.3300000000E+02    0.4644638223E-01    0.3044446742E-01    0.9518092566E-02    0.6246117148E-02    0.2788929003E+00
    0.3500000000E+02    0.4891772808E-01    0.3150324728E-01    0.9823800187E-02    0.6466579126E-02    0.2878957252E+00
    0.3700000000E+02    0.5135599926E-01    0.3251312725E-01    0.1011368705E-01    0.6677213138E-02    0.2964367308E+00
    0.3900000000E+02    0.5376202834E-01    0.3347744470E-01    0.1038897137E-01    0.6878687848E-02    0.3045513760E+00
    0.4100000000E+02    0.5613661902E-01    0.3439921295E-01    0.1065074867E-01    0.7071606716E-02    0.3122715531E+00
    0.4300000000E+02    0.5848054733E-01    0.3528116120E-01    0.1090000685E-01    0.7256516073E-02    0.3196260259E+00
    0.4500000000E+02    0.6079456284E-01    0.3612576871E-01    0.1113763913E-01    0.7433912014E-02    0.3266408059E+00
    0.4700000000E+02    0.6307938979E-01    0.3693529401E-01    0.1136445517E-01    0.7604246304E-02    0.3333394745E+00
    0.4900000000E+02    0.6533572812E-01    0.3771180015E-01    0.1158119063E-01    0.7767931459E-02    0.3397434617E+00
    0.1000000000E+02    0.1534018922E-01    0.1304716164E-01    0.4234815477E-02    0.2661660007E-02    0.1238272960E+00
    0.3000000000E+02    0.4267545245E-01    0.2875638308E-01    0.9026851601E-02    0.5895347457E-02    0.2644349918E+00
    0.5000000000E+02    0.6645342642E-01    0.3808826768E-01    0.1168598986E-01    0.7847399882E-02    0.3428411180E+00
    0.7000000000E+02    0.8746507342E-01    0.4426864866E-01    0.1338736373E-01    0.9164515720E-02    0.3932468185E+00
    0.9000000000E+02    0.1062752299E+00    0.4858313707E-01    0.1457454575E-01    0.1010351186E-01    0.4285833674E+00
    0.1100000000E+03    0.1232984343E+00    0.5167370044E-01    0.1545278998E-01    0.1079255470E-01    0.4548442199E+00
    0.1300000000E+03    0.1388461432E+00    0.5390888825E-01    0.1613040585E-01    0.1130535166E-01    0.4751971415E+00
    0.1500000000E+03    0.1531571797E+00    0.5552060523E-01    0.1667008001E-01    0.1168843736E-01    0.4914784913E+00
    0.1700000000E+03    0.1664179726E+00    0.5666430188E-01    0.1711067708E-01    0.1197314257E-01    0.5048285930E+00
    0.1900000000E+03    0.1787763682E+00    0.5744903237E-01    0.1747761092E-01    0.1218155973E-01    0.5159942927E+00
    0.2100000000E+03    0.1903512787E+00    0.5795395072E-01    0.1778822177E-01    0.1232981443E-01    0.5254859742E+00
    0.2300000000E+03    0.2012395620E+00    0.5823804060E-01    0.1805475937E-01    0.1242999553E-01    0.5336647539E+00
    0.2500000000E+03    0.2115210184E+00    0.5834618505E-01    0.1828613143E-01    0.1249136051E-01    0.5407936330E+00
    0.2700000000E+03    0.2212620809E+00    0.5831312478E-01    0.1848897583E-01    0.1252112270E-01    0.5470688979E+00
    0.2900000000E+03    0.2305185807E+00    0.5816613360E-01    0.1866834384E-01    0.1252498463E-01    0.5526401462E+00
    0.3100000000E+03    0.2393378492E+00    0.5792688060E-01    0.1882814985E-01    0.1250751000E-01    0.5576234815E+00
    0.3300000000E+03    0.2477603342E+00    0.5761275828E-01    0.1897147582E-01    0.1247238982E-01    0.5621104552E+00
    0.3500000000E+03    0.2558208583E+00    0.5723784972E-01    0.1910078259E-01    0.1242263663E-01    0.5661742775E+00
    0.3700000000E+03    0.2635496072E+00    0.5681364542E-01    0.1921805973E-01    0.1236072901E-01    0.5698742258E+00
    0.3900000000E+03    0.2709729154E+00    0.5634958286E-01    0.1932493378E-01    0.1228872059E-01    0.5732588341E+00
    0.4100000000E+03    0.2781138942E+00    0.5585345816E-01    0.1942274798E-01    0.1220832359E-01    0.5763682406E+00
    0.4300000000E+03    0.2849929399E+00    0.5533174401E-01    0.1951262165E-01    0.1212097345E-01    0.5792359427E+00
    0.4500000000E+03    0.2916281467E+00    0.5478983777E-01    0.1959549533E-01    0.1202787952E-01    0.5818901273E+00
    0.4700000000E+03    0.2980356453E+00    0.5423225699E-01    0.1967216525E-01    0.1193006511E-01    0.5843546920E+00
    0.4900000000E+03    0.3042298824E+00    0.5366279484E-01    0.1974331021E-01    0.1182839947E-01    0.5866500379E+00
    0.1000000000E+03    0.1149887379E+00    0.5025413092E-01    0.1504406210E-01    0.1047382652E-01    0.4426078682E+00
    0.3000000000E+03    0.2349801958E+00    0.5805686534E-01    0.1875048280E-01    0.1251866581E-01    0.5551990890E+00
    0.5000000000E+03    0.3072511398E+00    0.5337462672E-01    0.1977699608E-01    0.1177635839E-01    0.5877398292E+00
    0.7000000000E+03    0.3590486152E+00    0.4753832896E-01    0.2026637274E-01    0.1066457083E-01    0.6038421828E+00
    0.9000000000E+03    0.3988651477E+00    0.4219552347E-01    0.2055381739E-01    0.9583009260E-02    0.6136340232E+00
    0.1100000000E+04    0.4306290421E+00    0.3760255036E-01    0.2074290816E-01    0.8617546150E-02    0.6202920414E+00
    0.1300000000E+04    0.4565763216E+00    0.3371854672E-01    0.2087652949E-01    0.7778094369E-02    0.6251498777E+00
    0.1500000000E+04    0.4781394159E+00    0.3044086804E-01    0.2097573631E-01    0.7053866746E-02    0.6288710212E+00
    0.1700000000E+04    0.4963035812E+00    0.2766558256E-01    0.2105210484E-01    0.6429362647E-02    0.6318249288E+00
    0.1900000000E+04    0.5117780942E+00    0.2530262797E-01    0.2111253778E-01    0.5889390861E-02    0.6342346213E+00
    0.2100000000E+04    0.5250898073E+00    0.2327786933E-01    0.2116141092E-01    0.5420554353E-02    0.6362431683E+00
    0.2300000000E+04    0.5366391990E+00    0.2153142652E-01    0.2120163435E-01    0.5011514580E-02    0.6379468217E+00
    0.2500000000E+04    0.5467362277E+00    0.2001521117E-01    0.2123521946E-01    0.4652841252E-02    0.6394128620E+00
    0.2700000000E+04    0.5556243673E+00    0.1869059141E-01    0.2126360135E-01    0.4336744227E-02    0.6406898221E+00
    0.2900000000E+04    0.5634972928E+00    0.1752642715E-01    0.2128783146E-01    0.4056797301E-02    0.6418136454E+00
    0.3100000000E+04    0.5705107717E+00    0.1649749330E-01    0.2130869783E-01    0.3807691525E-02    0.6428115544E+00
    0.3300000000E+04    0.5767913194E+00    0.1558323972E-01    0.2132680258E-01    0.3585027390E-02    0.6437045681E+00
    0.3500000000E+04    0.5824426085E+00    0.1476682384E-01    0.2134261373E-01    0.3385144486E-02    0.6445091893E+00
    0.3700000000E+04    0.5875502846E+00    0.1403435735E-01    0.2135650042E-01    0.3204983739E-02    0.6452385675E+00
    0.3900000000E+04    0.5921856299E+00    0.1337431875E-01    0.2136875771E-01    0.3041976625E-02    0.6459033176E+00
    0.4100000000E+04    0.5964083829E+00    0.1277709356E-01    0.2137962421E-01    0.2893956233E-02    0.6465121085E+00
    0.4300000000E+04    0.6002689297E+00    0.1223461291E-01    0.2138929491E-01    0.2759085817E-02    0.6470720939E+00
    0.4500000000E+04    0.6038100229E+00    0.1174006791E-01    0.2139793069E-01    0.2635801250E-02    0.6475892332E+00
    0.4700000000E+04    0.6070681414E+00    0.1128768268E-01    0.2140566540E-01    0.2522764537E-02    0.6480685331E+00
    0.4900000000E+04    0.6100745746E+00    0.1087253300E-01    0.2141261132E-01    0.2418826110E-02    0.6485142327E+00
    0.1000000000E+04    0.4155887506E+00    0.3980509715E-01    0.2065722498E-01    0.9084331619E-02    0.6172484135E+00
    0.3000000000E+04    0.5671029545E+00    0.1699643786E-01    0.2129864383E-01    0.3928683385E-02    0.6423269030E+00
    0.5000000000E+04    0.6114919861E+00    0.1067757910E-01    0.2141581871E-01    0.2369953360E-02    0.6487256332E+00
    0.7000000000E+04    0.6315435705E+00    0.7973360389E-02    0.2145532910E-01    0.1689416056E-02    0.6518402586E+00
    0.9000000000E+04    0.6427323464E+00    0.6504379561E-02    0.2147013010E-01    0.1320737235E-02    0.6537371033E+00
    0.1100000000E+05    0.6498041167E+00    0.5584299186E-02    0.2147456058E-01    0.1092727031E-02    0.6550360935E+00
    0.1300000000E+05    0.6546542685E+00    0.4951887680E-02    0.2147396992E-01    0.9386824844E-03    0.6559926270E+00
    0.1500000000E+05    0.6581776189E+00    0.4488170510E-02    0.2147074449E-01    0.8278686033E-03    0.6567326582E+00
    0.1700000000E+05    0.6608484507E+00    0.4131736417E-02    0.2146607779E-01    0.7443473198E-03    0.6573260639E+00
    0.1900000000E+05    0.6629404296E+00    0.3847825571E-02    0.2146061546E-01    0.6790967116E-03    0.6578149893E+00
    0.2100000000E+05    0.6646220653E+00    0.3615323274E-02    0.2145472669E-01    0.6266528561E-03    0.6582264952E+00
    0.2300000000E+05    0.6660025830E+00    0.3420667665E-02    0.2144863119E-01    0.5835242434E-03    0.6585788243E+00
    0.2500000000E+05    0.6671557857E+00    0.3254746061E-02    0.2144246326E-01    0.5473802611E-03    0.6588847639E+00
    0.2700000000E+05    0.6681332845E+00    0.3111203338E-02    0.2143630643E-01    0.5166079257E-03    0.6591535688E+00
    0.2900000000E+05    0.6689722281E+00    0.2985467257E-02    0.2143021292E-01    0.4900564094E-03    0.6593921181E+00
    0.3100000000E+05    0.6697000209E+00    0.2874160165E-02    0.2142421522E-01    0.4668830185E-03    0.6596056424E+00
    0.3300000000E+05    0.6703373117E+00    0.2774729609E-02    0.2141833304E-01    0.4464567073E-03    0.6597981967E+00
    0.3500000000E+05    0.6708999489E+00    0.2685208389E-02    0.2141257778E-01    0.4282956045E-03    0.6599729779E+00
    0.3700000000E+05    0.6714002951E+00    0.2604054049E-02    0.2140695528E-01    0.4120253824E-03    0.6601325444E+00
    0.3900000000E+05    0.6718481331E+00    0.2530038678E-02    0.2140146774E-01    0.3973508050E-03    0.6602789699E+00
    0.4100000000E+05    0.6722513042E+00    0.2462171519E-02    0.2139611489E-01    0.3840358432E-03    0.6604139554E+00
    0.4300000000E+05    0.6726161657E+00    0.2399643501E-02    0.2139089484E-01    0.3718894969E-03    0.6605389105E+00
    0.4500000000E+05    0.6729479257E+00    0.2341786747E-02    0.2138580468E-01    0.3607555050E-03    0.6606550143E+00
    0.4700000000E+05    0.6732508908E+00    0.2288044543E-02    0.2138084080E-01    0.3505047536E-03    0.6607632618E+00
    0.4900000000E+05    0.6735286529E+00    0.2237948719E-02    0.2137599922E-01    0.3410295938E-03    0.6608644986E+00
    0.1000000000E+05    0.6466295662E+00    0.5997076462E-02    0.2147320251E-01    0.1194578680E-02    0.6544409015E+00
    0.3000000000E+05    0.6693485962E+00    0.2928185664E-02    0.2142720063E-01    0.4780909908E-03    0.6595017317E+00
    0.5000000000E+05    0.6736590456E+00    0.2214141773E-02    0.2137362298E-01    0.3365540073E-03    0.6609127185E+00
    0.7000000000E+05    0.6754743243E+00    0.1858557533E-02    0.2133150225E-01    0.2718324821E-03    0.6616403576E+00
    0.9000000000E+05    0.6764752099E+00    0.1635503719E-02    0.2129731883E-01    0.2332883534E-03    0.6621026850E+00
    0.1100000000E+06    0.6771099560E+00    0.1478623749E-02    0.2126863325E-01    0.2071222444E-03    0.6624300571E+00
    0.1300000000E+06    0.6775488100E+00    0.1360426203E-02    0.2124393670E-01    0.1879138028E-03    0.6626778640E+00
    0.1500000000E+06    0.6778705899E+00    0.1267173628E-02    0.2122225660E-01    0.1730606869E-03    0.6628741337E+00
    0.1700000000E+06    0.6781168002E+00    0.1191127971E-02    0.2120293469E-01    0.1611421646E-03    0.6630347616E+00
    0.1900000000E+06    0.6783113808E+00    0.1127550024E-02    0.2118550619E-01    0.1513097573E-03    0.6631695203E+00
    0.2100000000E+06    0.6784691125E+00    0.1073351599E-02    0.2116963120E-01    0.1430219684E-03    0.6632847928E+00
    0.2300000000E+06    0.6785996170E+00    0.1026421708E-02    0.2115505381E-01    0.1359150859E-03    0.6633849483E+00
    0.2500000000E+06    0.6787094286E+00    0.9852612945E-03    0.2114157660E-01    0.1297346839E-03    0.6634730925E+00
    0.2700000000E+06    0.6788031415E+00    0.9487722371E-03    0.2112904408E-01    0.1242968013E-03    0.6635515018E+00
    0.2900000000E+06    0.6788840805E+00    0.9161290416E-03    0.2111733161E-01    0.1194647259E-03    0.6636218883E+00
    0.3100000000E+06    0.6789547117E+00    0.8866974471E-03    0.2110633776E-01    0.1151344801E-03    0.6636855680E+00
    0.3300000000E+06    0.6790169031E+00    0.8599809156E-03    0.2109597885E-01    0.1112254021E-03    0.6637435715E+00
    0.3500000000E+06    0.6790720959E+00    0.8355843712E-03    0.2108618507E-01    0.1076738385E-03    0.6637967191E+00
    0.3700000000E+06    0.6791214196E+00    0.8131889755E-03    0.2107689755E-01    0.1044288008E-03    0.6638456732E+00
    0.3900000000E+06    0.6791657726E+00    0.7925341737E-03    0.2106806617E-01    0.1014489050E-03    0.6638909751E+00
    0.4100000000E+06    0.6792058780E+00    0.7734046574E-03    0.2105964796E-01    0.9870016715E-04    0.6639330725E+00
    0.4300000000E+06    0.6792423247E+00    0.7556207257E-03    0.2105160574E-01    0.9615438728E-04    0.6639723392E+00
    0.4500000000E+06    0.6792755972E+00    0.7390310457E-03    0.2104390715E-01    0.9378794421E-04    0.6640090901E+00
    0.4700000000E+06    0.6793060977E+00    0.7235071357E-03    0.2103652386E-01    0.9158088345E-04    0.6640435927E+00
    0.4900000000E+06    0.6793341629E+00    0.7089391061E-03    0.2102943090E-01    0.8951621751E-04    0.6640760760E+00
    0.1000000000E+06    0.6768244844E+00    0.1550984123E-02    0.2128239930E-01    0.2190953755E-03    0.6622788426E+00
    0.3000000000E+06    0.6789205561E+00    0.9010455651E-03    0.2111175045E-01    0.1172423765E-03    0.6636544964E+00
    0.5000000000E+06    0.6793473729E+00    0.7019834562E-03    0.2102598629E-01    0.8853264910E-04    0.6640916232E+00
    0.7000000000E+06    0.6795339524E+00    0.5957357409E-03    0.2096809229E-01    0.7369056603E-04    0.6643327070E+00
    0.9000000000E+06    0.6796394888E+00    0.5270560349E-03    0.2092428890E-01    0.6428425534E-04    0.6644931898E+00
    0.1100000000E+07    0.6797077576E+00    0.4779624693E-03    0.2088902662E-01    0.5765589532E-04    0.6646109840E+00
    0.1300000000E+07    0.6797557387E+00    0.4406058612E-03    0.2085950485E-01    0.5266834170E-04    0.6647028040E+00
    0.1500000000E+07    0.6797914214E+00    0.4109390179E-03    0.2083411000E-01    0.4874371865E-04    0.6647773565E+00
    0.1700000000E+07    0.6798190688E+00    0.3866345215E-03    0.2081182652E-01    0.4555346797E-04    0.6648396993E+00
    0.1900000000E+07    0.6798411675E+00    0.3662460203E-03    0.2079197340E-01    0.4289530915E-04    0.6648930070E+00
    0.2100000000E+07    0.6798592680E+00    0.3488208805E-03    0.2077407156E-01    0.4063706207E-04    0.6649393908E+00
    0.2300000000E+07    0.6798743883E+00    0.3337025757E-03    0.2075777110E-01    0.3868825594E-04    0.6649803194E+00
    0.2500000000E+07    0.6798872256E+00    0.3204219069E-03    0.2074280863E-01    0.3698462506E-04    0.6650168519E+00
    0.2700000000E+07    0.6798982734E+00    0.3086334058E-03    0.2072898089E-01    0.3547910719E-04    0.6650497751E+00
    0.2900000000E+07    0.6799078913E+00    0.2980762901E-03    0.2071612773E-01    0.3413635071E-04    0.6650796880E+00
    0.3100000000E+07    0.6799163478E+00    0.2885494995E-03    0.2070412069E-01    0.3292922184E-04    0.6651070562E+00
    0.3300000000E+07    0.6799238474E+00    0.2798951771E-03    0.2069285519E-01    0.3183650499E-04    0.6651322482E+00
    0.3500000000E+07    0.6799305489E+00    0.2719874151E-03    0.2068224491E-01    0.3084134292E-04    0.6651555603E+00
    0.3700000000E+07    0.6799365771E+00    0.2647243887E-03    0.2067221780E-01    0.2993015125E-04    0.6651772339E+00
    0.3900000000E+07    0.6799420322E+00    0.2580227366E-03    0.2066271307E-01    0.2909184563E-04    0.6651974680E+00
    0.4100000000E+07    0.6799469949E+00    0.2518134647E-03    0.2065367898E-01    0.2831728079E-04    0.6652164286E+00
    0.4300000000E+07    0.6799515314E+00    0.2460389098E-03    0.2064507113E-01    0.2759883583E-04    0.6652342555E+00
    0.4500000000E+07    0.6799556963E+00    0.2406504524E-03    0.2063685110E-01    0.2693010299E-04    0.6652510671E+00
    0.4700000000E+07    0.6799595352E+00    0.2356067700E-03    0.2062898547E-01    0.2630565055E-04    0.6652669649E+00
    0.4900000000E+07    0.6799630864E+00    0.2308724856E-03    0.2062144495E-01    0.2572084005E-04    0.6652820363E+00
    0.1000000000E+07    0.6796769050E+00    0.5006805906E-03    0.2090580374E-01    0.6071299302E-04    0.6645561073E+00
    0.3000000000E+07    0.6799122507E+00    0.2931948308E-03    0.2071002547E-01    0.3351727641E-04    0.6650936652E+00
    0.5000000000E+07    0.6799647644E+00    0.2286116732E-03    0.2061778842E-01    0.2544203213E-04    0.6652892862E+00
    0.7000000000E+07    0.6799889982E+00    0.1940514510E-03    0.2055681347E-01    0.2121922113E-04    0.6654049530E+00
    0.9000000000E+07    0.6800032808E+00    0.1716909681E-03    0.2051119853E-01    0.1852959714E-04    0.6654857112E+00
    0.1100000000E+08    0.6800128367E+00    0.1557006625E-03    0.2047474670E-01    0.1662908170E-04    0.6655471756E+00
    0.1300000000E+08    0.6800197489E+00    0.1435306331E-03    0.2044438883E-01    0.1519656633E-04    0.6655965034E+00
    0.1500000000E+08    0.6800250207E+00    0.1338646566E-03    0.2041837866E-01    0.1406802930E-04    0.6656375389E+00
    0.1700000000E+08    0.6800291982E+00    0.1259453160E-03    0.2039562718E-01    0.1314989613E-04    0.6656725735E+00
    0.1900000000E+08    0.6800326058E+00    0.1193017231E-03    0.2037540931E-01    0.1238441741E-04    0.6657030770E+00
    0.2100000000E+08    0.6800354489E+00    0.1136236408E-03    0.2035721784E-01    0.1173378900E-04    0.6657300458E+00
    0.2300000000E+08    0.6800378648E+00    0.1086972203E-03    0.2034068407E-01    0.1117210004E-04    0.6657541851E+00
    0.2500000000E+08    0.6800399484E+00    0.1043696089E-03    0.2032553154E-01    0.1068092465E-04    0.6657760112E+00
    0.2700000000E+08    0.6800417681E+00    0.1005282500E-03    0.2031154765E-01    0.1024675747E-04    0.6657959130E+00
