  Pressure (Pa) 22mC5-400 (mol/kg) 2mC6-400 (mol/kg) 3mC6-400 (mol/kg) 33mC5-400 (mol/kg) C7-400 (mol/kg)
    0.1000000000E+01    0.1592836734E-02    0.7877688184E-03    0.2084836122E-02    0.3207564252E-03    0.1184142223E-01
    0.3000000000E+01    0.4745923282E-02    0.2273551815E-02    0.5994276475E-02    0.9260694518E-03    0.3405319725E-01
    0.5000000000E+01    0.7856417500E-02    0.3651503922E-02    0.9591631926E-02    0.1487912205E-02    0.5450048090E-01
    0.7000000000E+01    0.1092531880E-01    0.4933880577E-02    0.1291309511E-01    0.2011245695E-02    0.7338757903E-01
    0.9000000000E+01    0.1395359479E-01    0.6131083921E-02    0.1598946035E-01    0.2500278118E-02    0.9088834818E-01
    0.1100000000E+02    0.1694218251E-01    0.7252001328E-02    0.1884709446E-01    0.2958602640E-02    0.1071516686E+00
    0.1300000000E+02    0.1989198966E-01    0.8304272580E-02    0.2150870520E-01    0.3389306094E-02    0.1223057774E+00
    0.1500000000E+02    0.2280389570E-01    0.9294502576E-02    0.2399395519E-01    0.3795055503E-02    0.1364617301E+00
    0.1700000000E+02    0.2567875297E-01    0.1022843207E-01    0.2631995607E-01    0.4178167501E-02    0.1497161873E+00
    0.1900000000E+02    0.2851738769E-01    0.1111107575E-01    0.2850166954E-01    0.4540664470E-02    0.1621536766E+00
    0.2100000000E+02    0.3132060099E-01    0.1194683475E-01    0.3055223498E-01    0.4884320243E-02    0.1738484402E+00
    0.2300000000E+02    0.3408916985E-01    0.1273958881E-01    0.3248323895E-01    0.5210697570E-02    0.1848659555E+00
    0.2500000000E+02    0.3682384797E-01    0.1349277244E-01    0.3430493822E-01    0.5521179011E-02    0.1952641928E+00
    0.2700000000E+02    0.3952536666E-01    0.1420943803E-01    0.3602644539E-01    0.5816992577E-02    0.2050946627E+00
    0.2900000000E+02    0.4219443567E-01    0.1489230851E-01    0.3765588431E-01    0.6099233103E-02    0.2144032931E+00
    0.3100000000E+02    0.4483174397E-01    0.1554382164E-01    0.3920052077E-01    0.6368880183E-02    0.2232311663E+00
    0.3300000000E+02    0.4743796049E-01    0.1616616715E-01    0.4066687301E-01    0.6626813268E-02    0.2316151429E+00
    0.3500000000E+02    0.5001373488E-01    0.1676131838E-01    0.4206080560E-01    0.6873824461E-02    0.2395883916E+00
    0.3700000000E+02    0.5255969816E-01    0.1733105907E-01    0.4338760943E-01    0.7110629383E-02    0.2471808406E+00
    0.3900000000E+02    0.5507646342E-01    0.1787700631E-01    0.4465207036E-01    0.7337876460E-02    0.2544195649E+00
    0.4100000000E+02    0.5756462642E-01    0.1840063017E-01    0.4585852809E-01    0.7556154877E-02    0.2613291189E+00
    0.4300000000E+02    0.6002476623E-01    0.1890327062E-01    0.4701092708E-01    0.7766001425E-02    0.2679318237E+00
    0.4500000000E+02    0.6245744578E-01    0.1938615218E-01    0.4811286061E-01    0.7967906416E-02    0.2742480160E+00
    0.4700000000E+02    0.6486321244E-01    0.1985039657E-01    0.4916760908E-01    0.8162318806E-02    0.2802962643E+00
    0.4900000000E+02    0.6724259857E-01    0.2029703372E-01    0.5017817341E-01    0.8349650648E-02    0.2860935570E+00
    0.1000000000E+02    0.1545279228E-01    0.6700574364E-02    0.1744412166E-01    0.2733075181E-02    0.9916623510E-01
    0.3000000000E+02    0.4351701764E-01    0.1522184247E-01    0.3843837911E-01    0.6235573671E-02    0.2188749282E+00
    0.5000000000E+02    0.6842256130E-01    0.2051404875E-01    0.5066775513E-01    0.8440781006E-02    0.2889030130E+00
    0.7000000000E+02    0.9075577195E-01    0.2412457730E-01    0.5869907514E-01    0.9969430585E-02    0.3350849056E+00
    0.9000000000E+02    0.1109618887E+00    0.2670782548E-01    0.6439052350E-01    0.1108293055E-01    0.3679474030E+00
    0.1100000000E+03    0.1293851886E+00    0.2860096522E-01    0.6864195703E-01    0.1191572569E-01    0.3925955047E+00
    0.1300000000E+03    0.1462961938E+00    0.3000172424E-01    0.7194282847E-01    0.1254668907E-01    0.4118098467E+00
    0.1500000000E+03    0.1619105441E+00    0.3103678501E-01    0.7458254923E-01    0.1302646099E-01    0.4272369141E+00
    0.1700000000E+03    0.1764023621E+00    0.3179253674E-01    0.7674339348E-01    0.1338969143E-01    0.4399151305E+00
    0.1900000000E+03    0.1899138961E+00    0.3233061737E-01    0.7854597707E-01    0.1366120837E-01    0.4505326084E+00
    0.2100000000E+03    0.2025625933E+00    0.3269651321E-01    0.8007335643E-01    0.1385942372E-01    0.4595638437E+00
    0.2300000000E+03    0.2144463676E+00    0.3292466896E-01    0.8138462946E-01    0.1399835501E-01    0.4673469270E+00
    0.2500000000E+03    0.2256475766E+00    0.3304170161E-01    0.8252301676E-01    0.1408889653E-01    0.4741294589E+00
    0.2700000000E+03    0.2362360630E+00    0.3306851602E-01    0.8352087338E-01    0.1413965665E-01    0.4800970497E+00
    0.2900000000E+03    0.2462715057E+00    0.3302175021E-01    0.8440291171E-01    0.1415753037E-01    0.4853916604E+00
    0.3100000000E+03    0.2558052579E+00    0.3291479296E-01    0.8518833928E-01    0.1414810315E-01    0.4901237803E+00
    0.3300000000E+03    0.2648817976E+00    0.3275851880E-01    0.8589231571E-01    0.1411594313E-01    0.4943807323E+00
    0.3500000000E+03    0.2735398831E+00    0.3256183001E-01    0.8652696916E-01    0.1406481717E-01    0.4982324722E+00
    0.3700000000E+03    0.2818134811E+00    0.3233206363E-01    0.8710212062E-01    0.1399785337E-01    0.5017357245E+00
    0.3900000000E+03    0.2897325169E+00    0.3207530183E-01    0.8762580947E-01    0.1391766549E-01    0.5049369859E+00
    0.4100000000E+03    0.2973234880E+00    0.3179661179E-01    0.8810468136E-01    0.1382644927E-01    0.5078747438E+00
    0.4300000000E+03    0.3046099659E+00    0.3150023324E-01    0.8854427877E-01    0.1372605801E-01    0.5105811397E+00
    0.4500000000E+03    0.3116130122E+00    0.3118972662E-01    0.8894926156E-01    0.1361806244E-01    0.5130832326E+00
    0.4700000000E+03    0.3183515239E+00    0.3086809121E-01    0.8932357662E-01    0.1350379871E-01    0.5154039718E+00
    0.4900000000E+03    0.3248425221E+00    0.3053786016E-01    0.8967058962E-01    0.1338440694E-01    0.5175629530E+00
    0.1000000000E+03    0.1203780080E+00    0.2772610733E-01    0.6665934852E-01    0.1152861422E-01    0.3810887438E+00
    0.3000000000E+03    0.2510981669E+00    0.3297506405E-01    0.8480667312E-01    0.1415592286E-01    0.4878221088E+00
    0.5000000000E+03    0.3280000703E+00    0.3037020466E-01    0.8983477666E-01    0.1332309861E-01    0.5185871401E+00
    0.7000000000E+03    0.3812211996E+00    0.2693842049E-01    0.9220949288E-01    0.1200127644E-01    0.5336428943E+00
    0.9000000000E+03    0.4209013001E+00    0.2379103381E-01    0.9359208332E-01    0.1071678969E-01    0.5427087411E+00
    0.1100000000E+04    0.4517801676E+00    0.2110680347E-01    0.9449464440E-01    0.9581751237E-02    0.5488227107E+00
    0.1300000000E+04    0.4765091261E+00    0.1885993424E-01    0.9512819869E-01    0.8606546981E-02    0.5532531289E+00
    0.1500000000E+04    0.4967382294E+00    0.1698288242E-01    0.9559582910E-01    0.7774860404E-02    0.5566273471E+00
    0.1700000000E+04    0.5135666943E+00    0.1540812115E-01    0.9595393447E-01    0.7065173779E-02    0.5592927679E+00
    0.1900000000E+04    0.5277616822E+00    0.1407813953E-01    0.9623598943E-01    0.6457197603E-02    0.5614580170E+00
    0.2100000000E+04    0.5398771263E+00    0.1294642867E-01    0.9646312298E-01    0.5933541524E-02    0.5632562898E+00
    0.2300000000E+04    0.5503236397E+00    0.1197604908E-01    0.9664933021E-01    0.5479830426E-02    0.5647768003E+00
    0.2500000000E+04    0.5594121198E+00    0.1113779076E-01    0.9680424797E-01    0.5084347858E-02    0.5660816564E+00
    0.2700000000E+04    0.5673821719E+00    0.1040851381E-01    0.9693472770E-01    0.4737583736E-02    0.5672154914E+00
    0.2900000000E+04    0.5744212842E+00    0.9769798298E-02    0.9704577274E-01    0.4431812730E-02    0.5682112463E+00
    0.3100000000E+04    0.5806781245E+00    0.9206889300E-02    0.9714112111E-01    0.4160738249E-02    0.5690937898E+00
    0.3300000000E+04    0.5862719746E+00    0.8707885641E-02    0.9722362077E-01    0.3919204077E-02    0.5698822659E+00
    0.3500000000E+04    0.5912995547E+00    0.8263119428E-02    0.9729547899E-01    0.3702965139E-02    0.5705916642E+00
    0.3700000000E+04    0.5958400432E+00    0.7864681199E-02    0.9735843226E-01    0.3508506688E-02    0.5712338974E+00
    0.3900000000E+04    0.5999588243E+00    0.7506055285E-02    0.9741386498E-01    0.3332901975E-02    0.5718185589E+00
    0.4100000000E+04    0.6037103236E+00    0.7181838358E-02    0.9746289402E-01    0.3173700055E-02    0.5723534657E+00
    0.4300000000E+04    0.6071401777E+00    0.6887520888E-02    0.9750642997E-01    0.3028837089E-02    0.5728450549E+00
    0.4500000000E+04    0.6102869138E+00    0.6619316360E-02    0.9754522241E-01    0.2896565918E-02    0.5732986782E+00
    0.4700000000E+04    0.6131832620E+00    0.6374026926E-02    0.9757989380E-01    0.2775399875E-02    0.5737188233E+00
    0.4900000000E+04    0.6158571910E+00    0.6148937029E-02    0.9761096506E-01    0.2664067725E-02    0.5741092834E+00
    0.1000000000E+04    0.4372437774E+00    0.2239074204E-01    0.9408645654E-01    0.1012886709E-01    0.5460334133E+00
    0.3000000000E+04    0.5776394349E+00    0.9479670611E-02    0.9709521355E-01    0.4292284466E-02    0.5686653601E+00
    0.5000000000E+04    0.6171183925E+00    0.6043228950E-02    0.9762529063E-01    0.2611741919E-02    0.5742944099E+00
    0.7000000000E+04    0.6350272596E+00    0.4574009167E-02    0.9780021789E-01    0.1883751043E-02    0.5770180906E+00
    0.9000000000E+04    0.6451151088E+00    0.3769796062E-02    0.9786431314E-01    0.1488404681E-02    0.5786766345E+00
    0.1100000000E+05    0.6515494268E+00    0.3261444176E-02    0.9788259532E-01    0.1242573370E-02    0.5798153156E+00
    0.1300000000E+05    0.6559974948E+00    0.2908933385E-02    0.9787900353E-01    0.1075450274E-02    0.5806571236E+00
    0.1500000000E+05    0.6592506164E+00    0.2648386845E-02    0.9786409785E-01    0.9544718788E-03    0.5813115056E+00
    0.1700000000E+05    0.6617307849E+00    0.2446707865E-02    0.9784310583E-01    0.8627399565E-03    0.5818389883E+00
    0.1900000000E+05    0.6636829745E+00    0.2285075225E-02    0.9781882725E-01    0.7906697821E-03    0.5822760019E+00
    0.2100000000E+05    0.6652588893E+00    0.2151998806E-02    0.9779284711E-01    0.7324409235E-03    0.5826459077E+00
    0.2300000000E+05    0.6665573780E+00    0.2040061436E-02    0.9776609831E-01    0.6843227154E-03    0.5829644435E+00
    0.2500000000E+05    0.6676455527E+00    0.1944254818E-02    0.9773914440E-01    0.6438168993E-03    0.5832426381E+00
    0.2700000000E+05    0.6685705508E+00    0.1861069787E-02    0.9771233075E-01    0.6091888066E-03    0.5834884746E+00
    0.2900000000E+05    0.6693664357E+00    0.1787970390E-02    0.9768586950E-01    0.5791967481E-03    0.5837078896E+00
    0.3100000000E+05    0.6700584274E+00    0.1723075366E-02    0.9765988936E-01    0.5529285715E-03    0.5839053997E+00
    0.3300000000E+05    0.6706655918E+00    0.1664957451E-02    0.9763446571E-01    0.5296990696E-03    0.5840845092E+00
    0.3500000000E+05    0.6712026069E+00    0.1612512567E-02    0.9760963941E-01    0.5089834136E-03    0.5842479842E+00
    0.3700000000E+05    0.6716809544E+00    0.1564872018E-02    0.9758542875E-01    0.4903726981E-03    0.5843980401E+00
    0.3900000000E+05    0.6721097439E+00    0.1521342016E-02    0.9756183720E-01    0.4735434927E-03    0.5845364754E+00
    0.4100000000E+05    0.6724962940E+00    0.1481361067E-02    0.9753885857E-01    0.4582365145E-03    0.5846647670E+00
    0.4300000000E+05    0.6728465517E+00    0.1444469341E-02    0.9751648045E-01    0.4442413886E-03    0.5847841408E+00
    0.4500000000E+05    0.6731653990E+00    0.1410286246E-02    0.9749468649E-01    0.4313855618E-03    0.5848956235E+00
    0.4700000000E+05    0.6734568805E+00    0.1378493746E-02    0.9747345802E-01    0.4195261079E-03    0.5850000830E+00
    0.4900000000E+05    0.6737243755E+00    0.1348823761E-02    0.9745277510E-01    0.4085435799E-03    0.5850982580E+00
    0.1000000000E+05    0.6486542809E+00    0.3490079566E-02    0.9787720974E-01    0.1352568892E-02    0.5792930948E+00
    0.3000000000E+05    0.6697241065E+00    0.1754595383E-02    0.9767281359E-01    0.5656444051E-03    0.5838091437E+00
    0.5000000000E+05    0.6738500353E+00    0.1334712177E-02    0.9744263183E-01    0.4033490825E-03    0.5851451904E+00
    0.7000000000E+05    0.6756052978E+00    0.1123092895E-02    0.9726359317E-01    0.3277160556E-03    0.5858691620E+00
    0.9000000000E+05    0.6765778188E+00    0.9896052064E-03    0.9711918294E-01    0.2821981285E-03    0.5863486441E+00
    0.1100000000E+06    0.6771962599E+00    0.8954233432E-03    0.9699850181E-01    0.2510921313E-03    0.5867004810E+00
    0.1300000000E+06    0.6776245406E+00    0.8243218799E-03    0.9689492082E-01    0.2281532149E-03    0.5869752542E+00
    0.1500000000E+06    0.6779388850E+00    0.7681486034E-03    0.9680420785E-01    0.2103567541E-03    0.5871990135E+00
    0.1700000000E+06    0.6781795547E+00    0.7222943756E-03    0.9672351721E-01    0.1960405967E-03    0.5873867788E+00
    0.1900000000E+06    0.6783698249E+00    0.6839286998E-03    0.9665084954E-01    0.1842070188E-03    0.5875479302E+00
    0.2100000000E+06    0.6785240904E+00    0.6512034139E-03    0.9658474837E-01    0.1742166852E-03    0.5876886846E+00
    0.2300000000E+06    0.6786517341E+00    0.6228531834E-03    0.9652412059E-01    0.1656387447E-03    0.5878133578E+00
    0.2500000000E+06    0.6787591344E+00    0.5979783409E-03    0.9646812511E-01    0.1581709765E-03    0.5879250577E+00
    0.2700000000E+06    0.6788507797E+00    0.5759191686E-03    0.9641610104E-01    0.1515943554E-03    0.5880260914E+00
    0.2900000000E+06    0.6789299203E+00    0.5561793157E-03    0.9636751968E-01    0.1457457894E-03    0.5881182148E+00
    0.3100000000E+06    0.6789989685E+00    0.5383771440E-03    0.9632195145E-01    0.1405010253E-03    0.5882027931E+00
    0.3300000000E+06    0.6790597521E+00    0.5222137029E-03    0.9627904261E-01    0.1357635295E-03    0.5882809071E+00
    0.3500000000E+06    0.6791136818E+00    0.5074510046E-03    0.9623849836E-01    0.1314570234E-03    0.5883534262E+00
    0.3700000000E+06    0.6791618636E+00    0.4938968984E-03    0.9620007044E-01    0.1275203351E-03    0.5884210594E+00
    0.3900000000E+06    0.6792051773E+00    0.4813942961E-03    0.9616354782E-01    0.1239037639E-03    0.5884843918E+00
    0.4100000000E+06    0.6792443313E+00    0.4698133423E-03    0.9612874961E-01    0.1205664587E-03    0.5885439119E+00
    0.4300000000E+06    0.6792799025E+00    0.4590456233E-03    0.9609551954E-01    0.1174744926E-03    0.5886000309E+00
    0.4500000000E+06    0.6793123655E+00    0.4489998138E-03    0.9606372174E-01    0.1145994261E-03    0.5886530986E+00
    0.4700000000E+06    0.6793421144E+00    0.4395983588E-03    0.9603323729E-01    0.1119172177E-03    0.5887034146E+00
    0.4900000000E+06    0.6793694793E+00    0.4307749109E-03    0.9600396152E-01    0.1094073878E-03    0.5887512372E+00
    0.1000000000E+06    0.6769179663E+00    0.9388926160E-03    0.9705636337E-01    0.2653461790E-03    0.5865365218E+00
    0.3000000000E+06    0.6789655803E+00    0.5470563483E-03    0.9634438259E-01    0.1430545138E-03    0.5881613739E+00
    0.5000000000E+06    0.6793823564E+00    0.4265617686E-03    0.9598974753E-01    0.1082115259E-03    0.5887742848E+00
    0.7000000000E+06    0.6795639537E+00    0.3621823866E-03    0.9575116123E-01    0.9014894728E-04    0.5891460408E+00
    0.9000000000E+06    0.6796663363E+00    0.3205437244E-03    0.9557098655E-01    0.7868603374E-04    0.5894105217E+00
    0.1100000000E+07    0.6797323622E+00    0.2907684140E-03    0.9542612483E-01    0.7060163764E-04    0.5896147898E+00
    0.1300000000E+07    0.6797786350E+00    0.2681051294E-03    0.9530495424E-01    0.6451489918E-04    0.5897806884E+00
    0.1500000000E+07    0.6798129561E+00    0.2501028885E-03    0.9520079272E-01    0.5972322278E-04    0.5899200810E+00
    0.1700000000E+07    0.6798394827E+00    0.2353517428E-03    0.9510944142E-01    0.5582679296E-04    0.5900401068E+00
    0.1900000000E+07    0.6798606362E+00    0.2229752687E-03    0.9502808816E-01    0.5257929911E-04    0.5901453857E+00
    0.2100000000E+07    0.6798779244E+00    0.2123960921E-03    0.9495475660E-01    0.4981970771E-04    0.5902390739E+00
    0.2300000000E+07    0.6798923362E+00    0.2032162336E-03    0.9488800451E-01    0.4743775378E-04    0.5903234209E+00
    0.2500000000E+07    0.6799045478E+00    0.1951512263E-03    0.9482674703E-01    0.4535508390E-04    0.5904000845E+00
    0.2700000000E+07    0.6799150373E+00    0.1879915902E-03    0.9477014745E-01    0.4351430252E-04    0.5904703208E+00
    0.2900000000E+07    0.6799241527E+00    0.1815791773E-03    0.9471754688E-01    0.4187228510E-04    0.5905351037E+00
    0.3100000000E+07    0.6799321536E+00    0.1757920432E-03    0.9466841712E-01    0.4039592447E-04    0.5905952033E+00
    0.3300000000E+07    0.6799392375E+00    0.1705344376E-03    0.9462232824E-01    0.3905932941E-04    0.5906512384E+00
    0.3500000000E+07    0.6799455573E+00    0.1657299818E-03    0.9457892558E-01    0.3784192400E-04    0.5907037140E+00
    0.3700000000E+07    0.6799512336E+00    0.1613169015E-03    0.9453791316E-01    0.3672712444E-04    0.5907530471E+00
    0.3900000000E+07    0.6799563625E+00    0.1572446194E-03    0.9449904141E-01    0.3570139706E-04    0.5907995861E+00
    0.4100000000E+07    0.6799610218E+00    0.1534712720E-03    0.9446209791E-01    0.3475357424E-04    0.5908436250E+00
    0.4300000000E+07    0.6799652751E+00    0.1499618686E-03    0.9442690040E-01    0.3387434868E-04    0.5908854141E+00
    0.4500000000E+07    0.6799691747E+00    0.1466869044E-03    0.9439329130E-01    0.3305589376E-04    0.5909251681E+00
    0.4700000000E+07    0.6799727644E+00    0.1436213009E-03    0.9436113346E-01    0.3229157438E-04    0.5909630726E+00
    0.4900000000E+07    0.6799760809E+00    0.1407435871E-03    0.9433030675E-01    0.3157572381E-04    0.5909992892E+00
    0.1000000000E+07    0.6797025473E+00    0.3045481616E-03    0.9549502866E-01    0.7433096346E-04    0.5895184842E+00
    0.3000000000E+07    0.6799282790E+00    0.1786139566E-03    0.9469257702E-01    0.4111515930E-04    0.5905656972E+00
    0.5000000000E+07    0.6799776466E+00    0.1393693046E-03    0.9431535901E-01    0.3123442463E-04    0.5910168094E+00
    0.7000000000E+07    0.6800001373E+00    0.1183561923E-03    0.9406615135E-01    0.2606363224E-04    0.5913052453E+00
    0.9000000000E+07    0.6800132628E+00    0.1047552152E-03    0.9387977279E-01    0.2276863280E-04    0.5915169387E+00
    0.1100000000E+08    0.6800219740E+00    0.9502593262E-04    0.9373085434E-01    0.2043952066E-04    0.5916839537E+00
    0.1300000000E+08    0.6800282324E+00    0.8761921023E-04    0.9360684014E-01    0.1868344830E-04    0.5918217516E+00
    0.1500000000E+08    0.6800329771E+00    0.8173519704E-04    0.9350058961E-01    0.1729968277E-04    0.5919389653E+00
    0.1700000000E+08    0.6800367171E+00    0.7691352097E-04    0.9340765122E-01    0.1617367512E-04    0.5920409022E+00
    0.1900000000E+08    0.6800397534E+00    0.7286791387E-04    0.9332506167E-01    0.1523471574E-04    0.5921310560E+00
    0.2100000000E+08    0.6800422759E+00    0.6940974167E-04    0.9325074854E-01    0.1443650751E-04    0.5922118484E+00
    0.2300000000E+08    0.6800444108E+00    0.6640895854E-04    0.9318320550E-01    0.1374731311E-04    0.5922850259E+00
    0.2500000000E+08    0.6800462454E+00    0.6377259907E-04    0.9312130326E-01    0.1314455989E-04    0.5923518895E+00
    0.2700000000E+08    0.6800478423E+00    0.6143219801E-04    0.9306417336E-01    0.1261170082E-04    0.5924134338E+00
