  Pressure (Pa) 22mC5-400 (mol/kg) 2mC6-400 (mol/kg) 3mC6-400 (mol/kg) 33mC5-400 (mol/kg) C7-400 (mol/kg)
    0.1000000000E+01    0.1588237796E-02    0.3913686757E-02    0.5179977618E-03    0.1274861965E-03    0.1513128335E-01
    0.3000000000E+01    0.4705579122E-02    0.1116104062E-01    0.1472454678E-02    0.3637187290E-03    0.4302299455E-01
    0.5000000000E+01    0.7747145429E-02    0.1773067879E-01    0.2332048957E-02    0.5780634159E-03    0.6815584708E-01
    0.7000000000E+01    0.1071641697E-01    0.2371779076E-01    0.3110569119E-02    0.7736025004E-03    0.9093023818E-01
    0.9000000000E+01    0.1361665679E-01    0.2919991355E-01    0.3819239962E-02    0.9528450762E-03    0.1116721753E+00
    0.1100000000E+02    0.1645092757E-01    0.3424088771E-01    0.4467292942E-02    0.1117855761E-02    0.1306498186E+00
    0.1300000000E+02    0.1922210691E-01    0.3889379283E-01    0.5062390681E-02    0.1270350144E-02    0.1480857944E+00
    0.1500000000E+02    0.2193290121E-01    0.4320315691E-01    0.5610947358E-02    0.1411766589E-02    0.1641664892E+00
    0.1700000000E+02    0.2458585838E-01    0.4720664075E-01    0.6118373606E-02    0.1543320959E-02    0.1790491548E+00
    0.1900000000E+02    0.2718337936E-01    0.5093633737E-01    0.6589265886E-02    0.1666048813E-02    0.1928674032E+00
    0.2100000000E+02    0.2972772866E-01    0.5441978545E-01    0.7027554507E-02    0.1780838303E-02    0.2057355019E+00
    0.2300000000E+02    0.3222104406E-01    0.5768076761E-01    0.7436620442E-02    0.1888456076E-02    0.2177517639E+00
    0.2500000000E+02    0.3466534542E-01    0.6073994520E-01    0.7819388375E-02    0.1989567857E-02    0.2290012485E+00
    0.2700000000E+02    0.3706254279E-01    0.6361536729E-01    0.8178401425E-02    0.2084754958E-02    0.2395579303E+00
    0.2900000000E+02    0.3941444387E-01    0.6632288226E-01    0.8515881638E-02    0.2174527604E-02    0.2494864554E+00
    0.3100000000E+02    0.4172276084E-01    0.6887647302E-01    0.8833779297E-02    0.2259335801E-02    0.2588435730E+00
    0.3300000000E+02    0.4398911666E-01    0.7128853199E-01    0.9133813411E-02    0.2339578229E-02    0.2676793112E+00
    0.3500000000E+02    0.4621505092E-01    0.7357008820E-01    0.9417505155E-02    0.2415609597E-02    0.2760379480E+00
    0.3700000000E+02    0.4840202511E-01    0.7573099592E-01    0.9686205664E-02    0.2487746742E-02    0.2839588183E+00
    0.3900000000E+02    0.5055142765E-01    0.7778009240E-01    0.9941119260E-02    0.2556273727E-02    0.2914769889E+00
    0.4100000000E+02    0.5266457844E-01    0.7972533030E-01    0.1018332296E-01    0.2621446127E-02    0.2986238251E+00
    0.4300000000E+02    0.5474273306E-01    0.8157388974E-01    0.1041378295E-01    0.2683494638E-02    0.3054274694E+00
    0.4500000000E+02    0.5678708672E-01    0.8333227322E-01    0.1063336858E-01    0.2742628152E-02    0.3119132472E+00
    0.4700000000E+02    0.5879877790E-01    0.8500638679E-01    0.1084286423E-01    0.2799036371E-02    0.3181040132E+00
    0.4900000000E+02    0.6077889172E-01    0.8660160942E-01    0.1104297953E-01    0.2852892047E-02    0.3240204474E+00
    0.1000000000E+02    0.1504185429E-01    0.3177200339E-01    0.4150332183E-02    0.1037014939E-02    0.1213666736E+00
    0.3000000000E+02    0.4057394691E-01    0.6761810923E-01    0.8677165851E-02    0.2217526231E-02    0.2542331681E+00
    0.5000000000E+02    0.6175743240E-01    0.8737118833E-01    0.1113972305E-01    0.2878912512E-02    0.3268817212E+00
    0.7000000000E+02    0.7989821042E-01    0.9961466398E-01    0.1271051672E-01    0.3297220694E-02    0.3734482130E+00
    0.9000000000E+02    0.9580892133E-01    0.1076504764E+00    0.1381079677E-01    0.3578498978E-02    0.4062184358E+00
    0.1100000000E+03    0.1100238162E+00    0.1130722437E+00    0.1463047955E-01    0.3773983001E-02    0.4307408000E+00
    0.1300000000E+03    0.1229098884E+00    0.1167595289E+00    0.1526832532E-01    0.3912025763E-02    0.4499054138E+00
    0.1500000000E+03    0.1347284536E+00    0.1192423861E+00    0.1578102738E-01    0.4009777166E-02    0.4653740648E+00
    0.1700000000E+03    0.1456712337E+00    0.1208606479E+00    0.1620358628E-01    0.4078281866E-02    0.4781743391E+00
    0.1900000000E+03    0.1558825006E+00    0.1218424609E+00    0.1655885160E-01    0.4124992525E-02    0.4889781448E+00
    0.2100000000E+03    0.1654732061E+00    0.1223465583E+00    0.1686241568E-01    0.4155123543E-02    0.4982447014E+00
    0.2300000000E+03    0.1745303025E+00    0.1224865795E+00    0.1712530821E-01    0.4172430801E-02    0.5062993510E+00
    0.2500000000E+03    0.1831230694E+00    0.1223458069E+00    0.1735556742E-01    0.4179685014E-02    0.5133795545E+00
    0.2700000000E+03    0.1913075188E+00    0.1219864816E+00    0.1755920021E-01    0.4178971488E-02    0.5196630303E+00
    0.2900000000E+03    0.1991295294E+00    0.1214558962E+00    0.1774079272E-01    0.4171886692E-02    0.5252856612E+00
    0.3100000000E+03    0.2066271218E+00    0.1207905000E+00    0.1790391169E-01    0.4159670978E-02    0.5303532799E+00
    0.3300000000E+03    0.2138321386E+00    0.1200187322E+00    0.1805137618E-01    0.4143300467E-02    0.5349496533E+00
    0.3500000000E+03    0.2207715050E+00    0.1191630213E+00    0.1818544615E-01    0.4123552055E-02    0.5391420292E+00
    0.3700000000E+03    0.2274681883E+00    0.1182412213E+00    0.1830795624E-01    0.4101050272E-02    0.5429850765E+00
    0.3900000000E+03    0.2339419373E+00    0.1172676621E+00    0.1842041269E-01    0.4076301641E-02    0.5465237392E+00
    0.4100000000E+03    0.2402098596E+00    0.1162539279E+00    0.1852406461E-01    0.4049720242E-02    0.5497953399E+00
    0.4300000000E+03    0.2462868762E+00    0.1152094423E+00    0.1861995735E-01    0.4021646990E-02    0.5528311552E+00
    0.4500000000E+03    0.2521860839E+00    0.1141419135E+00    0.1870897302E-01    0.3992364354E-02    0.5556576120E+00
    0.4700000000E+03    0.2579190464E+00    0.1130576764E+00    0.1879186158E-01    0.3962107715E-02    0.5582972079E+00
    0.4900000000E+03    0.2634960300E+00    0.1119619584E+00    0.1886926505E-01    0.3931074219E-02    0.5607692276E+00
    0.1000000000E+03    0.1031023746E+00    0.1106221839E+00    0.1424819219E-01    0.3684842045E-02    0.4192906233E+00
    0.3000000000E+03    0.2029167594E+00    0.1211381110E+00    0.1782447021E-01    0.4166353867E-02    0.5278831689E+00
    0.5000000000E+03    0.2662289315E+00    0.1114111769E+00    0.1890608576E-01    0.3915319049E-02    0.5619476855E+00
    0.7000000000E+03    0.3144866340E+00    0.1005192193E+00    0.1945572355E-01    0.3588257817E-02    0.5797697285E+00
    0.9000000000E+03    0.3535858831E+00    0.9063740458E-01    0.1979525450E-01    0.3273408774E-02    0.5910632511E+00
    0.1100000000E+04    0.3861785989E+00    0.8203318403E-01    0.2002828383E-01    0.2988510531E-02    0.5989956486E+00
    0.1300000000E+04    0.4137973943E+00    0.7461382927E-01    0.2019919381E-01    0.2735625703E-02    0.6049394913E+00
    0.1500000000E+04    0.4374635313E+00    0.6821934395E-01    0.2033042002E-01    0.2512548715E-02    0.6095960617E+00
    0.1700000000E+04    0.4579160984E+00    0.6269241539E-01    0.2043461734E-01    0.2315980389E-02    0.6133649064E+00
    0.1900000000E+04    0.4757167484E+00    0.5789525541E-01    0.2051950593E-01    0.2142551902E-02    0.6164920982E+00
    0.2100000000E+04    0.4913053046E+00    0.5371176302E-01    0.2059008203E-01    0.1989165710E-02    0.6191383351E+00
    0.2300000000E+04    0.5050329784E+00    0.5004552171E-01    0.2064973186E-01    0.1853091767E-02    0.6214134772E+00
    0.2500000000E+04    0.5171840648E+00    0.4681684700E-01    0.2070083727E-01    0.1731970940E-02    0.6233954425E+00
    0.2700000000E+04    0.5279910531E+00    0.4395990504E-01    0.2074512565E-01    0.1623784022E-02    0.6251411901E+00
    0.2900000000E+04    0.5376456296E+00    0.4142020018E-01    0.2078388221E-01    0.1526810211E-02    0.6266934232E+00
    0.3100000000E+04    0.5463069422E+00    0.3915248045E-01    0.2081808416E-01    0.1439585029E-02    0.6280848522E+00
    0.3300000000E+04    0.5541079382E+00    0.3711902668E-01    0.2084848858E-01    0.1360861662E-02    0.6293409998E+00
    0.3500000000E+04    0.5611603034E+00    0.3528826768E-01    0.2087569166E-01    0.1289577024E-02    0.6304821027E+00
    0.3700000000E+04    0.5675583524E+00    0.3363366377E-01    0.2090016958E-01    0.1224822713E-02    0.6315244342E+00
    0.3900000000E+04    0.5733821223E+00    0.3213280694E-01    0.2092230759E-01    0.1165820454E-02    0.6324812445E+00
    0.4100000000E+04    0.5786998511E+00    0.3076669490E-01    0.2094242085E-01    0.1111901531E-02    0.6333634427E+00
    0.4300000000E+04    0.5835699759E+00    0.2951914393E-01    0.2096076984E-01    0.1062489591E-02    0.6341801009E+00
    0.4500000000E+04    0.5880427532E+00    0.2837631263E-01    0.2097757181E-01    0.1017086328E-02    0.6349388311E+00
    0.4700000000E+04    0.5921615798E+00    0.2732631426E-01    0.2099300945E-01    0.9752595332E-03    0.6356460732E+00
    0.4900000000E+04    0.5959640753E+00    0.2635889995E-01    0.2100723757E-01    0.9366331395E-03    0.6363073154E+00
    0.1000000000E+04    0.3705836081E+00    0.8617826393E-01    0.1992155938E-01    0.3126921366E-02    0.5953409780E+00
    0.3000000000E+04    0.5420915843E+00    0.4025485850E-01    0.2080150083E-01    0.1482061647E-02    0.6274075003E+00
    0.5000000000E+04    0.5977570980E+00    0.2590334200E-01    0.2101394011E-01    0.9184158459E-03    0.6366221847E+00
    0.7000000000E+04    0.6230588951E+00    0.1950385300E-01    0.2110826884E-01    0.6611858553E-03    0.6413611641E+00
    0.9000000000E+04    0.6370062883E+00    0.1596957696E-01    0.2115988270E-01    0.5192141577E-03    0.6443506640E+00
    0.1100000000E+05    0.6456873561E+00    0.1373849426E-01    0.2119125689E-01    0.4305996030E-03    0.6464505294E+00
    0.1300000000E+05    0.6515535676E+00    0.1219852037E-01    0.2121150490E-01    0.3704258975E-03    0.6480272655E+00
    0.1500000000E+05    0.6557581502E+00    0.1106652673E-01    0.2122502817E-01    0.3270069699E-03    0.6492663488E+00
    0.1700000000E+05    0.6589075679E+00    0.1019503575E-01    0.2123421032E-01    0.2942180105E-03    0.6502728330E+00
    0.1900000000E+05    0.6613485076E+00    0.9500096908E-02    0.2124045153E-01    0.2685682253E-03    0.6511111810E+00
    0.2100000000E+05    0.6632923985E+00    0.8930524332E-02    0.2124462590E-01    0.2479337210E-03    0.6518233963E+00
    0.2300000000E+05    0.6648750045E+00    0.8453357804E-02    0.2124730552E-01    0.2309529108E-03    0.6524381584E+00
    0.2500000000E+05    0.6661872433E+00    0.8046410416E-02    0.2124887927E-01    0.2167147989E-03    0.6529757976E+00
    0.2700000000E+05    0.6672921614E+00    0.7694188962E-02    0.2124961975E-01    0.2045878076E-03    0.6534511752E+00
    0.2900000000E+05    0.6682347824E+00    0.7385535882E-02    0.2124972304E-01    0.1941207306E-03    0.6538754380E+00
    0.3100000000E+05    0.6690480765E+00    0.7112202590E-02    0.2124933325E-01    0.1849828397E-03    0.6542571303E+00
    0.3300000000E+05    0.6697567167E+00    0.6867952060E-02    0.2124855826E-01    0.1769262764E-03    0.6546029254E+00
    0.3500000000E+05    0.6703795194E+00    0.6647975090E-02    0.2124748015E-01    0.1697616559E-03    0.6549181208E+00
    0.3700000000E+05    0.6709310749E+00    0.6448499362E-02    0.2124616219E-01    0.1633417864E-03    0.6552069818E+00
    0.3900000000E+05    0.6714228649E+00    0.6266520840E-02    0.2124465379E-01    0.1575505285E-03    0.6554729865E+00
    0.4100000000E+05    0.6718640443E+00    0.6099614982E-02    0.2124299390E-01    0.1522950027E-03    0.6557190029E+00
    0.4300000000E+05    0.6722619995E+00    0.5945801353E-02    0.2124121353E-01    0.1475000273E-03    0.6559474196E+00
    0.4500000000E+05    0.6726227534E+00    0.5803444769E-02    0.2123933758E-01    0.1431040804E-03    0.6561602444E+00
    0.4700000000E+05    0.6729512655E+00    0.5671181919E-02    0.2123738615E-01    0.1390563177E-03    0.6563591785E+00
    0.4900000000E+05    0.6732516550E+00    0.5547866103E-02    0.2123537560E-01    0.1353143405E-03    0.6565456744E+00
    0.1000000000E+05    0.6418068004E+00    0.1474091457E-01    0.2117736702E-01    0.4702542237E-03    0.6454827082E+00
    0.3000000000E+05    0.6686558922E+00    0.7244883216E-02    0.2124958233E-01    0.1894027353E-03    0.6540711512E+00
    0.5000000000E+05    0.6733924041E+00    0.5489253627E-02    0.2123435245E-01    0.1335466557E-03    0.6566346551E+00
    0.7000000000E+05    0.6753334239E+00    0.4613031134E-02    0.2121300486E-01    0.1079708412E-03    0.6579890799E+00
    0.9000000000E+05    0.6763880012E+00    0.4062554666E-02    0.2119234572E-01    0.9272510035E-04    0.6588605977E+00
    0.1100000000E+06    0.6770505984E+00    0.3674953497E-02    0.2117336872E-01    0.8236751104E-04    0.6594823362E+00
    0.1300000000E+06    0.6775057607E+00    0.3382668319E-02    0.2115608057E-01    0.7475926200E-04    0.6599551558E+00
    0.1500000000E+06    0.6778379168E+00    0.3151905270E-02    0.2114029570E-01    0.6887298293E-04    0.6603307400E+00
    0.1700000000E+06    0.6780911413E+00    0.2963612303E-02    0.2112581066E-01    0.6414752881E-04    0.6606386761E+00
    0.1900000000E+06    0.6782906871E+00    0.2806112121E-02    0.2111244437E-01    0.6024763419E-04    0.6608972884E+00
    0.2100000000E+06    0.6784520638E+00    0.2671790516E-02    0.2110004433E-01    0.5695924913E-04    0.6611186147E+00
    0.2300000000E+06    0.6785853241E+00    0.2555439650E-02    0.2108848408E-01    0.5413854840E-04    0.6613109344E+00
    0.2500000000E+06    0.6786972703E+00    0.2453359440E-02    0.2107765887E-01    0.5168488854E-04    0.6614801552E+00
    0.2700000000E+06    0.6787926707E+00    0.2362838173E-02    0.2106748155E-01    0.4952547732E-04    0.6616306220E+00
    0.2900000000E+06    0.6788749671E+00    0.2281836527E-02    0.2105787915E-01    0.4760620292E-04    0.6617656111E+00
    0.3100000000E+06    0.6789467067E+00    0.2208787021E-02    0.2104879010E-01    0.4588589900E-04    0.6618876470E+00
    0.3300000000E+06    0.6790098149E+00    0.2142462115E-02    0.2104016209E-01    0.4433262244E-04    0.6619987107E+00
    0.3500000000E+06    0.6790657748E+00    0.2081884800E-02    0.2103195029E-01    0.4292115962E-04    0.6621003814E+00
    0.3700000000E+06    0.6791157470E+00    0.2026266371E-02    0.2102411609E-01    0.4163130934E-04    0.6621939363E+00
    0.3900000000E+06    0.6791606531E+00    0.1974962127E-02    0.2101662597E-01    0.4044667210E-04    0.6622804207E+00
    0.4100000000E+06    0.6792012341E+00    0.1927439190E-02    0.2100945068E-01    0.3935377835E-04    0.6623606996E+00
    0.4300000000E+06    0.6792380928E+00    0.1883252709E-02    0.2100256452E-01    0.3834144895E-04    0.6624354961E+00
    0.4500000000E+06    0.6792717246E+00    0.1842027974E-02    0.2099594484E-01    0.3740031833E-04    0.6625054199E+00
    0.4700000000E+06    0.6793025403E+00    0.1803446794E-02    0.2098957154E-01    0.3652247342E-04    0.6625709894E+00
    0.4900000000E+06    0.6793308836E+00    0.1767236971E-02    0.2098342670E-01    0.3570117669E-04    0.6626326483E+00
    0.1000000000E+06    0.6767532144E+00    0.3853780156E-02    0.2118263808E-01    0.8710782832E-04    0.6591947122E+00
    0.3000000000E+06    0.6789120240E+00    0.2244401235E-02    0.2105327392E-01    0.4672335840E-04    0.6618281136E+00
    0.5000000000E+06    0.6793442205E+00    0.1749946772E-02    0.2098043489E-01    0.3530989594E-04    0.6626621329E+00
    0.7000000000E+06    0.6795323205E+00    0.1485720609E-02    0.2092946439E-01    0.2940302745E-04    0.6631166768E+00
    0.9000000000E+06    0.6796384921E+00    0.1314803191E-02    0.2089014137E-01    0.2565706127E-04    0.6634156793E+00
    0.1100000000E+07    0.6797070858E+00    0.1192570594E-02    0.2085808283E-01    0.2301620923E-04    0.6636327349E+00
    0.1300000000E+07    0.6797552553E+00    0.1099528237E-02    0.2083099896E-01    0.2102842552E-04    0.6638002187E+00
    0.1500000000E+07    0.6797910569E+00    0.1025618469E-02    0.2080753996E-01    0.1946386768E-04    0.6639349408E+00
    0.1700000000E+07    0.6798187841E+00    0.9650548622E-03    0.2078684212E-01    0.1819180284E-04    0.6640466307E+00
    0.1900000000E+07    0.6798409390E+00    0.9142402210E-03    0.2076831888E-01    0.1713171750E-04    0.6641413715E+00
    0.2100000000E+07    0.6798590806E+00    0.8708045738E-03    0.2075155336E-01    0.1623098589E-04    0.6642231931E+00
    0.2300000000E+07    0.6798742318E+00    0.8331142059E-03    0.2073623855E-01    0.1545357998E-04    0.6642948882E+00
    0.2500000000E+07    0.6798870930E+00    0.8000013046E-03    0.2072214171E-01    0.1477390229E-04    0.6643584630E+00
    0.2700000000E+07    0.6798981595E+00    0.7706058587E-03    0.2070908216E-01    0.1417320432E-04    0.6644154025E+00
    0.2900000000E+07    0.6799077925E+00    0.7442785697E-03    0.2069691677E-01    0.1363740071E-04    0.6644668328E+00
    0.3100000000E+07    0.6799162613E+00    0.7205187626E-03    0.2068553025E-01    0.1315567886E-04    0.6645136266E+00
    0.3300000000E+07    0.6799237710E+00    0.6989332956E-03    0.2067482831E-01    0.1271958351E-04    0.6645564719E+00
    0.3500000000E+07    0.6799304809E+00    0.6792085587E-03    0.2066473286E-01    0.1232239563E-04    0.6645959200E+00
    0.3700000000E+07    0.6799365163E+00    0.6610909013E-03    0.2065517851E-01    0.1195870014E-04    0.6646324189E+00
    0.3900000000E+07    0.6799419774E+00    0.6443726450E-03    0.2064610990E-01    0.1162407812E-04    0.6646663365E+00
    0.4100000000E+07    0.6799469453E+00    0.6288818895E-03    0.2063747982E-01    0.1131488340E-04    0.6646979788E+00
    0.4300000000E+07    0.6799514863E+00    0.6144749537E-03    0.2062924761E-01    0.1102807730E-04    0.6647276025E+00
    0.4500000000E+07    0.6799556551E+00    0.6010306813E-03    0.2062137804E-01    0.1076110468E-04    0.6647554250E+00
    0.4700000000E+07    0.6799594975E+00    0.5884460921E-03    0.2061384039E-01    0.1051179947E-04    0.6647816315E+00
    0.4900000000E+07    0.6799630517E+00    0.5766330174E-03    0.2060660766E-01    0.1027831178E-04    0.6648063814E+00
    0.1000000000E+07    0.6796760947E+00    0.1249139895E-02    0.2087337737E-01    0.2423433191E-04    0.6635318998E+00
    0.3000000000E+07    0.6799121583E+00    0.7321044444E-03    0.2069113248E-01    0.1339035486E-04    0.6644907626E+00
    0.5000000000E+07    0.6799647311E+00    0.5709916352E-03    0.2060309810E-01    0.1016699363E-04    0.6648182539E+00
    0.7000000000E+07    0.6799889812E+00    0.4847409161E-03    0.2054436807E-01    0.8480728785E-05    0.6650046451E+00
    0.9000000000E+07    0.6800032706E+00    0.4289236868E-03    0.2050020357E-01    0.7406457262E-05    0.6651312254E+00
    0.1100000000E+08    0.6800128298E+00    0.3890017207E-03    0.2046478781E-01    0.6647250149E-05    0.6652254906E+00
    0.1300000000E+08    0.6800197441E+00    0.3586140928E-03    0.2043521773E-01    0.6074932743E-05    0.6652998019E+00
    0.1500000000E+08    0.6800250171E+00    0.3344767356E-03    0.2040983273E-01    0.5624021209E-05    0.6653606931E+00
    0.1700000000E+08    0.6800291954E+00    0.3146995598E-03    0.2038759309E-01    0.5257151607E-05    0.6654120040E+00
    0.1900000000E+08    0.6800326035E+00    0.2981073521E-03    0.2036780432E-01    0.4951262182E-05    0.6654561682E+00
    0.2100000000E+08    0.6800354471E+00    0.2839257669E-03    0.2034997938E-01    0.4691254745E-05    0.6654948170E+00
    0.2300000000E+08    0.6800378632E+00    0.2716209985E-03    0.2033376345E-01    0.4466780218E-05    0.6655290937E+00
    0.2500000000E+08    0.6800399471E+00    0.2608114710E-03    0.2031888999E-01    0.4270478606E-05    0.6655598279E+00
    0.2700000000E+08    0.6800417669E+00    0.2512161859E-03    0.2030515369E-01    0.4096955036E-05    0.6655876392E+00
