  Pressure (Pa) 22mC5-400 (mol/kg) 2mC6-400 (mol/kg) 3mC6-400 (mol/kg) 33mC5-400 (mol/kg) C7-400 (mol/kg)
    0.1000000000E+01    0.1587737310E-02    0.3951648128E-02    0.5242432106E-03    0.4504718583E-03    0.6805695091E-02
    0.3000000000E+01    0.4701223273E-02    0.1147213283E-01    0.1524005811E-02    0.1307982862E-02    0.1978736131E-01
    0.5000000000E+01    0.7735437874E-02    0.1852079695E-01    0.2463905614E-02    0.2111965928E-02    0.3199524818E-01
    0.7000000000E+01    0.1069420094E-01    0.2513911455E-01    0.3349405918E-02    0.2867129581E-02    0.4349987361E-01
    0.9000000000E+01    0.1358108222E-01    0.3136376107E-01    0.4185317928E-02    0.3577636828E-02    0.5436334476E-01
    0.1100000000E+02    0.1639942172E-01    0.3722729811E-01    0.4975895543E-02    0.4247183083E-02    0.6464057997E-01
    0.1300000000E+02    0.1915234808E-01    0.4275874292E-01    0.5724914062E-02    0.4879060983E-02    0.7438032356E-01
    0.1500000000E+02    0.2184279518E-01    0.4798404507E-01    0.6435735891E-02    0.5476214612E-02    0.8362599308E-01
    0.1700000000E+02    0.2447351725E-01    0.5292648726E-01    0.7111365711E-02    0.6041285103E-02    0.9241639064E-01
    0.1900000000E+02    0.2704710252E-01    0.5760702436E-01    0.7754497011E-02    0.6576649191E-02    0.1007863030E+00
    0.2100000000E+02    0.2956598570E-01    0.6204457142E-01    0.8367551533E-02    0.7084451966E-02    0.1087670102E+00
    0.2300000000E+02    0.3203245934E-01    0.6625624944E-01    0.8952712851E-02    0.7566634824E-02    0.1163867189E+00
    0.2500000000E+02    0.3444868414E-01    0.7025759615E-01    0.9511955090E-02    0.8024959417E-02    0.1236709323E+00
    0.2700000000E+02    0.3681669841E-01    0.7406274735E-01    0.1004706757E-01    0.8461028271E-02    0.1306427687E+00
    0.2900000000E+02    0.3913842676E-01    0.7768459366E-01    0.1055967606E-01    0.8876302600E-02    0.1373232348E+00
    0.3100000000E+02    0.4141568796E-01    0.8113491641E-01    0.1105126113E-01    0.9272117742E-02    0.1437314634E+00
    0.3300000000E+02    0.4365020226E-01    0.8442450599E-01    0.1152317411E-01    0.9649696608E-02    0.1498849186E+00
    0.3500000000E+02    0.4584359803E-01    0.8756326513E-01    0.1197665097E-01    0.1001016141E-01    0.1557995751E+00
    0.3700000000E+02    0.4799741789E-01    0.9056029942E-01    0.1241282444E-01    0.1035454395E-01    0.1614900748E+00
    0.3900000000E+02    0.5011312437E-01    0.9342399682E-01    0.1283273465E-01    0.1068379465E-01    0.1669698635E+00
    0.4100000000E+02    0.5219210512E-01    0.9616209781E-01    0.1323733845E-01    0.1099879048E-01    0.1722513120E+00
    0.4300000000E+02    0.5423567769E-01    0.9878175728E-01    0.1362751766E-01    0.1130034204E-01    0.1773458216E+00
    0.4500000000E+02    0.5624509399E-01    0.1012895994E+00    0.1400408629E-01    0.1158919977E-01    0.1822639183E+00
    0.4700000000E+02    0.5822154435E-01    0.1036917666E+00    0.1436779703E-01    0.1186605946E-01    0.1870153359E+00
    0.4900000000E+02    0.6016616136E-01    0.1059939625E+00    0.1471934692E-01    0.1213156723E-01    0.1916090893E+00
    0.1000000000E+02    0.1499861940E-01    0.3433877762E-01    0.4586027188E-02    0.3917315531E-02    0.5957206129E-01
    0.3000000000E+02    0.4028250601E-01    0.7943049913E-01    0.1080800921E-01    0.9076563647E-02    0.1405602504E+00
    0.5000000000E+02    0.6112687137E-01    0.1071092434E+00    0.1489076543E-01    0.1226025355E-01    0.1938494789E+00
    0.7000000000E+02    0.7890632766E-01    0.1252754600E+00    0.1781519226E-01    0.1436362414E-01    0.2321199139E+00
    0.9000000000E+02    0.9446161002E-01    0.1376962052E+00    0.2003630387E-01    0.1581335272E-01    0.2612591098E+00
    0.1100000000E+03    0.1083382209E+00    0.1464027753E+00    0.2179524229E-01    0.1683953147E-01    0.2843900889E+00
    0.1300000000E+03    0.1209070608E+00    0.1525874318E+00    0.2323235668E-01    0.1757727639E-01    0.3033321020E+00
    0.1500000000E+03    0.1324300835E+00    0.1569949367E+00    0.2443523172E-01    0.1811105836E-01    0.3192214217E+00
    0.1700000000E+03    0.1430982169E+00    0.1601133106E+00    0.2546155711E-01    0.1849629050E-01    0.3328071081E+00
    0.1900000000E+03    0.1530543629E+00    0.1622747165E+00    0.2635100458E-01    0.1877074146E-01    0.3446046948E+00
    0.2100000000E+03    0.1624079304E+00    0.1637123355E+00    0.2713183243E-01    0.1896096921E-01    0.3549816957E+00
    0.2300000000E+03    0.1712443426E+00    0.1645941200E+00    0.2782476726E-01    0.1908613935E-01    0.3642078855E+00
    0.2500000000E+03    0.1796314474E+00    0.1650436892E+00    0.2844539220E-01    0.1916038934E-01    0.3724862516E+00
    0.2700000000E+03    0.1876239526E+00    0.1651537312E+00    0.2900567410E-01    0.1919434524E-01    0.3799727961E+00
    0.2900000000E+03    0.1952665660E+00    0.1649948612E+00    0.2951497274E-01    0.1919612471E-01    0.3867896275E+00
    0.3100000000E+03    0.2025962647E+00    0.1646216320E+00    0.2998072696E-01    0.1917201778E-01    0.3930338669E+00
    0.3300000000E+03    0.2096439639E+00    0.1640767037E+00    0.3040893290E-01    0.1912695959E-01    0.3987838574E+00
    0.3500000000E+03    0.2164357653E+00    0.1633937975E+00    0.3080448472E-01    0.1906486524E-01    0.4041035908E+00
    0.3700000000E+03    0.2229939042E+00    0.1625998229E+00    0.3117142201E-01    0.1898887137E-01    0.4090459235E+00
    0.3900000000E+03    0.2293374773E+00    0.1617164358E+00    0.3151311267E-01    0.1890151311E-01    0.4136549545E+00
    0.4100000000E+03    0.2354830094E+00    0.1607611953E+00    0.3183239020E-01    0.1880485566E-01    0.4179678114E+00
    0.4300000000E+03    0.2414448994E+00    0.1597484344E+00    0.3213165820E-01    0.1870059334E-01    0.4220160105E+00
    0.4500000000E+03    0.2472357747E+00    0.1586899222E+00    0.3241297093E-01    0.1859012505E-01    0.4258265061E+00
    0.4700000000E+03    0.2528667753E+00    0.1575953734E+00    0.3267809618E-01    0.1847461247E-01    0.4294225094E+00
    0.4900000000E+03    0.2583477841E+00    0.1564728445E+00    0.3292856484E-01    0.1835502525E-01    0.4328241341E+00
    0.1000000000E+03    0.1015834252E+00    0.1424255704E+00    0.2096315050E-01    0.1636939334E-01    0.2734409287E+00
    0.3000000000E+03    0.1989684717E+00    0.1648321359E+00    0.2975288886E-01    0.1918697131E-01    0.3899780436E+00
    0.5000000000E+03    0.2610348330E+00    0.1559032294E+00    0.3304872645E-01    0.1829396304E-01    0.4344576221E+00
    0.7000000000E+03    0.3086195702E+00    0.1441836650E+00    0.3493113133E-01    0.1699931555E-01    0.4601955576E+00
    0.9000000000E+03    0.3473831766E+00    0.1331348050E+00    0.3619608253E-01    0.1573326949E-01    0.4776766314E+00
    0.1100000000E+04    0.3798582037E+00    0.1233223345E+00    0.3712400189E-01    0.1458079597E-01    0.4906183529E+00
    0.1300000000E+04    0.4075041825E+00    0.1147378499E+00    0.3784328860E-01    0.1355313141E-01    0.5007323526E+00
    0.1500000000E+04    0.4312934468E+00    0.1072452600E+00    0.3842246277E-01    0.1264221221E-01    0.5089365824E+00
    0.1700000000E+04    0.4519311074E+00    0.1006915308E+00    0.3890199561E-01    0.1183519590E-01    0.5157756835E+00
    0.1900000000E+04    0.4699549499E+00    0.9493639113E-01    0.3930758946E-01    0.1111892942E-01    0.5215969887E+00
    0.2100000000E+04    0.4857880449E+00    0.8985901639E-01    0.3965648249E-01    0.1048135945E-01    0.5266343521E+00
    0.2300000000E+04    0.4997699350E+00    0.8535772237E-01    0.3996073916E-01    0.9911899724E-02    0.5310520344E+00
    0.2500000000E+04    0.5121768940E+00    0.8134766604E-01    0.4022909687E-01    0.9401424402E-02    0.5349694028E+00
    0.2700000000E+04    0.5232360036E+00    0.7775820674E-01    0.4046806388E-01    0.8942132112E-02    0.5384756562E+00
    0.2900000000E+04    0.5331354091E+00    0.7453046788E-01    0.4068260336E-01    0.8527375442E-02    0.5416390245E+00
    0.3100000000E+04    0.5420320415E+00    0.7161524625E-01    0.4087657656E-01    0.8151493120E-02    0.5445127429E+00
    0.3300000000E+04    0.5500575648E+00    0.6897127635E-01    0.4105303949E-01    0.7809658505E-02    0.5471390612E+00
    0.3500000000E+04    0.5573230329E+00    0.6656381044E-01    0.4121444729E-01    0.7497748181E-02    0.5495520117E+00
    0.3700000000E+04    0.5639225772E+00    0.6436346453E-01    0.4136279839E-01    0.7212230303E-02    0.5517793664E+00
    0.3900000000E+04    0.5699363551E+00    0.6234528244E-01    0.4149973849E-01    0.6950070775E-02    0.5538440507E+00
    0.4100000000E+04    0.5754329250E+00    0.6048797646E-01    0.4162663687E-01    0.6708654848E-02    0.5557651850E+00
    0.4300000000E+04    0.5804711704E+00    0.5877331011E-01    0.4174464349E-01    0.6485721791E-02    0.5575588632E+00
    0.4500000000E+04    0.5851018685E+00    0.5718559508E-01    0.4185473222E-01    0.6279310480E-02    0.5592387451E+00
    0.4700000000E+04    0.5893689754E+00    0.5571127989E-01    0.4195773409E-01    0.6087714056E-02    0.5608165118E+00
    0.4900000000E+04    0.5933106826E+00    0.5433861227E-01    0.4205436320E-01    0.5909442094E-02    0.5623022218E+00
    0.1000000000E+04    0.3643001061E+00    0.1280691495E+00    0.3669214233E-01    0.1514137699E-01    0.4845814137E+00
    0.3000000000E+04    0.5377003107E+00    0.7303653948E-01    0.4078195362E-01    0.8334894575E-02    0.5431092291E+00
    0.5000000000E+04    0.5951700883E+00    0.5368714624E-01    0.4210048424E-01    0.5824888312E-02    0.5630133251E+00
    0.7000000000E+04    0.6214490134E+00    0.4410070282E-01    0.4280209487E-01    0.4589351699E-02    0.5740139217E+00
    0.9000000000E+04    0.6359502073E+00    0.3831243243E-01    0.4324980933E-01    0.3858993007E-02    0.5812615085E+00
    0.1100000000E+05    0.6449691115E+00    0.3437729137E-01    0.4356475373E-01    0.3374522148E-02    0.5865069599E+00
    0.1300000000E+05    0.6510546927E+00    0.3148894990E-01    0.4380032635E-01    0.3027400364E-02    0.5905341506E+00
    0.1500000000E+05    0.6554089680E+00    0.2925434928E-01    0.4398415804E-01    0.2764783278E-02    0.5937542633E+00
    0.1700000000E+05    0.6586646362E+00    0.2745857273E-01    0.4413214165E-01    0.2557975244E-02    0.5964067615E+00
    0.1900000000E+05    0.6611834153E+00    0.2597369081E-01    0.4425413637E-01    0.2390063698E-02    0.5986419199E+00
    0.2100000000E+05    0.6631858195E+00    0.2471843743E-01    0.4435661661E-01    0.2250427521E-02    0.6005594964E+00
    0.2300000000E+05    0.6648133556E+00    0.2363847831E-01    0.4444402751E-01    0.2132051223E-02    0.6022286879E+00
    0.2500000000E+05    0.6661607117E+00    0.2269595748E-01    0.4451953220E-01    0.2030106832E-02    0.6036992183E+00
    0.2700000000E+05    0.6672934900E+00    0.2186359274E-01    0.4458544878E-01    0.1941157088E-02    0.6050078708E+00
    0.2900000000E+05    0.6682584956E+00    0.2112115991E-01    0.4464351846E-01    0.1862684072E-02    0.6061825249E+00
    0.3100000000E+05    0.6690899700E+00    0.2045330522E-01    0.4469507684E-01    0.1792798037E-02    0.6072447528E+00
    0.3300000000E+05    0.6698135130E+00    0.1984813220E-01    0.4474116702E-01    0.1730050784E-02    0.6082115452E+00
    0.3500000000E+05    0.6704486288E+00    0.1929625915E-01    0.4478261658E-01    0.1673312187E-02    0.6090964927E+00
    0.3700000000E+05    0.6710104270E+00    0.1879017281E-01    0.4482009119E-01    0.1621686218E-02    0.6099106148E+00
    0.3900000000E+05    0.6715107867E+00    0.1832377424E-01    0.4485413287E-01    0.1574452417E-02    0.6106629542E+00
    0.4100000000E+05    0.6719591711E+00    0.1789205282E-01    0.4488518778E-01    0.1531024227E-02    0.6113610108E+00
    0.4300000000E+05    0.6723632084E+00    0.1749084771E-01    0.4491362680E-01    0.1490918749E-02    0.6120110657E+00
    0.4500000000E+05    0.6727291138E+00    0.1711667043E-01    0.4493976092E-01    0.1453734414E-02    0.6126184241E+00
    0.4700000000E+05    0.6730620001E+00    0.1676657072E-01    0.4496385304E-01    0.1419134249E-02    0.6131876028E+00
    0.4900000000E+05    0.6733661110E+00    0.1643803385E-01    0.4498612702E-01    0.1386833145E-02    0.6137224749E+00
    0.1000000000E+05    0.6409389229E+00    0.3617786956E-01    0.4341966877E-01    0.3594719551E-02    0.5840729552E+00
    0.3000000000E+05    0.6686891566E+00    0.2077872204E-01    0.4467004055E-01    0.1826766859E-02    0.6067265388E+00
    0.5000000000E+05    0.6735085083E+00    0.1628116473E-01    0.4499664325E-01    0.1371467366E-02    0.6139781087E+00
    0.7000000000E+05    0.6754650606E+00    0.1388237480E-01    0.4514632621E-01    0.1141078683E-02    0.6179037725E+00
    0.9000000000E+05    0.6765210369E+00    0.1232622543E-01    0.4522962710E-01    0.9961663962E-03    0.6204633428E+00
    0.1100000000E+06    0.6771810657E+00    0.1120953592E-01    0.4528072083E-01    0.8943556967E-03    0.6223047076E+00
    0.1300000000E+06    0.6776325050E+00    0.1035680685E-01    0.4531380565E-01    0.8178321886E-03    0.6237131569E+00
    0.1500000000E+06    0.6779607155E+00    0.9677499854E-02    0.4533586353E-01    0.7576306460E-03    0.6248366762E+00
    0.1700000000E+06    0.6782101052E+00    0.9119461332E-02    0.4535072964E-01    0.7086834062E-03    0.6257607552E+00
    0.1900000000E+06    0.6784060427E+00    0.8650213337E-02    0.4536068312E-01    0.6678818545E-03    0.6265387164E+00
    0.2100000000E+06    0.6785640684E+00    0.8248317838E-02    0.4536716064E-01    0.6331993913E-03    0.6272057894E+00
    0.2300000000E+06    0.6786942314E+00    0.7898968792E-02    0.4537111035E-01    0.6032509778E-03    0.6277863189E+00
    0.2500000000E+06    0.6788033173E+00    0.7591563124E-02    0.4537318135E-01    0.5770536808E-03    0.6282977450E+00
    0.2700000000E+06    0.6788960735E+00    0.7318278768E-02    0.4537383154E-01    0.5538880977E-03    0.6287529364E+00
    0.2900000000E+06    0.6789759207E+00    0.7073200396E-02    0.4537339210E-01    0.5332140015E-03    0.6291616266E+00
    0.3100000000E+06    0.6790453859E+00    0.6851759596E-02    0.4537210762E-01    0.5146167960E-03    0.6295313338E+00
    0.3300000000E+06    0.6791063769E+00    0.6650363899E-02    0.4537016204E-01    0.4977723084E-03    0.6298679705E+00
    0.3500000000E+06    0.6791603603E+00    0.6466143648E-02    0.4536769581E-01    0.4824229335E-03    0.6301762605E+00
    0.3700000000E+06    0.6792084828E+00    0.6296774843E-02    0.4536481762E-01    0.4683610427E-03    0.6304600296E+00
    0.3900000000E+06    0.6792516534E+00    0.6140352374E-02    0.4536161257E-01    0.4554171806E-03    0.6307224145E+00
    0.4100000000E+06    0.6792906022E+00    0.5995297533E-02    0.4535814798E-01    0.4434514978E-03    0.6309660149E+00
    0.4300000000E+06    0.6793259225E+00    0.5860289344E-02    0.4535447755E-01    0.4323474221E-03    0.6311930062E+00
    0.4500000000E+06    0.6793581010E+00    0.5734212782E-02    0.4535064451E-01    0.4220069070E-03    0.6314052251E+00
    0.4700000000E+06    0.6793875411E+00    0.5616119183E-02    0.4534668384E-01    0.4123468140E-03    0.6316042346E+00
    0.4900000000E+06    0.6794145799E+00    0.5505195581E-02    0.4534262405E-01    0.4032961222E-03    0.6317913743E+00
    0.1000000000E+06    0.6768852144E+00    0.1172680278E-01    0.4525806436E-01    0.9412903626E-03    0.6214513222E+00
    0.3000000000E+06    0.6790118197E+00    0.6959769285E-02    0.4537284280E-01    0.5236778447E-03    0.6293509515E+00
    0.5000000000E+06    0.6794272893E+00    0.5452199562E-02    0.4534056447E-01    0.3989798752E-03    0.6318808604E+00
    0.7000000000E+06    0.6796054429E+00    0.4639982139E-02    0.4529804792E-01    0.3334932836E-03    0.6332596581E+00
    0.9000000000E+06    0.6797048325E+00    0.4112344075E-02    0.4525715863E-01    0.2916623214E-03    0.6341648635E+00
    0.1100000000E+07    0.6797684105E+00    0.3733968660E-02    0.4521960706E-01    0.2620414333E-03    0.6348203221E+00
    0.1300000000E+07    0.6798126688E+00    0.3445393103E-02    0.4518535961E-01    0.2396780060E-03    0.6353247288E+00
    0.1500000000E+07    0.6798453048E+00    0.3215820589E-02    0.4515404597E-01    0.2220368090E-03    0.6357293766E+00
    0.1700000000E+07    0.6798703983E+00    0.3027483293E-02    0.4512526989E-01    0.2076689361E-03    0.6360639617E+00
    0.1900000000E+07    0.6798903149E+00    0.2869311896E-02    0.4509868041E-01    0.1956788696E-03    0.6363470482E+00
    0.2100000000E+07    0.6799065220E+00    0.2734000965E-02    0.4507398219E-01    0.1854796381E-03    0.6365909295E+00
    0.2300000000E+07    0.6799199783E+00    0.2616507445E-02    0.4505093015E-01    0.1766684891E-03    0.6368041197E+00
    0.2500000000E+07    0.6799313375E+00    0.2513222159E-02    0.4502932103E-01    0.1689587377E-03    0.6369927319E+00
    0.2700000000E+07    0.6799410603E+00    0.2421484480E-02    0.4500898554E-01    0.1621400748E-03    0.6371612864E+00
    0.2900000000E+07    0.6799494813E+00    0.2339283880E-02    0.4498978168E-01    0.1560542860E-03    0.6373132098E+00
    0.3100000000E+07    0.6799568491E+00    0.2265068820E-02    0.4497158951E-01    0.1505797761E-03    0.6374511541E+00
    0.3300000000E+07    0.6799633526E+00    0.2197620146E-02    0.4495430693E-01    0.1456213617E-03    0.6375772093E+00
    0.3500000000E+07    0.6799691379E+00    0.2135964726E-02    0.4493784642E-01    0.1411033355E-03    0.6376930484E+00
    0.3700000000E+07    0.6799743196E+00    0.2079315037E-02    0.4492213242E-01    0.1369646329E-03    0.6378000291E+00
    0.3900000000E+07    0.6799789891E+00    0.2027025955E-02    0.4490709932E-01    0.1331553861E-03    0.6378992664E+00
    0.4100000000E+07    0.6799832201E+00    0.1978563247E-02    0.4489268975E-01    0.1296344202E-03    0.6379916863E+00
    0.4300000000E+07    0.6799870728E+00    0.1933480181E-02    0.4487885333E-01    0.1263673999E-03    0.6380780651E+00
    0.4500000000E+07    0.6799905966E+00    0.1891399913E-02    0.4486554553E-01    0.1233254373E-03    0.6381590594E+00
    0.4700000000E+07    0.6799938329E+00    0.1852002011E-02    0.4485272683E-01    0.1204840307E-03    0.6382352286E+00
    0.4900000000E+07    0.6799968160E+00    0.1815012037E-02    0.4484036201E-01    0.1178222452E-03    0.6383070532E+00
    0.1000000000E+07    0.6797397579E+00    0.3909185922E-02    0.4523795279E-01    0.2757174004E-03    0.6345160385E+00
    0.3000000000E+07    0.6799532839E+00    0.2301260979E-02    0.4498056590E-01    0.1532470954E-03    0.6373837875E+00
    0.5000000000E+07    0.6799982220E+00    0.1797344791E-02    0.4483433982E-01    0.1165529832E-03    0.6383414683E+00
    0.7000000000E+07    0.6800182282E+00    0.1527027293E-02    0.4473155372E-01    0.9730853550E-04    0.6388781561E+00
    0.9000000000E+07    0.6800297014E+00    0.1351885994E-02    0.4465203329E-01    0.8503148822E-04    0.6392382749E+00
    0.1100000000E+08    0.6800372079E+00    0.1226520569E-02    0.4458707570E-01    0.7634715666E-04    0.6395038251E+00
    0.1300000000E+08    0.6800425356E+00    0.1131039190E-02    0.4453211637E-01    0.6979625484E-04    0.6397114157E+00
    0.1500000000E+08    0.6800465323E+00    0.1055161874E-02    0.4448445685E-01    0.6463235621E-04    0.6398802797E+00
    0.1700000000E+08    0.6800496533E+00    0.9929677539E-03    0.4444236658E-01    0.6042918836E-04    0.6400216592E+00
    0.1900000000E+08    0.6800521658E+00    0.9407731935E-03    0.4440466815E-01    0.5692346680E-04    0.6401426432E+00
    0.2100000000E+08    0.6800542372E+00    0.8961498708E-03    0.4437052354E-01    0.5394272691E-04    0.6402479637E+00
    0.2300000000E+08    0.6800559782E+00    0.8574231015E-03    0.4433931480E-01    0.5136869753E-04    0.6403409223E+00
    0.2500000000E+08    0.6800574647E+00    0.8233953617E-03    0.4431057296E-01    0.4911723396E-04    0.6404239058E+00
    0.2700000000E+08    0.6800587509E+00    0.7931845044E-03    0.4428393356E-01    0.4712663703E-04    0.6404986906E+00
