  Pressure (Pa) 22mC5-400 (mol/kg) 2mC6-400 (mol/kg) 3mC6-400 (mol/kg) 33mC5-400 (mol/kg) C7-400 (mol/kg)
    0.1000000000E+01    0.1587740284E-02    0.3968439075E-02    0.2107832224E-02    0.4523622081E-03    0.1710191545E-02
    0.3000000000E+01    0.4701249194E-02    0.1161471125E-01    0.6188566544E-02    0.1324028135E-02    0.5021564113E-02
    0.5000000000E+01    0.7735507660E-02    0.1889508740E-01    0.1009942564E-01    0.2154070583E-02    0.8195683354E-02
    0.7000000000E+01    0.1069433358E-01    0.2583350308E-01    0.1385151472E-01    0.2945212059E-02    0.1124151004E-01
    0.9000000000E+01    0.1358129497E-01    0.3245186859E-01    0.1745497738E-01    0.3699944619E-02    0.1416722959E-01
    0.1100000000E+02    0.1639973027E-01    0.3877027895E-01    0.2091909801E-01    0.4420553775E-02    0.1698033456E-01
    0.1300000000E+02    0.1915276668E-01    0.4480719820E-01    0.2425239138E-01    0.5109139464E-02    0.1968769686E-01
    0.1500000000E+02    0.2184333681E-01    0.5057962156E-01    0.2746268112E-01    0.5767634519E-02    0.2229563105E-01
    0.1700000000E+02    0.2447419368E-01    0.5610321865E-01    0.3055716890E-01    0.6397820964E-02    0.2480995002E-01
    0.1900000000E+02    0.2704792448E-01    0.6139246018E-01    0.3354249534E-01    0.7001344428E-02    0.2723601420E-01
    0.2100000000E+02    0.2956696294E-01    0.6646073031E-01    0.3642479394E-01    0.7579726945E-02    0.2957877496E-01
    0.2300000000E+02    0.3203360072E-01    0.7132042669E-01    0.3920973886E-01    0.8134378327E-02    0.3184281313E-01
    0.2500000000E+02    0.3444999772E-01    0.7598304948E-01    0.4190258740E-01    0.8666606303E-02    0.3403237332E-01
    0.2700000000E+02    0.3681819151E-01    0.8045928101E-01    0.4450821786E-01    0.9177625580E-02    0.3615139434E-01
    0.2900000000E+02    0.3914010603E-01    0.8475905704E-01    0.4703116327E-01    0.9668565946E-02    0.3820353649E-01
    0.3100000000E+02    0.4141755944E-01    0.8889163066E-01    0.4947564165E-01    0.1014047955E-01    0.4019220589E-01
    0.3300000000E+02    0.4365227142E-01    0.9286562975E-01    0.5184558308E-01    0.1059434744E-01    0.4212057637E-01
    0.3500000000E+02    0.4584586983E-01    0.9668910879E-01    0.5414465402E-01    0.1103108545E-01    0.4399160902E-01
    0.3700000000E+02    0.4799989681E-01    0.1003695955E+00    0.5637627925E-01    0.1145154950E-01    0.4580806992E-01
    0.3900000000E+02    0.5011581448E-01    0.1039141330E+00    0.5854366156E-01    0.1185654041E-01    0.4757254605E-01
    0.4100000000E+02    0.5219501007E-01    0.1073293181E+00    0.6064979962E-01    0.1224680826E-01    0.4928745961E-01
    0.4300000000E+02    0.5423880080E-01    0.1106213359E+00    0.6269750411E-01    0.1262305629E-01    0.5095508113E-01
    0.4500000000E+02    0.5624843821E-01    0.1137959914E+00    0.6468941234E-01    0.1298594453E-01    0.5257754119E-01
    0.4700000000E+02    0.5822511235E-01    0.1168587378E+00    0.6662800153E-01    0.1333609300E-01    0.5415684116E-01
    0.4900000000E+02    0.6016995551E-01    0.1198147028E+00    0.6851560086E-01    0.1367408473E-01    0.5569486293E-01
    0.1000000000E+02    0.1499887819E-01    0.3564737794E-01    0.1920390621E-01    0.4064379255E-02    0.1558741564E-01
    0.3000000000E+02    0.4028428067E-01    0.8684569089E-01    0.4826295876E-01    0.9906838184E-02    0.3920560172E-01
    0.5000000000E+02    0.6113077941E-01    0.1212541616E+00    0.6944096944E-01    0.1383869456E-01    0.5644895212E-01
    0.7000000000E+02    0.7891258630E-01    0.1454704330E+00    0.8574084041E-01    0.1661012720E-01    0.6974301252E-01
    0.9000000000E+02    0.9447026669E-01    0.1630755553E+00    0.9879198400E-01    0.1862830873E-01    0.8040471626E-01
    0.1100000000E+03    0.1083492502E+00    0.1761753691E+00    0.1095586578E+00    0.2013270338E-01    0.8921385608E-01
    0.1300000000E+03    0.1209204081E+00    0.1860853796E+00    0.1186500086E+00    0.2127293543E-01    0.9666332522E-01
    0.1500000000E+03    0.1324456846E+00    0.1936672356E+00    0.1264710024E+00    0.2214703895E-01    0.1030809830E+00
    0.1700000000E+03    0.1431160072E+00    0.1995072749E+00    0.1333021391E+00    0.2282175189E-01    0.1086940427E+00
    0.1900000000E+03    0.1530742819E+00    0.2040172396E+00    0.1393443684E+00    0.2334396290E-01    0.1136653648E+00
    0.2100000000E+03    0.1624299229E+00    0.2074939920E+00    0.1447457673E+00    0.2374749832E-01    0.1181150206E+00
    0.2300000000E+03    0.1712683594E+00    0.2101564217E+00    0.1496180957E+00    0.2405731681E-01    0.1221336787E+00
    0.2500000000E+03    0.1796574451E+00    0.2121690712E+00    0.1540474569E+00    0.2429219475E-01    0.1257912276E+00
    0.2700000000E+03    0.1876518929E+00    0.2136577225E+00    0.1581013839E+00    0.2446649797E-01    0.1291425092E+00
    0.2900000000E+03    0.1952964155E+00    0.2147199529E+00    0.1618336808E+00    0.2459138178E-01    0.1322312380E+00
    0.3100000000E+03    0.2026279939E+00    0.2154324494E+00    0.1652878118E+00    0.2467562263E-01    0.1350927440E+00
    0.3300000000E+03    0.2096775470E+00    0.2158561811E+00    0.1684993235E+00    0.2472620633E-01    0.1377559348E+00
    0.3500000000E+03    0.2164711798E+00    0.2160401235E+00    0.1714976094E+00    0.2474875166E-01    0.1402447254E+00
    0.3700000000E+03    0.2230311301E+00    0.2160239840E+00    0.1743072184E+00    0.2474782044E-01    0.1425790980E+00
    0.3900000000E+03    0.2293764968E+00    0.2158402256E+00    0.1769488376E+00    0.2472714783E-01    0.1447758992E+00
    0.4100000000E+03    0.2355238069E+00    0.2155155895E+00    0.1794400438E+00    0.2468981571E-01    0.1468494488E+00
    0.4300000000E+03    0.2414874607E+00    0.2150722555E+00    0.1817958822E+00    0.2463838468E-01    0.1488120098E+00
    0.4500000000E+03    0.2472800872E+00    0.2145287344E+00    0.1840293199E+00    0.2457499583E-01    0.1506741556E+00
    0.4700000000E+03    0.2529128273E+00    0.2139005628E+00    0.1861516036E+00    0.2450144986E-01    0.1524450607E+00
    0.4900000000E+03    0.2583955651E+00    0.2132008487E+00    0.1881725438E+00    0.2441926925E-01    0.1541327319E+00
    0.1000000000E+03    0.1015932739E+00    0.1700928876E+00    0.1044167340E+00    0.1943384117E-01    0.8500514233E-01
    0.3000000000E+03    0.1989992645E+00    0.2151157883E+00    0.1635931331E+00    0.2463810962E-01    0.1336884555E+00
    0.5000000000E+03    0.2610834748E+00    0.2128277034E+00    0.1891477409E+00    0.2437535301E-01    0.1549475841E+00
    0.7000000000E+03    0.3086849934E+00    0.2035685384E+00    0.2049546122E+00    0.2327298336E-01    0.1682013475E+00
    0.9000000000E+03    0.3474646078E+00    0.1933886022E+00    0.2162328389E+00    0.2204119321E-01    0.1777161608E+00
    0.1100000000E+04    0.3799547445E+00    0.1837155112E+00    0.2249207118E+00    0.2085509747E-01    0.1850828770E+00
    0.1300000000E+04    0.4076147701E+00    0.1749004174E+00    0.2319404019E+00    0.1976221560E-01    0.1910609877E+00
    0.1500000000E+04    0.4314169092E+00    0.1669793688E+00    0.2378001364E+00    0.1877117856E-01    0.1960703445E+00
    0.1700000000E+04    0.4520662306E+00    0.1598896258E+00    0.2428088290E+00    0.1787751011E-01    0.2003668451E+00
    0.1900000000E+04    0.4701005326E+00    0.1535413719E+00    0.2471678658E+00    0.1707248415E-01    0.2041177288E+00
    0.2100000000E+04    0.4859429363E+00    0.1478432492E+00    0.2510156220E+00    0.1634646310E-01    0.2074381701E+00
    0.2300000000E+04    0.4999330585E+00    0.1427113053E+00    0.2544511509E+00    0.1569019064E-01    0.2104107873E+00
    0.2500000000E+04    0.5123472593E+00    0.1380715595E+00    0.2575477209E+00    0.1509526000E-01    0.2130968109E+00
    0.2700000000E+04    0.5234127108E+00    0.1338600655E+00    0.2603610023E+00    0.1455423503E-01    0.2155428486E+00
    0.2900000000E+04    0.5333176478E+00    0.1300220410E+00    0.2629342515E+00    0.1406062474E-01    0.2177851764E+00
    0.3100000000E+04    0.5422190863E+00    0.1265107198E+00    0.2653017225E+00    0.1360879994E-01    0.2198525661E+00
    0.3300000000E+04    0.5502487698E+00    0.1232862011E+00    0.2674909847E+00    0.1319389235E-01    0.2217682099E+00
    0.3500000000E+04    0.5575178248E+00    0.1203143999E+00    0.2695245431E+00    0.1281169405E-01    0.2235510661E+00
    0.3700000000E+04    0.5641204482E+00    0.1175661346E+00    0.2714209960E+00    0.1245856492E-01    0.2252168234E+00
    0.3900000000E+04    0.5701368561E+00    0.1150163488E+00    0.2731958824E+00    0.1213135072E-01    0.2267786066E+00
    0.4100000000E+04    0.5756356592E+00    0.1126434587E+00    0.2748623113E+00    0.1182731212E-01    0.2282475016E+00
    0.4300000000E+04    0.5806757874E+00    0.1104288068E+00    0.2764314383E+00    0.1154406404E-01    0.2296329536E+00
    0.4500000000E+04    0.5853080593E+00    0.1083562079E+00    0.2779128314E+00    0.1127952398E-01    0.2309430727E+00
    0.4700000000E+04    0.5895764669E+00    0.1064115706E+00    0.2793147550E+00    0.1103186839E-01    0.2321848718E+00
    0.4900000000E+04    0.5935192338E+00    0.1045825831E+00    0.2806443938E+00    0.1079949575E-01    0.2333644540E+00
    0.1000000000E+04    0.3643892155E+00    0.1884549393E+00    0.2208292274E+00    0.2143802980E-01    0.1816093275E+00
    0.3000000000E+04    0.5378850380E+00    0.1282281843E+00    0.2641418512E+00    0.1382981005E-01    0.2188391762E+00
    0.5000000000E+04    0.5953790880E+00    0.1037080313E+00    0.2812841009E+00    0.1068859297E-01    0.2339326096E+00
    0.7000000000E+04    0.6216595845E+00    0.9026478304E-01    0.2914639376E+00    0.9006620714E-02    0.2430351203E+00
    0.9000000000E+04    0.6361557762E+00    0.8148720123E-01    0.2984780604E+00    0.7940299069E-02    0.2493839787E+00
    0.1100000000E+05    0.6451679320E+00    0.7514495797E-01    0.3037157635E+00    0.7190711294E-02    0.2541743350E+00
    0.1300000000E+05    0.6512465801E+00    0.7026023818E-01    0.3078316929E+00    0.6627044493E-02    0.2579733169E+00
    0.1500000000E+05    0.6555942560E+00    0.6633182224E-01    0.3111827825E+00    0.6182937048E-02    0.2610919951E+00
    0.1700000000E+05    0.6588438118E+00    0.6307301905E-01    0.3139833787E+00    0.5820956730E-02    0.2637181648E+00
    0.1900000000E+05    0.6613569849E+00    0.6030616167E-01    0.3163714195E+00    0.5518255072E-02    0.2659732575E+00
    0.2100000000E+05    0.6633542602E+00    0.5791425744E-01    0.3184404270E+00    0.5260013342E-02    0.2679399664E+00
    0.2300000000E+05    0.6649770998E+00    0.5581653274E-01    0.3202564539E+00    0.5036149379E-02    0.2696769353E+00
    0.2500000000E+05    0.6663201453E+00    0.5395506941E-01    0.3218677132E+00    0.4839533474E-02    0.2712271331E+00
    0.2700000000E+05    0.6674489550E+00    0.5228703527E-01    0.3233103635E+00    0.4664961068E-02    0.2726229018E+00
    0.2900000000E+05    0.6684102948E+00    0.5077993188E-01    0.3246121463E+00    0.4508530768E-02    0.2738891401E+00
    0.3100000000E+05    0.6692383720E+00    0.4940856260E-01    0.3257947616E+00    0.4367251569E-02    0.2750453874E+00
    0.3300000000E+05    0.6699587565E+00    0.4815302801E-01    0.3268754687E+00    0.4238785814E-02    0.2761072332E+00
    0.3500000000E+05    0.6705909267E+00    0.4699735973E-01    0.3278681958E+00    0.4121275740E-02    0.2770872958E+00
    0.3700000000E+05    0.6711499698E+00    0.4592856443E-01    0.3287843273E+00    0.4013223268E-02    0.2779959186E+00
    0.3900000000E+05    0.6716477456E+00    0.4493593946E-01    0.3296332745E+00    0.3913404743E-02    0.2788416760E+00
    0.4100000000E+05    0.6720937005E+00    0.4401057288E-01    0.3304228961E+00    0.3820809194E-02    0.2796317471E+00
    0.4300000000E+05    0.6724954479E+00    0.4314497167E-01    0.3311598146E+00    0.3734592815E-02    0.2803721972E+00
    0.4500000000E+05    0.6728591902E+00    0.4233278084E-01    0.3318496560E+00    0.3654044845E-02    0.2810681923E+00
    0.4700000000E+05    0.6731900289E+00    0.4156856805E-01    0.3324972360E+00    0.3578561615E-02    0.2817241648E+00
    0.4900000000E+05    0.6734921978E+00    0.4084765652E-01    0.3331067044E+00    0.3507626550E-02    0.2823439434E+00
    0.1000000000E+05    0.6411412001E+00    0.7808895782E-01    0.3012681743E+00    0.7536277161E-02    0.2519300481E+00
    0.3000000000E+05    0.6688392256E+00    0.5007862990E-01    0.3252171820E+00    0.4436156347E-02    0.2744799588E+00
    0.5000000000E+05    0.6736336609E+00    0.4050215091E-01    0.3333982902E+00    0.3473723053E-02    0.2826413170E+00
    0.7000000000E+05    0.6755753868E+00    0.3511542115E-01    0.3378952135E+00    0.2952849464E-02    0.2873071473E+00
    0.9000000000E+05    0.6766212255E+00    0.3151752403E-01    0.3408368043E+00    0.2612941894E-02    0.2904580423E+00
    0.1100000000E+06    0.6772737387E+00    0.2888576820E-01    0.3429494947E+00    0.2368358599E-02    0.2927841749E+00
    0.1300000000E+06    0.6777193050E+00    0.2684807507E-01    0.3445588594E+00    0.2181359999E-02    0.2946001791E+00
    0.1500000000E+06    0.6780427541E+00    0.2520742602E-01    0.3458356572E+00    0.2032329359E-02    0.2960735242E+00
    0.1700000000E+06    0.6782881764E+00    0.2384812294E-01    0.3468792547E+00    0.1909909707E-02    0.2973029557E+00
    0.1900000000E+06    0.6784807383E+00    0.2269702608E-01    0.3477519330E+00    0.1807003652E-02    0.2983511146E+00
    0.2100000000E+06    0.6786358435E+00    0.2170526718E-01    0.3484949752E+00    0.1718914365E-02    0.2992599876E+00
    0.2300000000E+06    0.6787634451E+00    0.2083875296E-01    0.3491369688E+00    0.1642391885E-02    0.3000589539E+00
    0.2500000000E+06    0.6788702595E+00    0.2007285780E-01    0.3496984186E+00    0.1575105530E-02    0.3007692943E+00
    0.2700000000E+06    0.6789609820E+00    0.1938927985E-01    0.3501944639E+00    0.1515334099E-02    0.3014068676E+00
    0.2900000000E+06    0.6790389935E+00    0.1877408852E-01    0.3506365562E+00    0.1461774927E-02    0.3019837770E+00
    0.3100000000E+06    0.6791067904E+00    0.1821646324E-01    0.3510335381E+00    0.1413421380E-02    0.3025094475E+00
    0.3300000000E+06    0.6791662557E+00    0.1770785121E-01    0.3513923593E+00    0.1369481534E-02    0.3029913476E+00
    0.3500000000E+06    0.6792188365E+00    0.1724138875E-01    0.3517185672E+00    0.1329322619E-02    0.3034354853E+00
    0.3700000000E+06    0.6792656634E+00    0.1681149391E-01    0.3520166496E+00    0.1292432085E-02    0.3038467585E+00
    0.3900000000E+06    0.6793076321E+00    0.1641357324E-01    0.3522902814E+00    0.1258389726E-02    0.3042292072E+00
    0.4100000000E+06    0.6793454617E+00    0.1604380684E-01    0.3525425039E+00    0.1226847317E-02    0.3045861987E+00
    0.4300000000E+06    0.6793797361E+00    0.1569898803E-01    0.3527758582E+00    0.1197513489E-02    0.3049205663E+00
    0.4500000000E+06    0.6794109343E+00    0.1537640187E-01    0.3529924863E+00    0.1170142319E-02    0.3052347139E+00
    0.4700000000E+06    0.6794394529E+00    0.1507373201E-01    0.3531942076E+00    0.1144524598E-02    0.3055306970E+00
    0.4900000000E+06    0.6794656232E+00    0.1478898822E-01    0.3533825786E+00    0.1120481069E-02    0.3058102857E+00
    0.1000000000E+06    0.6769813934E+00    0.3011001261E-01    0.3419712011E+00    0.2481706762E-02    0.2916996079E+00
    0.3000000000E+06    0.6790740391E+00    0.1848866003E-01    0.3508402138E+00    0.1437001228E-02    0.3022525112E+00
    0.5000000000E+06    0.6794779166E+00    0.1465279157E-01    0.3534721841E+00    0.1109000471E-02    0.3059444195E+00
    0.7000000000E+06    0.6796496068E+00    0.1255279266E-01    0.3548086526E+00    0.9336678307E-03    0.3080501574E+00
    0.9000000000E+06    0.6797446993E+00    0.1117559539E-01    0.3556306787E+00    0.8205196354E-03    0.3094777013E+00
    0.1100000000E+07    0.6798051412E+00    0.1018150454E-01    0.3561904930E+00    0.7398381255E-03    0.3105377420E+00
    0.1300000000E+07    0.6798469731E+00    0.9419603684E-02    0.3565967806E+00    0.6786077880E-03    0.3113707006E+00
    0.1500000000E+07    0.6798776554E+00    0.8811119508E-02    0.3569047773E+00    0.6301093966E-03    0.3120509946E+00
    0.1700000000E+07    0.6799011292E+00    0.8310332682E-02    0.3571457760E+00    0.5904781475E-03    0.3126224137E+00
    0.1900000000E+07    0.6799196729E+00    0.7888623281E-02    0.3573389321E+00    0.5573131110E-03    0.3131127186E+00
    0.2100000000E+07    0.6799346957E+00    0.7527027719E-02    0.3574966745E+00    0.5290339508E-03    0.3135405211E+00
    0.2300000000E+07    0.6799471160E+00    0.7212410842E-02    0.3576274419E+00    0.5045524518E-03    0.3139188548E+00
    0.2500000000E+07    0.6799575580E+00    0.6935344661E-02    0.3577371769E+00    0.4830916308E-03    0.3142571724E+00
    0.2700000000E+07    0.6799664611E+00    0.6688861166E-02    0.3578301919E+00    0.4640799737E-03    0.3145625287E+00
    0.2900000000E+07    0.6799741432E+00    0.6467682894E-02    0.3579096954E+00    0.4470865115E-03    0.3148403172E+00
    0.3100000000E+07    0.6799808402E+00    0.6267728852E-02    0.3579781262E+00    0.4317793217E-03    0.3150947457E+00
    0.3300000000E+07    0.6799867310E+00    0.6085786375E-02    0.3580373722E+00    0.4178980803E-03    0.3153291548E+00
    0.3500000000E+07    0.6799919533E+00    0.5919286778E-02    0.3580889184E+00    0.4052353697E-03    0.3155462376E+00
    0.3700000000E+07    0.6799966155E+00    0.5766148095E-02    0.3581339491E+00    0.3936236217E-03    0.3157481941E+00
    0.3900000000E+07    0.6800008033E+00    0.5624662385E-02    0.3581734207E+00    0.3829257933E-03    0.3159368427E+00
    0.4100000000E+07    0.6800045861E+00    0.5493413411E-02    0.3582081142E+00    0.3730285764E-03    0.3161137022E+00
    0.4300000000E+07    0.6800080201E+00    0.5371215455E-02    0.3582386734E+00    0.3638373658E-03    0.3162800532E+00
    0.4500000000E+07    0.6800111517E+00    0.5257067135E-02    0.3582656340E+00    0.3552724720E-03    0.3164369849E+00
    0.4700000000E+07    0.6800140193E+00    0.5150116065E-02    0.3582894452E+00    0.3472662306E-03    0.3165854302E+00
    0.4900000000E+07    0.6800166553E+00    0.5049631463E-02    0.3583104865E+00    0.3397607679E-03    0.3167261945E+00
    0.1000000000E+07    0.6797779469E+00    0.1064252969E-01    0.3559347497E+00    0.7771474722E-03    0.3100426653E+00
    0.3000000000E+07    0.6799776025E+00    0.6365270960E-02    0.3579451660E+00    0.4392398284E-03    0.3149702253E+00
    0.5000000000E+07    0.6800178950E+00    0.5001613589E-02    0.3583200712E+00    0.3361799821E-03    0.3167939183E+00
    0.7000000000E+07    0.6800353205E+00    0.4264914647E-02    0.3584240719E+00    0.2817383201E-03    0.3178750138E+00
    0.9000000000E+07    0.6800450800E+00    0.3785503930E-02    0.3584394064E+00    0.2468520114E-03    0.3186299161E+00
    0.1100000000E+08    0.6800513363E+00    0.3441266611E-02    0.3584178317E+00    0.2220960889E-03    0.3192041051E+00
    0.1300000000E+08    0.6800556968E+00    0.3178452467E-02    0.3583790939E+00    0.2033759593E-03    0.3196645093E+00
    0.1500000000E+08    0.6800589144E+00    0.2969189980E-02    0.3583320616E+00    0.1885900897E-03    0.3200471524E+00
    0.1700000000E+08    0.6800613894E+00    0.2797383768E-02    0.3582811445E+00    0.1765351234E-03    0.3203735260E+00
    0.1900000000E+08    0.6800633540E+00    0.2652998490E-02    0.3582286855E+00    0.1664661914E-03    0.3206574259E+00
    0.2100000000E+08    0.6800649527E+00    0.2529406580E-02    0.3581759820E+00    0.1578944693E-03    0.3209082063E+00
    0.2300000000E+08    0.6800662798E+00    0.2422030163E-02    0.3581237685E+00    0.1504842040E-03    0.3211324868E+00
    0.2500000000E+08    0.6800673999E+00    0.2327591203E-02    0.3580724616E+00    0.1439961904E-03    0.3213351147E+00
    0.2700000000E+08    0.6800683584E+00    0.2243671999E-02    0.3580222918E+00    0.1382548147E-03    0.3215197405E+00
