  Pressure (Pa) 22mC5-400 (mol/kg) 2mC6-400 (mol/kg) 3mC6-400 (mol/kg) 33mC5-400 (mol/kg) C7-400 (mol/kg)
    0.1000000000E+01    0.1591706622E-02    0.1567347397E-02    0.5181035214E-03    0.2552845954E-03    0.1681600263E-01
    0.3000000000E+01    0.4735953146E-02    0.4480367023E-02    0.1473214075E-02    0.7301007634E-03    0.4782827517E-01
    0.5000000000E+01    0.7829264828E-02    0.7134362030E-02    0.2333722071E-02    0.1163164976E-02    0.7578385618E-01
    0.7000000000E+01    0.1087313231E-01    0.9565733510E-02    0.3113145433E-02    0.1560369172E-02    0.1011188331E+00
    0.9000000000E+01    0.1386898696E-01    0.1180414398E-01    0.3822537570E-02    0.1926510810E-02    0.1241898505E+00
    0.1100000000E+02    0.1681820381E-01    0.1387401113E-01    0.4471024906E-02    0.2265535955E-02    0.1452914289E+00
    0.1300000000E+02    0.1972210426E-01    0.1579562223E-01    0.5066209584E-02    0.2580720576E-02    0.1646689412E+00
    0.1500000000E+02    0.2258195873E-01    0.1758597686E-01    0.5614475212E-02    0.2874807573E-02    0.1825284655E+00
    0.1700000000E+02    0.2539898907E-01    0.1925943182E-01    0.6121221841E-02    0.3150111617E-02    0.1990443586E+00
    0.1900000000E+02    0.2817437086E-01    0.2082820033E-01    0.6591048569E-02    0.3408600249E-02    0.2143651421E+00
    0.2100000000E+02    0.3090923561E-01    0.2230274233E-01    0.7027896906E-02    0.3651957269E-02    0.2286181233E+00
    0.2300000000E+02    0.3360467279E-01    0.2369207257E-01    0.7435164401E-02    0.3881632748E-02    0.2419130592E+00
    0.2500000000E+02    0.3626173178E-01    0.2500400600E-01    0.7815795475E-02    0.4098882843E-02    0.2543450852E+00
    0.2700000000E+02    0.3888142370E-01    0.2624535474E-01    0.8172354646E-02    0.4304801736E-02    0.2659970759E+00
    0.2900000000E+02    0.4146472315E-01    0.2742208744E-01    0.8507085980E-02    0.4500347467E-02    0.2769415631E+00
    0.3100000000E+02    0.4401256985E-01    0.2853945909E-01    0.8821961710E-02    0.4686362965E-02    0.2872423032E+00
    0.3300000000E+02    0.4652587018E-01    0.2960211756E-01    0.9118722267E-02    0.4863593295E-02    0.2969555691E+00
    0.3500000000E+02    0.4900549867E-01    0.3061419144E-01    0.9398909424E-02    0.5032699877E-02    0.3061312189E+00
    0.3700000000E+02    0.5145229939E-01    0.3157936303E-01    0.9663893912E-02    0.5194272291E-02    0.3148135874E+00
    0.3900000000E+02    0.5386708724E-01    0.3250092924E-01    0.9914898548E-02    0.5348838122E-02    0.3230422320E+00
    0.4100000000E+02    0.5625064927E-01    0.3338185274E-01    0.1015301771E-01    0.5496871220E-02    0.3308525612E+00
    0.4300000000E+02    0.5860374580E-01    0.3422480502E-01    0.1037923379E-01    0.5638798660E-02    0.3382763662E+00
    0.4500000000E+02    0.6092711159E-01    0.3503220299E-01    0.1059443124E-01    0.5775006644E-02    0.3453422727E+00
    0.4700000000E+02    0.6322145688E-01    0.3580624003E-01    0.1079940845E-01    0.5905845509E-02    0.3520761265E+00
    0.4900000000E+02    0.6548746846E-01    0.3654891260E-01    0.1099488803E-01    0.6031634018E-02    0.3585013239E+00
    0.1000000000E+02    0.1534934130E-01    0.1285879170E-01    0.4153887462E-02    0.2099194279E-02    0.1349704602E+00
    0.3000000000E+02    0.4274302068E-01    0.2798788979E-01    0.8666892004E-02    0.4594497814E-02    0.2821687226E+00
    0.5000000000E+02    0.6661005754E-01    0.3690906294E-01    0.1108927351E-01    0.6092726284E-02    0.3616048888E+00
    0.7000000000E+02    0.8772498315E-01    0.4283428038E-01    0.1260920204E-01    0.7108267379E-02    0.4117103587E+00
    0.9000000000E+02    0.1066434502E+00    0.4699319626E-01    0.1365588848E-01    0.7837262894E-02    0.4463935391E+00
    0.1100000000E+03    0.1237748247E+00    0.4999014187E-01    0.1442272007E-01    0.8376077142E-02    0.4719323680E+00
    0.1300000000E+03    0.1394276745E+00    0.5217068251E-01    0.1500990754E-01    0.8779944797E-02    0.4915857961E+00
    0.1500000000E+03    0.1538392622E+00    0.5375265244E-01    0.1547468275E-01    0.9083829221E-02    0.5072183557E+00
    0.1700000000E+03    0.1671952386E+00    0.5488271412E-01    0.1585216561E-01    0.9311393594E-02    0.5199762193E+00
    0.1900000000E+03    0.1796431369E+00    0.5566431201E-01    0.1616513305E-01    0.9479426280E-02    0.5306040340E+00
    0.2100000000E+03    0.1913018312E+00    0.5617294883E-01    0.1642902094E-01    0.9600258046E-02    0.5396073234E+00
    0.2300000000E+03    0.2022683016E+00    0.5646519281E-01    0.1665467148E-01    0.9683188337E-02    0.5473417818E+00
    0.2500000000E+03    0.2126225611E+00    0.5658430873E-01    0.1684993009E-01    0.9735378342E-02    0.5540652322E+00
    0.2700000000E+03    0.2224313027E+00    0.5656394319E-01    0.1702061800E-01    0.9762436757E-02    0.5599693031E+00
    0.2900000000E+03    0.2317506384E+00    0.5643062623E-01    0.1717114821E-01    0.9768818459E-02    0.5651995114E+00
    0.3100000000E+03    0.2406281852E+00    0.5620552058E-01    0.1730492885E-01    0.9758104095E-02    0.5698684287E+00
    0.3300000000E+03    0.2491046717E+00    0.5590567517E-01    0.1742463509E-01    0.9733201072E-02    0.5740645638E+00
    0.3500000000E+03    0.2572151905E+00    0.5554494206E-01    0.1753239696E-01    0.9696491060E-02    0.5778585077E+00
    0.3700000000E+03    0.2649901841E+00    0.5513465917E-01    0.1762993218E-01    0.9649940187E-02    0.5813072797E+00
    0.3900000000E+03    0.2724562285E+00    0.5468416623E-01    0.1771864172E-01    0.9595182621E-02    0.5844574622E+00
    0.4100000000E+03    0.2796366616E+00    0.5420120013E-01    0.1779967998E-01    0.9533584827E-02    0.5873475013E+00
    0.4300000000E+03    0.2865520909E+00    0.5369220120E-01    0.1787400697E-01    0.9466295544E-02    0.5900094216E+00
    0.4500000000E+03    0.2932208074E+00    0.5316255323E-01    0.1794242780E-01    0.9394285088E-02    0.5924701235E+00
    0.4700000000E+03    0.2996591248E+00    0.5261677315E-01    0.1800562284E-01    0.9318376530E-02    0.5947523762E+00
    0.4900000000E+03    0.3058816599E+00    0.5205866237E-01    0.1806417111E-01    0.9239270669E-02    0.5968755879E+00
    0.1000000000E+03    0.1154112811E+00    0.4861133891E-01    0.1406664478E-01    0.8126358987E-02    0.4600576216E+00
    0.3000000000E+03    0.2362419446E+00    0.5632839711E-01    0.1723995038E-01    0.9765402736E-02    0.5675981183E+00
    0.5000000000E+03    0.3089161710E+00    0.5177600568E-01    0.1809186050E-01    0.9198709356E-02    0.5978828503E+00
    0.7000000000E+03    0.3608792899E+00    0.4603092292E-01    0.1849148534E-01    0.8326070018E-02    0.6127019672E+00
    0.9000000000E+03    0.4007344175E+00    0.4075548952E-01    0.1872337902E-01    0.7471998353E-02    0.6216491643E+00
    0.1100000000E+04    0.4324673686E+00    0.3621762980E-01    0.1887435800E-01    0.6708051555E-02    0.6277009192E+00
    0.1300000000E+04    0.4583462141E+00    0.3238182155E-01    0.1898005278E-01    0.6043475133E-02    0.6320980543E+00
    0.1500000000E+04    0.4798219670E+00    0.2914779599E-01    0.1905783663E-01    0.5470237591E-02    0.6354546916E+00
    0.1700000000E+04    0.4978908260E+00    0.2641272308E-01    0.1911720641E-01    0.4976217804E-02    0.6381114034E+00
    0.1900000000E+04    0.5132684967E+00    0.2408710354E-01    0.1916379638E-01    0.4549399660E-02    0.6402730825E+00
    0.2100000000E+04    0.5264855355E+00    0.2209713759E-01    0.1920116208E-01    0.4179137996E-02    0.6420707925E+00
    0.2300000000E+04    0.5379444646E+00    0.2038318236E-01    0.1923165826E-01    0.3856405050E-02    0.6435924881E+00
    0.2500000000E+04    0.5479562710E+00    0.1889734255E-01    0.1925690623E-01    0.3573686037E-02    0.6448995135E+00
    0.2700000000E+04    0.5567648420E+00    0.1760115652E-01    0.1927805854E-01    0.3324771771E-02    0.6460360312E+00
    0.2900000000E+04    0.5645638971E+00    0.1646363970E-01    0.1929595675E-01    0.3104540859E-02    0.6470346886E+00
    0.3100000000E+04    0.5715090346E+00    0.1545971079E-01    0.1931122948E-01    0.2908763731E-02    0.6479201708E+00
    0.3300000000E+04    0.5777264832E+00    0.1456895254E-01    0.1932435556E-01    0.2733936966E-02    0.6487115076E+00
    0.3500000000E+04    0.5833195709E+00    0.1377464490E-01    0.1933570599E-01    0.2577147256E-02    0.6494236191E+00
    0.3700000000E+04    0.5883735777E+00    0.1306301199E-01    0.1934557255E-01    0.2435961296E-02    0.6500683774E+00
    0.3900000000E+04    0.5929594212E+00    0.1242263509E-01    0.1935418779E-01    0.2308337200E-02    0.6506553542E+00
    0.4100000000E+04    0.5971364889E+00    0.1184399348E-01    0.1936173918E-01    0.2192553399E-02    0.6511923570E+00
    0.4300000000E+04    0.6009548367E+00    0.1131910353E-01    0.1936837956E-01    0.2087151518E-02    0.6516858214E+00
    0.4500000000E+04    0.6044569109E+00    0.1084123383E-01    0.1937423462E-01    0.1990890394E-02    0.6521411028E+00
    0.4700000000E+04    0.6076789089E+00    0.1040467881E-01    0.1937940870E-01    0.1902708938E-02    0.6525626959E+00
    0.4900000000E+04    0.6106518636E+00    0.1000457812E-01    0.1938398905E-01    0.1821696026E-02    0.6529544027E+00
    0.1000000000E+04    0.4174488256E+00    0.3839371904E-01    0.1880612566E-01    0.7077506268E-02    0.6249378742E+00
    0.3000000000E+04    0.5681347130E+00    0.1594634964E-01    0.1930388843E-01    0.3003829824E-02    0.6474902757E+00
    0.5000000000E+04    0.6120534529E+00    0.9816874077E-02    0.1938608001E-01    0.1783627929E-02    0.6531400799E+00
    0.7000000000E+04    0.6318815492E+00    0.7228141083E-02    0.1940966858E-01    0.1255594417E-02    0.6558666505E+00
    0.9000000000E+04    0.6429503810E+00    0.5837910281E-02    0.1941544996E-01    0.9717711438E-03    0.6575180168E+00
    0.1100000000E+05    0.6499509910E+00    0.4975735414E-02    0.1941415187E-01    0.7974784499E-03    0.6586444009E+00
    0.1300000000E+05    0.6547556742E+00    0.4388166598E-02    0.1940965908E-01    0.6804804509E-03    0.6594712953E+00
    0.1500000000E+05    0.6582483113E+00    0.3960494655E-02    0.1940364872E-01    0.5968081496E-03    0.6601094613E+00
    0.1700000000E+05    0.6608974908E+00    0.3633855003E-02    0.1939692853E-01    0.5340801397E-03    0.6606201498E+00
    0.1900000000E+05    0.6629736829E+00    0.3375111064E-02    0.1938991620E-01    0.4853133855E-03    0.6610402043E+00
    0.2100000000E+05    0.6646434929E+00    0.3164237068E-02    0.1938283768E-01    0.4462934665E-03    0.6613932279E+00
    0.2300000000E+05    0.6660149538E+00    0.2988432144E-02    0.1937581816E-01    0.4143362567E-03    0.6616951008E+00
    0.2500000000E+05    0.6671610922E+00    0.2839133479E-02    0.1936892717E-01    0.3876557695E-03    0.6619569349E+00
    0.2700000000E+05    0.6681329955E+00    0.2710394448E-02    0.1936220237E-01    0.3650197097E-03    0.6621867600E+00
    0.2900000000E+05    0.6689674493E+00    0.2597953474E-02    0.1935566265E-01    0.3455514268E-03    0.6623905367E+00
    0.3100000000E+05    0.6696915994E+00    0.2498673939E-02    0.1934931572E-01    0.3286107898E-03    0.6625727910E+00
    0.3300000000E+05    0.6703259070E+00    0.2410193656E-02    0.1934316256E-01    0.3137197274E-03    0.6627370279E+00
    0.3500000000E+05    0.6708860812E+00    0.2330697907E-02    0.1933720007E-01    0.3005141218E-03    0.6628860080E+00
    0.3700000000E+05    0.6713843800E+00    0.2258768063E-02    0.1933142284E-01    0.2887118188E-03    0.6630219379E+00
    0.3900000000E+05    0.6718305060E+00    0.2193277966E-02    0.1932582409E-01    0.2780908092E-03    0.6631466051E+00
    0.4100000000E+05    0.6722322385E+00    0.2133321356E-02    0.1932039639E-01    0.2684740113E-03    0.6632614742E+00
    0.4300000000E+05    0.6725958862E+00    0.2078159991E-02    0.1931513206E-01    0.2597184413E-03    0.6633677581E+00
    0.4500000000E+05    0.6729266186E+00    0.2027185882E-02    0.1931002345E-01    0.2517073678E-03    0.6634664707E+00
    0.4700000000E+05    0.6732287115E+00    0.1979893339E-02    0.1930506306E-01    0.2443445352E-03    0.6635584669E+00
    0.4900000000E+05    0.6735057320E+00    0.1935857975E-02    0.1930024367E-01    0.2375498471E-03    0.6636444729E+00
    0.1000000000E+05    0.6468077827E+00    0.5361563923E-02    0.1941536440E-01    0.8751906115E-03    0.6581287738E+00
    0.3000000000E+05    0.6693419033E+00    0.2546831197E-02    0.1935246490E-01    0.3367981689E-03    0.6624841149E+00
    0.5000000000E+05    0.6736357962E+00    0.1914947331E-02    0.1929788468E-01    0.2343441245E-03    0.6636854274E+00
    0.7000000000E+05    0.6754479866E+00    0.1603809244E-02    0.1925662374E-01    0.1882650588E-03    0.6643025992E+00
    0.9000000000E+05    0.6764486013E+00    0.1409677410E-02    0.1922370236E-01    0.1610801134E-03    0.6646939711E+00
    0.1100000000E+06    0.6770838656E+00    0.1273556010E-02    0.1919634609E-01    0.1427360888E-03    0.6649707824E+00
    0.1300000000E+06    0.6775234665E+00    0.1171198688E-02    0.1917294734E-01    0.1293257455E-03    0.6651801692E+00
    0.1500000000E+06    0.6778460369E+00    0.1090551824E-02    0.1915250310E-01    0.1189875137E-03    0.6653459365E+00
    0.1700000000E+06    0.6780930151E+00    0.1024850011E-02    0.1913434795E-01    0.1107109663E-03    0.6654815649E+00
    0.1900000000E+06    0.6782883178E+00    0.9699605104E-03    0.1911801841E-01    0.1038954051E-03    0.6655953335E+00
    0.2100000000E+06    0.6784467199E+00    0.9231956307E-03    0.1910317893E-01    0.9815886656E-04    0.6656926448E+00
    0.2300000000E+06    0.6785778441E+00    0.8827209820E-03    0.1908957882E-01    0.9324556324E-04    0.6657771944E+00
    0.2500000000E+06    0.6786882279E+00    0.8472355334E-03    0.1907702585E-01    0.8897701290E-04    0.6658516073E+00
    0.2700000000E+06    0.6787824696E+00    0.8157871842E-03    0.1906536938E-01    0.8522443861E-04    0.6659178068E+00
    0.2900000000E+06    0.6788638985E+00    0.7876608090E-03    0.1905448919E-01    0.8189231230E-04    0.6659772388E+00
    0.3100000000E+06    0.6789349846E+00    0.7623073344E-03    0.1904428776E-01    0.7890809327E-04    0.6660310144E+00
    0.3300000000E+06    0.6789975995E+00    0.7392971708E-03    0.1903468491E-01    0.7621558465E-04    0.6660800032E+00
    0.3500000000E+06    0.6790531875E+00    0.7182886876E-03    0.1902561393E-01    0.7377049252E-04    0.6661248976E+00
    0.3700000000E+06    0.6791028812E+00    0.6990063022E-03    0.1901701867E-01    0.7153737426E-04    0.6661662561E+00
    0.3900000000E+06    0.6791475812E+00    0.6812248976E-03    0.1900885147E-01    0.6948749063E-04    0.6662045354E+00
    0.4100000000E+06    0.6791880130E+00    0.6647585140E-03    0.1900107151E-01    0.6759726172E-04    0.6662401131E+00
    0.4300000000E+06    0.6792247674E+00    0.6494519939E-03    0.1899364355E-01    0.6584713595E-04    0.6662733042E+00
    0.4500000000E+06    0.6792583306E+00    0.6351747092E-03    0.1898653696E-01    0.6422074778E-04    0.6663043743E+00
    0.4700000000E+06    0.6792891062E+00    0.6218157842E-03    0.1897972497E-01    0.6270428087E-04    0.6663335489E+00
    0.4900000000E+06    0.6793174323E+00    0.6092804094E-03    0.1897318401E-01    0.6128598008E-04    0.6663610210E+00
    0.1000000000E+06    0.6767980855E+00    0.1336301878E-02    0.1920944778E-01    0.1511189433E-03    0.6648429521E+00
    0.3000000000E+06    0.6789006058E+00    0.7746666822E-03    0.1904930900E-01    0.8036054938E-04    0.6660047745E+00
    0.5000000000E+06    0.6793307677E+00    0.6032955970E-03    0.1897000856E-01    0.6061043717E-04    0.6663741715E+00
    0.7000000000E+06    0.6795193363E+00    0.5119016122E-03    0.1891673533E-01    0.5042449380E-04    0.6665782711E+00
    0.9000000000E+06    0.6796262290E+00    0.4528449154E-03    0.1887653385E-01    0.4397610683E-04    0.6667143743E+00
    0.1100000000E+07    0.6796955009E+00    0.4106388543E-03    0.1884422651E-01    0.3943496857E-04    0.6668144344E+00
    0.1300000000E+07    0.6797442642E+00    0.3785275223E-03    0.1881721184E-01    0.3601935581E-04    0.6668925439E+00
    0.1500000000E+07    0.6797805801E+00    0.3530287104E-03    0.1879399534E-01    0.3333243892E-04    0.6669560477E+00
    0.1700000000E+07    0.6798087543E+00    0.3321403970E-03    0.1877363845E-01    0.3114876098E-04    0.6670092151E+00
    0.1900000000E+07    0.6798313007E+00    0.3146186642E-03    0.1875551282E-01    0.2932959080E-04    0.6670547272E+00
    0.2100000000E+07    0.6798497881E+00    0.2996443209E-03    0.1873917701E-01    0.2778431113E-04    0.6670943681E+00
    0.2300000000E+07    0.6798652475E+00    0.2866528651E-03    0.1872430897E-01    0.2645091866E-04    0.6671293798E+00
    0.2500000000E+07    0.6798783852E+00    0.2752408990E-03    0.1871066648E-01    0.2528538076E-04    0.6671606584E+00
    0.2700000000E+07    0.6798897017E+00    0.2651114246E-03    0.1869806279E-01    0.2425545880E-04    0.6671888699E+00
    0.2900000000E+07    0.6798995621E+00    0.2560402616E-03    0.1868635084E-01    0.2333694047E-04    0.6672145217E+00
    0.3100000000E+07    0.6799082388E+00    0.2478545782E-03    0.1867541275E-01    0.2251124467E-04    0.6672380083E+00
    0.3300000000E+07    0.6799159398E+00    0.2404186864E-03    0.1866515261E-01    0.2176384492E-04    0.6672596422E+00
    0.3500000000E+07    0.6799228262E+00    0.2336243646E-03    0.1865549130E-01    0.2108320023E-04    0.6672796747E+00
    0.3700000000E+07    0.6799290252E+00    0.2273840946E-03    0.1864636277E-01    0.2046001124E-04    0.6672983108E+00
    0.3900000000E+07    0.6799346387E+00    0.2216262294E-03    0.1863771138E-01    0.1988669069E-04    0.6673157193E+00
    0.4100000000E+07    0.6799397488E+00    0.2162914719E-03    0.1862948973E-01    0.1935697911E-04    0.6673320413E+00
    0.4300000000E+07    0.6799444230E+00    0.2113302650E-03    0.1862165718E-01    0.1886566073E-04    0.6673473955E+00
    0.4500000000E+07    0.6799487169E+00    0.2067008244E-03    0.1861417860E-01    0.1840835037E-04    0.6673618827E+00
    0.4700000000E+07    0.6799526771E+00    0.2023676381E-03    0.1860702339E-01    0.1798133100E-04    0.6673755892E+00
    0.4900000000E+07    0.6799563425E+00    0.1983003039E-03    0.1860016477E-01    0.1758142859E-04    0.6673885893E+00
    0.1000000000E+07    0.6796641807E+00    0.4301689222E-03    0.1885959203E-01    0.4152913390E-04    0.6667678005E+00
    0.3000000000E+07    0.6799040342E+00    0.2518459553E-03    0.1868079150E-01    0.2291347823E-04    0.6672265145E+00
    0.5000000000E+07    0.6799580753E+00    0.1963580003E-03    0.1859683921E-01    0.1739077835E-04    0.6673948450E+00
    0.7000000000E+07    0.6799831582E+00    0.1666677467E-03    0.1854140970E-01    0.1450341749E-04    0.6674948461E+00
    0.9000000000E+07    0.6799980044E+00    0.1474591570E-03    0.1849997247E-01    0.1266457832E-04    0.6675648969E+00
    0.1100000000E+08    0.6800079710E+00    0.1337233016E-03    0.1846687477E-01    0.1136532265E-04    0.6676183462E+00
    0.1300000000E+08    0.6800152008E+00    0.1232693784E-03    0.1843931980E-01    0.1038605241E-04    0.6676613280E+00
    0.1500000000E+08    0.6800207281E+00    0.1149665774E-03    0.1841571740E-01    0.9614608626E-05    0.6676971444E+00
    0.1700000000E+08    0.6800251172E+00    0.1081641991E-03    0.1839507646E-01    0.8987009068E-05    0.6677277666E+00
    0.1900000000E+08    0.6800287041E+00    0.1024577124E-03    0.1837673734E-01    0.8463769269E-05    0.6677544614E+00
    0.2100000000E+08    0.6800317018E+00    0.9758060438E-04    0.1836023879E-01    0.8019042834E-05    0.6677780886E+00
    0.2300000000E+08    0.6800342529E+00    0.9334916889E-04    0.1834524560E-01    0.7635115299E-05    0.6677992572E+00
    0.2500000000E+08    0.6800364561E+00    0.8963210014E-04    0.1833150649E-01    0.7299389806E-05    0.6678184140E+00
    0.2700000000E+08    0.6800383826E+00    0.8633270966E-04    0.1831882826E-01    0.7002633626E-05    0.6678358956E+00
