  Pressure (Pa) 22mC5-400 (mol/kg) 2mC6-400 (mol/kg) 3mC6-400 (mol/kg) 33mC5-400 (mol/kg) C7-400 (mol/kg)
    0.1000000000E+01    0.1584192846E-02    0.6336445805E-02    0.1052606644E-02    0.3869347076E-03    0.1708071858E-02
    0.3000000000E+01    0.4670587470E-02    0.1847206694E-01    0.3083117170E-02    0.1128012387E-02    0.5003487302E-02
    0.5000000000E+01    0.7653639683E-02    0.2993807161E-01    0.5020287504E-02    0.1828220476E-02    0.8148041972E-02
    0.7000000000E+01    0.1053996652E-01    0.4078561552E-01    0.6870976335E-02    0.2490680902E-02    0.1115280756E-01
    0.9000000000E+01    0.1333561065E-01    0.5106083182E-01    0.8641373929E-02    0.3118209051E-02    0.1402777746E-01
    0.1100000000E+02    0.1604610211E-01    0.6080542997E-01    0.1033708216E-01    0.3713350320E-02    0.1678199583E-01
    0.1300000000E+02    0.1867651227E-01    0.7005721103E-01    0.1196318328E-01    0.4278411571E-02    0.1942366846E-01
    0.1500000000E+02    0.2123150098E-01    0.7885051280E-01    0.1352429923E-01    0.4815488301E-02    0.2196025845E-01
    0.1700000000E+02    0.2371535811E-01    0.8721659553E-01    0.1502464298E-01    0.5326488184E-02    0.2439856901E-01
    0.1900000000E+02    0.2613203999E-01    0.9518397743E-01    0.1646806315E-01    0.5813151548E-02    0.2674481536E-01
    0.2100000000E+02    0.2848520174E-01    0.1027787272E+00    0.1785808283E-01    0.6277069237E-02    0.2900468747E-01
    0.2300000000E+02    0.3077822576E-01    0.1100247203E+00    0.1919793360E-01    0.6719698230E-02    0.3118340481E-01
    0.2500000000E+02    0.3301424714E-01    0.1169438631E+00    0.2049058531E-01    0.7142375362E-02    0.3328576446E-01
    0.2700000000E+02    0.3519617614E-01    0.1235562912E+00    0.2173877227E-01    0.7546329382E-02    0.3531618331E-01
    0.2900000000E+02    0.3732671837E-01    0.1298805433E+00    0.2294501635E-01    0.7932691599E-02    0.3727873538E-01
    0.3100000000E+02    0.3940839272E-01    0.1359337158E+00    0.2411164743E-01    0.8302505298E-02    0.3917718475E-01
    0.3300000000E+02    0.4144354747E-01    0.1417315993E+00    0.2524082146E-01    0.8656734083E-02    0.4101501475E-01
    0.3500000000E+02    0.4343437474E-01    0.1472888005E+00    0.2633453656E-01    0.8996269297E-02    0.4279545393E-01
    0.3700000000E+02    0.4538292351E-01    0.1526188498E+00    0.2739464736E-01    0.9321936626E-02    0.4452149916E-01
    0.3900000000E+02    0.4729111126E-01    0.1577342988E+00    0.2842287777E-01    0.9634502001E-02    0.4619593625E-01
    0.4100000000E+02    0.4916073463E-01    0.1626468060E+00    0.2942083242E-01    0.9934676866E-02    0.4782135841E-01
    0.4300000000E+02    0.5099347887E-01    0.1673672145E+00    0.3039000687E-01    0.1022312291E-01    0.4940018280E-01
    0.4500000000E+02    0.5279092659E-01    0.1719056219E+00    0.3133179690E-01    0.1050045633E-01    0.5093466538E-01
    0.4700000000E+02    0.5455456556E-01    0.1762714423E+00    0.3224750669E-01    0.1076725159E-01    0.5242691426E-01
    0.4900000000E+02    0.5628579587E-01    0.1804734633E+00    0.3313835639E-01    0.1102404495E-01    0.5387890177E-01
    0.1000000000E+02    0.1470117334E-01    0.5599700952E-01    0.9498235133E-02    0.3419678614E-02    0.1541944927E-01
    0.3000000000E+02    0.3837351344E-01    0.1329399984E+00    0.2353314489E-01    0.8119605012E-02    0.3823574894E-01
    0.5000000000E+02    0.5713967292E-01    0.1825156363E+00    0.3357481867E-01    0.1114884881E-01    0.5459037943E-01
    0.7000000000E+02    0.7279880289E-01    0.2164924201E+00    0.4124130351E-01    0.1322556881E-01    0.6709811657E-01
    0.9000000000E+02    0.8633588614E-01    0.2407971046E+00    0.4736661125E-01    0.1471144595E-01    0.7710758747E-01
    0.1100000000E+03    0.9834039411E-01    0.2587265327E+00    0.5242702880E-01    0.1580768389E-01    0.8538942926E-01
    0.1300000000E+03    0.1091894169E+00    0.2722541563E+00    0.5671580112E-01    0.1663473414E-01    0.9241838896E-01
    0.1500000000E+03    0.1191370139E+00    0.2826298536E+00    0.6042419554E-01    0.1726889599E-01    0.9850428978E-01
    0.1700000000E+03    0.1283616024E+00    0.2906815333E+00    0.6368279671E-01    0.1776071964E-01    0.1038587725E+00
    0.1900000000E+03    0.1369928044E+00    0.2969779839E+00    0.6658412951E-01    0.1814494262E-01    0.1086318722E+00
    0.2100000000E+03    0.1451274945E+00    0.3019219949E+00    0.6919579859E-01    0.1844617184E-01    0.1129332701E+00
    0.2300000000E+03    0.1528398274E+00    0.3058061867E+00    0.7156849593E-01    0.1868229009E-01    0.1168452495E+00
    0.2500000000E+03    0.1601877442E+00    0.3088478373E+00    0.7374108140E-01    0.1886658124E-01    0.1204309185E+00
    0.2700000000E+03    0.1672173297E+00    0.3112113548E+00    0.7574391853E-01    0.1900910150E-01    0.1237396104E+00
    0.2900000000E+03    0.1739658142E+00    0.3130232084E+00    0.7760113038E-01    0.1911759056E-01    0.1268105378E+00
    0.3100000000E+03    0.1804636910E+00    0.3143821023E+00    0.7933216478E-01    0.1919809251E-01    0.1296753279E+00
    0.3300000000E+03    0.1867362426E+00    0.3153660668E+00    0.8095290521E-01    0.1925538861E-01    0.1323598228E+00
    0.3500000000E+03    0.1928046619E+00    0.3160374982E+00    0.8247647510E-01    0.1929330497E-01    0.1348853835E+00
    0.3700000000E+03    0.1986868900E+00    0.3164468061E+00    0.8391383066E-01    0.1931493510E-01    0.1372698511E+00
    0.3900000000E+03    0.2043982515E+00    0.3166350940E+00    0.8527420494E-01    0.1932280366E-01    0.1395282669E+00
    0.4100000000E+03    0.2099519430E+00    0.3166361588E+00    0.8656544523E-01    0.1931898847E-01    0.1416734200E+00
    0.4300000000E+03    0.2153594137E+00    0.3164780016E+00    0.8779427283E-01    0.1930521280E-01    0.1437162690E+00
    0.4500000000E+03    0.2206306651E+00    0.3161839822E+00    0.8896648550E-01    0.1928291593E-01    0.1456662703E+00
    0.4700000000E+03    0.2257744895E+00    0.3157737124E+00    0.9008711686E-01    0.1925330761E-01    0.1475316372E+00
    0.4900000000E+03    0.2307986614E+00    0.3152637526E+00    0.9116056336E-01    0.1921741074E-01    0.1493195463E+00
    0.1000000000E+03    0.9250249619E-01    0.2504134459E+00    0.5000853586E-01    0.1529940290E-01    0.8142983008E-01
    0.3000000000E+03    0.1772443911E+00    0.3137539811E+00    0.7848135415E-01    0.1916101559E-01    0.1282669666E+00
    0.5000000000E+03    0.2332680679E+00    0.3149758674E+00    0.9168081741E-01    0.1919738105E-01    0.1501864546E+00
    0.7000000000E+03    0.2777151094E+00    0.3064769377E+00    0.1003394896E+00    0.1862126694E-01    0.1646522636E+00
    0.9000000000E+03    0.3149903928E+00    0.2960117351E+00    0.1068138990E+00    0.1791476856E-01    0.1755167128E+00
    0.1100000000E+04    0.3470236711E+00    0.2855487825E+00    0.1119974968E+00    0.1720350303E-01    0.1842454602E+00
    0.1300000000E+04    0.3749172178E+00    0.2756813706E+00    0.1163249689E+00    0.1652717515E-01    0.1915536291E+00
    0.1500000000E+04    0.3994083255E+00    0.2665744318E+00    0.1200411340E+00    0.1589809033E-01    0.1978449678E+00
    0.1700000000E+04    0.4210400374E+00    0.2582401885E+00    0.1232978804E+00    0.1531840446E-01    0.2033705012E+00
    0.1900000000E+04    0.4402363740E+00    0.2506342668E+00    0.1261961482E+00    0.1478626095E-01    0.2082973686E+00
    0.2100000000E+04    0.4573403203E+00    0.2436931668E+00    0.1288065557E+00    0.1429825788E-01    0.2127426997E+00
    0.2300000000E+04    0.4726353802E+00    0.2373497877E+00    0.1311805155E+00    0.1385051845E-01    0.2167919003E+00
    0.2500000000E+04    0.4863591127E+00    0.2315399212E+00    0.1333566667E+00    0.1343917232E-01    0.2205092468E+00
    0.2700000000E+04    0.4987123834E+00    0.2262047846E+00    0.1353648117E+00    0.1306056904E-01    0.2239443792E+00
    0.2900000000E+04    0.5098661152E+00    0.2212917542E+00    0.1372284380E+00    0.1271136384E-01    0.2271364661E+00
    0.3100000000E+04    0.5199664540E+00    0.2167542809E+00    0.1389663972E+00    0.1238854066E-01    0.2301169791E+00
    0.3300000000E+04    0.5291388520E+00    0.2125514499E+00    0.1405940573E+00    0.1208940471E-01    0.2329116008E+00
    0.3500000000E+04    0.5374913661E+00    0.2086474109E+00    0.1421241170E+00    0.1181156083E-01    0.2355415731E+00
    0.3700000000E+04    0.5451173601E+00    0.2050107862E+00    0.1435671935E+00    0.1155288610E-01    0.2380246721E+00
    0.3900000000E+04    0.5520977406E+00    0.2016141082E+00    0.1449322567E+00    0.1131150117E-01    0.2403759287E+00
    0.4100000000E+04    0.5585028179E+00    0.1984333079E+00    0.1462269549E+00    0.1108574263E-01    0.2426081694E+00
    0.4300000000E+04    0.5643938633E+00    0.1954472620E+00    0.1474578637E+00    0.1087413734E-01    0.2447324301E+00
    0.4500000000E+04    0.5698244159E+00    0.1926373959E+00    0.1486306783E+00    0.1067537930E-01    0.2467582765E+00
    0.4700000000E+04    0.5748413836E+00    0.1899873407E+00    0.1497503651E+00    0.1048830907E-01    0.2486940555E+00
    0.4900000000E+04    0.5794859727E+00    0.1874826372E+00    0.1508212811E+00    0.1031189557E-01    0.2505470949E+00
    0.1000000000E+04    0.3315816890E+00    0.2907272895E+00    0.1095336319E+00    0.1755626165E-01    0.1800931133E+00
    0.3000000000E+04    0.5150396749E+00    0.2189787557E+00    0.1381120947E+00    0.1254683024E-01    0.2286514465E+00
    0.5000000000E+04    0.5816801391E+00    0.1862807326E+00    0.1513396690E+00    0.1022739404E-01    0.2514446385E+00
    0.7000000000E+04    0.6128477125E+00    0.1674364790E+00    0.1598808157E+00    0.8920325028E-02    0.2662881353E+00
    0.9000000000E+04    0.6300751816E+00    0.1547058846E+00    0.1661139226E+00    0.8063951869E-02    0.2771916510E+00
    0.1100000000E+05    0.6407350753E+00    0.1452493282E+00    0.1709752930E+00    0.7446233007E-02    0.2857421075E+00
    0.1300000000E+05    0.6478757894E+00    0.1377911582E+00    0.1749307007E+00    0.6971467788E-02    0.2927321609E+00
    0.1500000000E+05    0.6529455138E+00    0.1316673487E+00    0.1782453376E+00    0.6590180582E-02    0.2986146600E+00
    0.1700000000E+05    0.6567074178E+00    0.1264932987E+00    0.1810842989E+00    0.6274070256E-02    0.3036723679E+00
    0.1900000000E+05    0.6595969928E+00    0.1220278755E+00    0.1835571509E+00    0.6005656621E-02    0.3080934431E+00
    0.2100000000E+05    0.6618788235E+00    0.1181104838E+00    0.1857402001E+00    0.5773480376E-02    0.3120092459E+00
    0.2300000000E+05    0.6637219887E+00    0.1146290012E+00    0.1876886351E+00    0.5569665820E-02    0.3155149951E+00
    0.2500000000E+05    0.6652391151E+00    0.1115021447E+00    0.1894436036E+00    0.5388589397E-02    0.3186818321E+00
    0.2700000000E+05    0.6665078720E+00    0.1086691557E+00    0.1910365634E+00    0.5226107515E-02    0.3215642514E+00
    0.2900000000E+05    0.6675834176E+00    0.1060834523E+00    0.1924920753E+00    0.5079085947E-02    0.3242048774E+00
    0.3100000000E+05    0.6685059224E+00    0.1037085534E+00    0.1938296610E+00    0.4945100797E-02    0.3266376490E+00
    0.3300000000E+05    0.6693052867E+00    0.1015153669E+00    0.1950650789E+00    0.4822241617E-02    0.3288900070E+00
    0.3500000000E+05    0.6700041950E+00    0.9948032920E-01    0.1962112209E+00    0.4708977765E-02    0.3309844369E+00
    0.3700000000E+05    0.6706201491E+00    0.9758409441E-01    0.1972787600E+00    0.4604065238E-02    0.3329395814E+00
    0.3900000000E+05    0.6711668552E+00    0.9581059001E-01    0.1982766245E+00    0.4506480208E-02    0.3347710592E+00
    0.4100000000E+05    0.6716551912E+00    0.9414632218E-01    0.1992123542E+00    0.4415370624E-02    0.3364920776E+00
    0.4300000000E+05    0.6720938946E+00    0.9257985577E-01    0.2000923694E+00    0.4330020317E-02    0.3381138988E+00
    0.4500000000E+05    0.6724900598E+00    0.9110141887E-01    0.2009221791E+00    0.4249821953E-02    0.3396461985E+00
    0.4700000000E+05    0.6728495042E+00    0.8970259765E-01    0.2017065431E+00    0.4174256338E-02    0.3410973473E+00
    0.4900000000E+05    0.6731770410E+00    0.8837609798E-01    0.2024495998E+00    0.4102876390E-02    0.3424746316E+00
    0.1000000000E+05    0.6359803923E+00    0.1496687132E+00    0.1686804189E+00    0.7732797349E-02    0.2817003958E+00
    0.3000000000E+05    0.6680617326E+00    0.1048716186E+00    0.1931745478E+00    0.5010593450E-02    0.3254453982E+00
    0.5000000000E+05    0.6733301253E+00    0.8773794830E-01    0.2028067867E+00    0.4068632896E-02    0.3431375995E+00
    0.7000000000E+05    0.6754135837E+00    0.7758057086E-01    0.2084615726E+00    0.3531720331E-02    0.3537198395E+00
    0.9000000000E+05    0.6765204436E+00    0.7056903921E-01    0.2123222952E+00    0.3169713609E-02    0.3610535133E+00
    0.1100000000E+06    0.6772048094E+00    0.6531911448E-01    0.2151840004E+00    0.2903121063E-02    0.3665594992E+00
    0.1300000000E+06    0.6776691244E+00    0.6118143305E-01    0.2174189856E+00    0.2695672940E-02    0.3709087540E+00
    0.1500000000E+06    0.6780045563E+00    0.5780258311E-01    0.2192290582E+00    0.2528012877E-02    0.3744675951E+00
    0.1700000000E+06    0.6782581113E+00    0.5497046903E-01    0.2207347798E+00    0.2388697174E-02    0.3774562617E+00
    0.1900000000E+06    0.6784564513E+00    0.5254860422E-01    0.2220133792E+00    0.2270449847E-02    0.3800166504E+00
    0.2100000000E+06    0.6786158126E+00    0.5044441968E-01    0.2231170041E+00    0.2168385396E-02    0.3822450853E+00
    0.2300000000E+06    0.6787466422E+00    0.4859249939E-01    0.2240823507E+00    0.2079080856E-02    0.3842096858E+00
    0.2500000000E+06    0.6788559643E+00    0.4694506178E-01    0.2249361158E+00    0.2000054623E-02    0.3859602399E+00
    0.2700000000E+06    0.6789486748E+00    0.4546624338E-01    0.2256982614E+00    0.1929456360E-02    0.3875341390E+00
    0.2900000000E+06    0.6790282898E+00    0.4412850539E-01    0.2263840605E+00    0.1865873630E-02    0.3889601112E+00
    0.3100000000E+06    0.6790973993E+00    0.4291028729E-01    0.2270054298E+00    0.1808206537E-02    0.3902606605E+00
    0.3300000000E+06    0.6791579532E+00    0.4179442473E-01    0.2275718248E+00    0.1755583736E-02    0.3914537116E+00
    0.3500000000E+06    0.6792114470E+00    0.4076705304E-01    0.2280908597E+00    0.1707304552E-02    0.3925537511E+00
    0.3700000000E+06    0.6792590474E+00    0.3981682886E-01    0.2285687452E+00    0.1662798116E-02    0.3935726373E+00
    0.3900000000E+06    0.6793016775E+00    0.3893436605E-01    0.2290106054E+00    0.1621593889E-02    0.3945201877E+00
    0.4100000000E+06    0.6793400770E+00    0.3811181914E-01    0.2294207119E+00    0.1583299992E-02    0.3954046123E+00
    0.4300000000E+06    0.6793748462E+00    0.3734257075E-01    0.2298026574E+00    0.1547587011E-02    0.3962328396E+00
    0.4500000000E+06    0.6794064768E+00    0.3662099350E-01    0.2301594896E+00    0.1514175710E-02    0.3970107647E+00
    0.4700000000E+06    0.6794353755E+00    0.3594226621E-01    0.2304938130E+00    0.1482827584E-02    0.3977434406E+00
    0.4900000000E+06    0.6794618819E+00    0.3530223035E-01    0.2308078685E+00    0.1453337499E-02    0.3984352280E+00
    0.1000000000E+06    0.6768988186E+00    0.6777429175E-01    0.2138490910E+00    0.3027323959E-02    0.3639829334E+00
    0.3000000000E+06    0.6790640234E+00    0.4350561744E-01    0.2267021586E+00    0.1836359666E-02    0.3896248514E+00
    0.5000000000E+06    0.6794743290E+00    0.3499557498E-01    0.2309579125E+00    0.1439232791E-02    0.3987669916E+00
    0.7000000000E+06    0.6796478761E+00    0.3022450666E-01    0.2332530161E+00    0.1221915680E-02    0.4039584618E+00
    0.9000000000E+06    0.6797437603E+00    0.2705145021E-01    0.2347316181E+00    0.1079730595E-02    0.4074488351E+00
    0.1100000000E+07    0.6798046153E+00    0.2473904174E-01    0.2357795601E+00    0.9773884862E-03    0.4100169820E+00
    0.1300000000E+07    0.6798466918E+00    0.2295413588E-01    0.2365682637E+00    0.8991788973E-03    0.4120164934E+00
    0.1500000000E+07    0.6798775320E+00    0.2152073848E-01    0.2371869908E+00    0.8368961393E-03    0.4136349954E+00
    0.1700000000E+07    0.6799011144E+00    0.2033575903E-01    0.2376873590E+00    0.7857780937E-03    0.4149828479E+00
    0.1900000000E+07    0.6799197366E+00    0.1933418623E-01    0.2381015396E+00    0.7428451985E-03    0.4161299183E+00
    0.2100000000E+07    0.6799348182E+00    0.1847268057E-01    0.2384507473E+00    0.7061246687E-03    0.4171229553E+00
    0.2300000000E+07    0.6799472841E+00    0.1772106821E-01    0.2387496024E+00    0.6742512808E-03    0.4179946207E+00
    0.2500000000E+07    0.6799577624E+00    0.1705759533E-01    0.2390085440E+00    0.6462460951E-03    0.4187685409E+00
    0.2700000000E+07    0.6799666950E+00    0.1646612211E-01    0.2392352464E+00    0.6213863596E-03    0.4194623011E+00
    0.2900000000E+07    0.6799744015E+00    0.1593438279E-01    0.2394354910E+00    0.5991252658E-03    0.4200893070E+00
    0.3100000000E+07    0.6799811191E+00    0.1545286361E-01    0.2396137241E+00    0.5790404389E-03    0.4206599873E+00
    0.3300000000E+07    0.6799870274E+00    0.1501405463E-01    0.2397734273E+00    0.5607997412E-03    0.4211825975E+00
    0.3500000000E+07    0.6799922650E+00    0.1461193643E-01    0.2399173691E+00    0.5441379053E-03    0.4216637734E+00
    0.3700000000E+07    0.6799969404E+00    0.1424161918E-01    0.2400477814E+00    0.5288401620E-03    0.4221089197E+00
    0.3900000000E+07    0.6800011400E+00    0.1389908323E-01    0.2401664854E+00    0.5147305167E-03    0.4225224909E+00
    0.4100000000E+07    0.6800049332E+00    0.1358098913E-01    0.2402749831E+00    0.5016631894E-03    0.4229081973E+00
    0.4300000000E+07    0.6800083766E+00    0.1328453608E-01    0.2403745255E+00    0.4895162570E-03    0.4232691580E+00
    0.4500000000E+07    0.6800115167E+00    0.1300735484E-01    0.2404661635E+00    0.4781868583E-03    0.4236080183E+00
    0.4700000000E+07    0.6800143921E+00    0.1274742565E-01    0.2405507869E+00    0.4675875258E-03    0.4239270382E+00
    0.4900000000E+07    0.6800170351E+00    0.1250301442E-01    0.2406291546E+00    0.4576433460E-03    0.4242281627E+00
    0.1000000000E+07    0.6797772438E+00    0.2581376593E-01    0.2352959347E+00    0.1024814275E-02    0.4088205192E+00
    0.3000000000E+07    0.6799778715E+00    0.1568785510E-01    0.2395271222E+00    0.5888333772E-03    0.4203811284E+00
    0.5000000000E+07    0.6800182782E+00    0.1238615171E-01    0.2406661999E+00    0.4528964030E-03    0.4243725495E+00
    0.7000000000E+07    0.6800357514E+00    0.1058776337E-01    0.2411972116E+00    0.3805119927E-03    0.4266320835E+00
    0.9000000000E+07    0.6800455402E+00    0.9411990477E-02    0.2414967839E+00    0.3339178815E-03    0.4281554333E+00
    0.1100000000E+08    0.6800518177E+00    0.8565114932E-02    0.2416828871E+00    0.3007545181E-03    0.4292815909E+00
    0.1300000000E+08    0.6800561950E+00    0.7917097766E-02    0.2418049975E+00    0.2756222247E-03    0.4301631921E+00
    0.1500000000E+08    0.6800594268E+00    0.7400233032E-02    0.2418876301E+00    0.2557387572E-03    0.4308808784E+00
    0.1700000000E+08    0.6800619140E+00    0.6975301036E-02    0.2419443383E+00    0.2395062693E-03    0.4314819766E+00
    0.1900000000E+08    0.6800638894E+00    0.6617789076E-02    0.2419832222E+00    0.2259333999E-03    0.4319964200E+00
    0.2100000000E+08    0.6800654979E+00    0.6311476245E-02    0.2420094148E+00    0.2143683261E-03    0.4324442348E+00
    0.2300000000E+08    0.6800668339E+00    0.6045139620E-02    0.2420263198E+00    0.2043626268E-03    0.4328394189E+00
    0.2500000000E+08    0.6800679622E+00    0.5810731532E-02    0.2420362779E+00    0.1955963956E-03    0.4331921065E+00
    0.2700000000E+08    0.6800689283E+00    0.5602309190E-02    0.2420409480E+00    0.1878344964E-03    0.4335098487E+00
