  Pressure (Pa) 22mC5-400 (mol/kg) 2mC6-400 (mol/kg) 3mC6-400 (mol/kg) 33mC5-400 (mol/kg) C7-400 (mol/kg)
    0.1000000000E+01    0.1592739834E-02    0.7937470955E-03    0.4208528650E-02    0.3877914200E-03    0.3414636130E-02
    0.3000000000E+01    0.4745066776E-02    0.2323567047E-02    0.1231541545E-01    0.1135394684E-02    0.9993420330E-02
    0.5000000000E+01    0.7854080530E-02    0.3780970438E-02    0.2003393338E-01    0.1847871366E-02    0.1625853422E-01
    0.7000000000E+01    0.1092081899E-01    0.5170892242E-02    0.2739178596E-01    0.2527620447E-02    0.2223231848E-01
    0.9000000000E+01    0.1394628631E-01    0.6497813494E-02    0.3441409249E-01    0.3176819630E-02    0.2793503142E-01
    0.1100000000E+02    0.1693145426E-01    0.7765813136E-02    0.4112368286E-01    0.3797450662E-02    0.3338508640E-01
    0.1300000000E+02    0.1987726352E-01    0.8978612898E-02    0.4754135281E-01    0.4391321239E-02    0.3859925754E-01
    0.1500000000E+02    0.2278462490E-01    0.1013961625E-01    0.5368608588E-01    0.4960084031E-02    0.4359285836E-01
    0.1700000000E+02    0.2565442054E-01    0.1125194236E-01    0.5957524685E-01    0.5505253244E-02    0.4837989769E-01
    0.1900000000E+02    0.2848750502E-01    0.1231845574E-01    0.6522475090E-01    0.6028219099E-02    0.5297321592E-01
    0.2100000000E+02    0.3128470640E-01    0.1334179226E-01    0.7064921202E-01    0.6530260513E-02    0.5738460459E-01
    0.2300000000E+02    0.3404682728E-01    0.1432438198E-01    0.7586207353E-01    0.7012556253E-02    0.6162491147E-01
    0.2500000000E+02    0.3677464575E-01    0.1526846932E-01    0.8087572317E-01    0.7476194756E-02    0.6570413338E-01
    0.2700000000E+02    0.3946891633E-01    0.1617613086E-01    0.8570159494E-01    0.7922182816E-02    0.6963149817E-01
    0.2900000000E+02    0.4213037082E-01    0.1704929109E-01    0.9035025924E-01    0.8351453271E-02    0.7341553742E-01
    0.3100000000E+02    0.4475971922E-01    0.1788973646E-01    0.9483150311E-01    0.8764871835E-02    0.7706415102E-01
    0.3300000000E+02    0.4735765045E-01    0.1869912781E-01    0.9915440160E-01    0.9163243178E-02    0.8058466475E-01
    0.3500000000E+02    0.4992483320E-01    0.1947901154E-01    0.1033273814E+00    0.9547316346E-02    0.8398388158E-01
    0.3700000000E+02    0.5246191663E-01    0.2023082955E-01    0.1073582781E+00    0.9917789618E-02    0.8726812764E-01
    0.3900000000E+02    0.5496953109E-01    0.2095592813E-01    0.1112543869E+00    0.1027531484E-01    0.9044329337E-01
    0.4100000000E+02    0.5744828879E-01    0.2165556603E-01    0.1150225088E+00    0.1062050134E-01    0.9351487049E-01
    0.4300000000E+02    0.5989878445E-01    0.2233092162E-01    0.1186689915E+00    0.1095391942E-01    0.9648798527E-01
    0.4500000000E+02    0.6232159594E-01    0.2298309941E-01    0.1221997672E+00    0.1127610354E-01    0.9936742852E-01
    0.4700000000E+02    0.6471728485E-01    0.2361313588E-01    0.1256203854E+00    0.1158755516E-01    0.1021576827E+00
    0.4900000000E+02    0.6708639706E-01    0.2422200487E-01    0.1289360442E+00    0.1188874530E-01    0.1048629463E+00
    0.1000000000E+02    0.1544384820E-01    0.7138938019E-02    0.3780663254E-01    0.3490589340E-02    0.3069055657E-01
    0.3000000000E+02    0.4344901474E-01    0.1747349652E-01    0.9261122564E-01    0.8560092384E-02    0.7525630174E-01
    0.5000000000E+02    0.6826115334E-01    0.2451878992E-01    0.1305560487E+00    0.1203563178E-01    0.1061849465E+00
    0.7000000000E+02    0.9048276521E-01    0.2953920677E-01    0.1584813497E+00    0.1452939727E-01    0.1289996432E+00
    0.9000000000E+02    0.1105690554E+00    0.3321539131E-01    0.1799540838E+00    0.1637035959E-01    0.1465828219E+00
    0.1100000000E+03    0.1288704788E+00    0.3595121575E-01    0.1970194092E+00    0.1775351430E-01    0.1605884608E+00
    0.1300000000E+03    0.1456613712E+00    0.3800377376E-01    0.2109355968E+00    0.1880294568E-01    0.1720349538E+00
    0.1500000000E+03    0.1611596878E+00    0.3954555681E-01    0.2225202001E+00    0.1960192845E-01    0.1815845089E+00
    0.1700000000E+03    0.1755409067E+00    0.4069707251E-01    0.2323280493E+00    0.2020868982E-01    0.1896868783E+00
    0.1900000000E+03    0.1889480117E+00    0.4154524016E-01    0.2407493059E+00    0.2066528427E-01    0.1966585735E+00
    0.2100000000E+03    0.2014987850E+00    0.4215438374E-01    0.2480665757E+00    0.2100288988E-01    0.2027290288E+00
    0.2300000000E+03    0.2132912164E+00    0.4257311855E-01    0.2544897461E+00    0.2124512268E-01    0.2080687713E+00
    0.2500000000E+03    0.2244075747E+00    0.4283883702E-01    0.2601780764E+00    0.2141019383E-01    0.2128072918E+00
    0.2700000000E+03    0.2349175099E+00    0.4298072776E-01    0.2652546750E+00    0.2151236070E-01    0.2170447629E+00
    0.2900000000E+03    0.2448804467E+00    0.4302186434E-01    0.2698162648E+00    0.2156293055E-01    0.2208599466E+00
    0.3100000000E+03    0.2543474488E+00    0.4298068527E-01    0.2739399353E+00    0.2157097167E-01    0.2243156636E+00
    0.3300000000E+03    0.2633626890E+00    0.4287206425E-01    0.2776879151E+00    0.2154382769E-01    0.2274626625E+00
    0.3500000000E+03    0.2719646158E+00    0.4270809804E-01    0.2811110125E+00    0.2148749644E-01    0.2303424087E+00
    0.3700000000E+03    0.2801868895E+00    0.4249869580E-01    0.2842511386E+00    0.2140691337E-01    0.2329891317E+00
    0.3900000000E+03    0.2880591381E+00    0.4225202590E-01    0.2871431874E+00    0.2130616674E-01    0.2354313509E+00
    0.4100000000E+03    0.2956075730E+00    0.4197485911E-01    0.2898164563E+00    0.2118866292E-01    0.2376930289E+00
    0.4300000000E+03    0.3028554935E+00    0.4167283500E-01    0.2922957336E+00    0.2105725498E-01    0.2397944549E+00
    0.4500000000E+03    0.3098237033E+00    0.4135067095E-01    0.2946021410E+00    0.2091434358E-01    0.2417529296E+00
    0.4700000000E+03    0.3165308558E+00    0.4101232751E-01    0.2967537924E+00    0.2076195702E-01    0.2435833006E+00
    0.4900000000E+03    0.3229937433E+00    0.4066114043E-01    0.2987663161E+00    0.2060181514E-01    0.2452983873E+00
    0.1000000000E+03    0.1199242111E+00    0.3468226943E-01    0.1889457909E+00    0.1711019585E-01    0.1539584865E+00
    0.3000000000E+03    0.2496730322E+00    0.4301056148E-01    0.2719286480E+00    0.2157177279E-01    0.2226293207E+00
    0.5000000000E+03    0.3261383868E+00    0.4048162867E-01    0.2997247131E+00    0.2051930198E-01    0.2461162350E+00
    0.7000000000E+03    0.3792267485E+00    0.3670617244E-01    0.3140950127E+00    0.1871979926E-01    0.2584810472E+00
    0.9000000000E+03    0.4189263844E+00    0.3315347612E-01    0.3230117052E+00    0.1695616800E-01    0.2662811991E+00
    0.1100000000E+04    0.4498989828E+00    0.3007831728E-01    0.3291399991E+00    0.1539000469E-01    0.2717251807E+00
    0.1300000000E+04    0.4747549824E+00    0.2747219365E-01    0.3336378925E+00    0.1403737574E-01    0.2757791486E+00
    0.1500000000E+04    0.4951227298E+00    0.2526945514E-01    0.3370941343E+00    0.1287708838E-01    0.2789375074E+00
    0.1700000000E+04    0.5120899707E+00    0.2340014362E-01    0.3398415011E+00    0.1188071481E-01    0.2814814394E+00
    0.1900000000E+04    0.5264179925E+00    0.2180329243E-01    0.3420830665E+00    0.1102138434E-01    0.2835835529E+00
    0.2100000000E+04    0.5386579520E+00    0.2042896188E-01    0.3439501762E+00    0.1027603992E-01    0.2853561271E+00
    0.2300000000E+04    0.5492194009E+00    0.1923712476E-01    0.3455317584E+00    0.9625597113E-02    0.2868756013E+00
    0.2500000000E+04    0.5584131128E+00    0.1819589224E-01    0.3468902879E+00    0.9054474185E-02    0.2881959635E+00
    0.2700000000E+04    0.5664790636E+00    0.1727983365E-01    0.3480710131E+00    0.8549996794E-02    0.2893565187E+00
    0.2900000000E+04    0.5736053540E+00    0.1646857929E-01    0.3491075555E+00    0.8101844004E-02    0.2903866201E+00
    0.3100000000E+04    0.5799413631E+00    0.1574571461E-01    0.3500254477E+00    0.7701580913E-02    0.2913086685E+00
    0.3300000000E+04    0.5856071028E+00    0.1509792251E-01    0.3508444469E+00    0.7342280181E-02    0.2921400817E+00
    0.3500000000E+04    0.5906999985E+00    0.1451432262E-01    0.3515800942E+00    0.7018221091E-02    0.2928946249E+00
    0.3700000000E+04    0.5952998876E+00    0.1398596287E-01    0.3522447909E+00    0.6724652003E-02    0.2935833332E+00
    0.3900000000E+04    0.5994727580E+00    0.1350542704E-01    0.3528485601E+00    0.6457603168E-02    0.2942151662E+00
    0.4100000000E+04    0.6032735810E+00    0.1306653037E-01    0.3533995955E+00    0.6213738994E-02    0.2947974806E+00
    0.4300000000E+04    0.6067484826E+00    0.1266408227E-01    0.3539046642E+00    0.5990241070E-02    0.2953363789E+00
    0.4500000000E+04    0.6099364271E+00    0.1229369999E-01    0.3543694064E+00    0.5784715133E-02    0.2958369696E+00
    0.4700000000E+04    0.6128705337E+00    0.1195166156E-01    0.3547985632E+00    0.5595116705E-02    0.2963035648E+00
    0.4900000000E+04    0.6155791164E+00    0.1163478878E-01    0.3551961501E+00    0.5419691362E-02    0.2967398321E+00
    0.1000000000E+04    0.4353096072E+00    0.3155424499E-01    0.3263326918E+00    0.1614589482E-01    0.2692213322E+00
    0.3000000000E+04    0.5768640444E+00    0.1609699457E-01    0.3495799838E+00    0.7896190668E-02    0.2908599636E+00
    0.5000000000E+04    0.6168565779E+00    0.1148492159E-01    0.3553841951E+00    0.5336812579E-02    0.2969475922E+00
    0.7000000000E+04    0.6349858780E+00    0.9314747783E-02    0.3581040131E+00    0.4147569224E-02    0.3000800995E+00
    0.9000000000E+04    0.6451824423E+00    0.8031962393E-02    0.3596949677E+00    0.3461249678E-02    0.3020693989E+00
    0.1100000000E+05    0.6516758186E+00    0.7169835291E-02    0.3607411256E+00    0.3011607994E-02    0.3034794418E+00
    0.1300000000E+05    0.6561580310E+00    0.6541828750E-02    0.3614809748E+00    0.2691877928E-02    0.3045489718E+00
    0.1500000000E+05    0.6594316407E+00    0.6058722264E-02    0.3620308629E+00    0.2451255727E-02    0.3053983749E+00
    0.1700000000E+05    0.6619243052E+00    0.5672274573E-02    0.3624545792E+00    0.2262526775E-02    0.3060957242E+00
    0.1900000000E+05    0.6638840764E+00    0.5353980014E-02    0.3627901258E+00    0.2109791657E-02    0.3066827752E+00
    0.2100000000E+05    0.6654644346E+00    0.5085825988E-02    0.3630615974E+00    0.1983125953E-02    0.3071867495E+00
    0.2300000000E+05    0.6667653043E+00    0.4855818634E-02    0.3632850312E+00    0.1876003479E-02    0.3076262557E+00
    0.2500000000E+05    0.6678544746E+00    0.4655629803E-02    0.3634715253E+00    0.1783948408E-02    0.3080145071E+00
    0.2700000000E+05    0.6687795231E+00    0.4479275046E-02    0.3636290095E+00    0.1703783011E-02    0.3083611822E+00
    0.2900000000E+05    0.6695748070E+00    0.4322329665E-02    0.3637633029E+00    0.1633184880E-02    0.3086735574E+00
    0.3100000000E+05    0.6702657466E+00    0.4181442488E-02    0.3638787740E+00    0.1570414494E-02    0.3089572244E+00
    0.3300000000E+05    0.6708715471E+00    0.4054022650E-02    0.3639787664E+00    0.1514141136E-02    0.3092165624E+00
    0.3500000000E+05    0.6714069848E+00    0.3938031164E-02    0.3640658832E+00    0.1463328028E-02    0.3094550578E+00
    0.3700000000E+05    0.6718836118E+00    0.3831838289E-02    0.3641421813E+00    0.1417154352E-02    0.3096755260E+00
    0.3900000000E+05    0.6723105879E+00    0.3734123497E-02    0.3642093071E+00    0.1374961025E-02    0.3098802698E+00
    0.4100000000E+05    0.6726952689E+00    0.3643803791E-02    0.3642685944E+00    0.1336212141E-02    0.3100711938E+00
    0.4300000000E+05    0.6730436286E+00    0.3559981349E-02    0.3643211348E+00    0.1300467031E-02    0.3102498897E+00
    0.4500000000E+05    0.6733605686E+00    0.3481904622E-02    0.3643678300E+00    0.1267359666E-02    0.3104176993E+00
    0.4700000000E+05    0.6736501480E+00    0.3408938985E-02    0.3644094318E+00    0.1236583229E-02    0.3105757634E+00
    0.4900000000E+05    0.6739157568E+00    0.3340544288E-02    0.3644465712E+00    0.1207878395E-02    0.3107250591E+00
    0.1000000000E+05    0.6487553346E+00    0.7563365641E-02    0.3602670176E+00    0.3215464007E-02    0.3028278526E+00
    0.3000000000E+05    0.6699319983E+00    0.4250055713E-02    0.3638231621E+00    0.1600912402E-02    0.3088186816E+00
    0.5000000000E+05    0.6740404818E+00    0.3307913714E-02    0.3644636377E+00    0.1194232516E-02    0.3107966867E+00
    0.7000000000E+05    0.6757788609E+00    0.2811085042E-02    0.3646653260E+00    0.9903669848E-03    0.3119236128E+00
    0.9000000000E+05    0.6767380569E+00    0.2490951020E-02    0.3647270007E+00    0.8628800151E-03    0.3126941078E+00
    0.1100000000E+06    0.6773459203E+00    0.2262270189E-02    0.3647303315E+00    0.7736710031E-03    0.3132725333E+00
    0.1300000000E+06    0.6777656019E+00    0.2088223741E-02    0.3647059046E+00    0.7068179121E-03    0.3137322350E+00
    0.1500000000E+06    0.6780727937E+00    0.1949925361E-02    0.3646673577E+00    0.6543444242E-03    0.3141118686E+00
    0.1700000000E+06    0.6783073970E+00    0.1836543937E-02    0.3646214810E+00    0.6117582738E-03    0.3144341397E+00
    0.1900000000E+06    0.6784924378E+00    0.1741358554E-02    0.3645719156E+00    0.5763120332E-03    0.3147134485E+00
    0.2100000000E+06    0.6786421341E+00    0.1659945915E-02    0.3645207161E+00    0.5462190503E-03    0.3149594657E+00
    0.2300000000E+06    0.6787657395E+00    0.1589258657E-02    0.3644690813E+00    0.5202608743E-03    0.3151789811E+00
    0.2500000000E+06    0.6788695360E+00    0.1527119088E-02    0.3644177243E+00    0.4975743862E-03    0.3153769341E+00
    0.2700000000E+06    0.6789579384E+00    0.1471923639E-02    0.3643670712E+00    0.4775288894E-03    0.3155570241E+00
    0.2900000000E+06    0.6790341397E+00    0.1422461587E-02    0.3643173735E+00    0.4596514402E-03    0.3157220894E+00
    0.3100000000E+06    0.6791005069E+00    0.1377799219E-02    0.3642687738E+00    0.4435795355E-03    0.3158743527E+00
    0.3300000000E+06    0.6791588314E+00    0.1337203224E-02    0.3642213457E+00    0.4290300540E-03    0.3160155857E+00
    0.3500000000E+06    0.6792104943E+00    0.1300088500E-02    0.3641751188E+00    0.4157782405E-03    0.3161472221E+00
    0.3700000000E+06    0.6792565776E+00    0.1265981692E-02    0.3641300944E+00    0.4036431102E-03    0.3162704375E+00
    0.3900000000E+06    0.6792979407E+00    0.1234495128E-02    0.3640862559E+00    0.3924770767E-03    0.3163862077E+00
    0.4100000000E+06    0.6793352750E+00    0.1205307829E-02    0.3640435751E+00    0.3821584323E-03    0.3164953505E+00
    0.4300000000E+06    0.6793691432E+00    0.1178151427E-02    0.3640020173E+00    0.3725857982E-03    0.3165985583E+00
    0.4500000000E+06    0.6794000076E+00    0.1152799563E-02    0.3639615437E+00    0.3636739622E-03    0.3166964220E+00
    0.4700000000E+06    0.6794282521E+00    0.1129059773E-02    0.3639221137E+00    0.3553507119E-03    0.3167894499E+00
    0.4900000000E+06    0.6794541973E+00    0.1106767229E-02    0.3638836859E+00    0.3475543946E-03    0.3168780819E+00
    0.1000000000E+06    0.6770726262E+00    0.2368090619E-02    0.3647334489E+00    0.8147589734E-03    0.3130015745E+00
    0.3000000000E+06    0.6790684294E+00    0.1399580267E-02    0.3642929305E+00    0.4514090659E-03    0.3157997015E+00
    0.5000000000E+06    0.6794663940E+00    0.1096118491E-02    0.3638648352E+00    0.3438369795E-03    0.3169208714E+00
    0.7000000000E+06    0.6796373790E+00    0.9330649596E-03    0.3635311947E+00    0.2874819647E-03    0.3176175874E+00
    0.9000000000E+06    0.6797326722E+00    0.8272725372E-03    0.3632604040E+00    0.2515233604E-03    0.3181204781E+00
    0.1100000000E+07    0.6797935104E+00    0.7514579274E-03    0.3630327770E+00    0.2260750081E-03    0.3185127775E+00
    0.1300000000E+07    0.6798357633E+00    0.6936581088E-03    0.3628364068E+00    0.2068674853E-03    0.3188337768E+00
    0.1500000000E+07    0.6798668441E+00    0.6476859736E-03    0.3626636761E+00    0.1917180432E-03    0.3191050798E+00
    0.1700000000E+07    0.6798906823E+00    0.6099754675E-03    0.3625094435E+00    0.1793803077E-03    0.3193398120E+00
    0.1900000000E+07    0.6799095557E+00    0.5783065464E-03    0.3623700819E+00    0.1690844232E-03    0.3195465328E+00
    0.2100000000E+07    0.6799248763E+00    0.5512148426E-03    0.3622429383E+00    0.1603260207E-03    0.3197311280E+00
    0.2300000000E+07    0.6799375662E+00    0.5276899049E-03    0.3621260142E+00    0.1527591484E-03    0.3198978147E+00
    0.2500000000E+07    0.6799482531E+00    0.5070088194E-03    0.3620177664E+00    0.1461376203E-03    0.3200497160E+00
    0.2700000000E+07    0.6799573794E+00    0.4886388058E-03    0.3619169783E+00    0.1402808754E-03    0.3201892081E+00
    0.2900000000E+07    0.6799652660E+00    0.4721773476E-03    0.3618226740E+00    0.1350531009E-03    0.3203181404E+00
    0.3100000000E+07    0.6799721512E+00    0.4573138726E-03    0.3617340580E+00    0.1303499319E-03    0.3204379795E+00
    0.3300000000E+07    0.6799782156E+00    0.4438043752E-03    0.3616504737E+00    0.1260896808E-03    0.3205499081E+00
    0.3500000000E+07    0.6799835988E+00    0.4314541110E-03    0.3615713727E+00    0.1222073794E-03    0.3206548937E+00
    0.3700000000E+07    0.6799884106E+00    0.4201054936E-03    0.3614962921E+00    0.1186506284E-03    0.3207537372E+00
    0.3900000000E+07    0.6799927380E+00    0.4096294404E-03    0.3614248374E+00    0.1153766380E-03    0.3208471093E+00
    0.4100000000E+07    0.6799966513E+00    0.3999190622E-03    0.3613566700E+00    0.1123500786E-03    0.3209355773E+00
    0.4300000000E+07    0.6800002077E+00    0.3908849816E-03    0.3612914967E+00    0.1095414896E-03    0.3210196247E+00
    0.4500000000E+07    0.6800034545E+00    0.3824518052E-03    0.3612290623E+00    0.1069260847E-03    0.3210996677E+00
    0.4700000000E+07    0.6800064307E+00    0.3745554277E-03    0.3611691428E+00    0.1044828412E-03    0.3211760662E+00
    0.4900000000E+07    0.6800091691E+00    0.3671409459E-03    0.3611115409E+00    0.1021937964E-03    0.3212491342E+00
    0.1000000000E+07    0.6797661091E+00    0.7865614617E-03    0.3631420698E+00    0.2378232758E-03    0.3183274090E+00
    0.3000000000E+07    0.6799688214E+00    0.4645624391E-03    0.3617776988E+00    0.1326414972E-03    0.3203791169E+00
    0.5000000000E+07    0.6800104580E+00    0.3635993654E-03    0.3610835537E+00    0.1011021844E-03    0.3212845066E+00
    0.7000000000E+07    0.6800286521E+00    0.3093870555E-03    0.3606118610E+00    0.8454292986E-04    0.3218690947E+00
    0.9000000000E+07    0.6800389241E+00    0.2742317796E-03    0.3602533743E+00    0.7396875349E-04    0.3223007067E+00
    0.1100000000E+08    0.6800455532E+00    0.2490485580E-03    0.3599638230E+00    0.6648275878E-04    0.3226426559E+00
    0.1300000000E+08    0.6800502007E+00    0.2298554602E-03    0.3597207659E+00    0.6083169772E-04    0.3229256876E+00
    0.1500000000E+08    0.6800536480E+00    0.2145938614E-03    0.3595112281E+00    0.5637423999E-04    0.3231670560E+00
    0.1700000000E+08    0.6800563121E+00    0.2020776257E-03    0.3593270206E+00    0.5274397191E-04    0.3233774108E+00
    0.1900000000E+08    0.6800584360E+00    0.1915685365E-03    0.3591626389E+00    0.4971448682E-04    0.3235637855E+00
    0.2100000000E+08    0.6800601711E+00    0.1825797787E-03    0.3590142027E+00    0.4713741932E-04    0.3237310678E+00
    0.2300000000E+08    0.6800616169E+00    0.1747755114E-03    0.3588788729E+00    0.4491098749E-04    0.3238827912E+00
    0.2500000000E+08    0.6800628413E+00    0.1679155081E-03    0.3587545090E+00    0.4296275307E-04    0.3240215929E+00
    0.2700000000E+08    0.6800638924E+00    0.1618227550E-03    0.3586394567E+00    0.4123958327E-04    0.3241494929E+00
