  Pressure (Pa) 22mC5-400 (mol/kg) 2mC6-400 (mol/kg) 3mC6-400 (mol/kg) 33mC5-400 (mol/kg) C7-400 (mol/kg)
    0.1000000000E+01    0.1591610901E-02    0.1581367877E-02    0.3142799383E-02    0.3219234875E-03    0.6799990239E-02
    0.3000000000E+01    0.4735110190E-02    0.4595221184E-02    0.9121237599E-02    0.9356910736E-03    0.1973846250E-01
    0.5000000000E+01    0.7826973151E-02    0.7425927985E-02    0.1472303058E-01    0.1512464868E-02    0.3186567713E-01
    0.7000000000E+01    0.1086873533E-01    0.1008991760E-01    0.1998333903E-01    0.2055571740E-02    0.4325725122E-01
    0.9000000000E+01    0.1386187021E-01    0.1260164106E-01    0.2493305930E-01    0.2567936850E-02    0.5397963784E-01
    0.1100000000E+02    0.1680779237E-01    0.1497386406E-01    0.2959945162E-01    0.3052143243E-02    0.6409147556E-01
    0.1300000000E+02    0.1970786033E-01    0.1721790923E-01    0.3400666049E-01    0.3510481118E-02    0.7364470628E-01
    0.1500000000E+02    0.2256337939E-01    0.1934385762E-01    0.3817614813E-01    0.3944988797E-02    0.8268550637E-01
    0.1700000000E+02    0.2537560415E-01    0.2136071721E-01    0.4212705750E-01    0.4357486974E-02    0.9125506655E-01
    0.1900000000E+02    0.2814574099E-01    0.2327656458E-01    0.4587651789E-01    0.4749607511E-02    0.9939024849E-01
    0.2100000000E+02    0.3087495038E-01    0.2509866457E-01    0.4943990336E-01    0.5122817751E-02    0.1071241402E+00
    0.2300000000E+02    0.3356434902E-01    0.2683357183E-01    0.5283105246E-01    0.5478441149E-02    0.1144865280E+00
    0.2500000000E+02    0.3621501191E-01    0.2848721747E-01    0.5606245561E-01    0.5817674858E-02    0.1215042992E+00
    0.2700000000E+02    0.3882797428E-01    0.3006498312E-01    0.5914541574E-01    0.6141604777E-02    0.1282017875E+00
    0.2900000000E+02    0.4140423344E-01    0.3157176467E-01    0.6209018645E-01    0.6451218487E-02    0.1346010699E+00
    0.3100000000E+02    0.4394475046E-01    0.3301202724E-01    0.6490609136E-01    0.6747416395E-02    0.1407222230E+00
    0.3300000000E+02    0.4645045187E-01    0.3438985274E-01    0.6760162740E-01    0.7031021401E-02    0.1465835452E+00
    0.3500000000E+02    0.4892223115E-01    0.3570898126E-01    0.7018455478E-01    0.7302787276E-02    0.1522017501E+00
    0.3700000000E+02    0.5136095024E-01    0.3697284709E-01    0.7266197528E-01    0.7563405976E-02    0.1575921348E+00
    0.3900000000E+02    0.5376744090E-01    0.3818461028E-01    0.7504040089E-01    0.7813514033E-02    0.1627687274E+00
    0.4100000000E+02    0.5614250603E-01    0.3934718424E-01    0.7732581396E-01    0.8053698156E-02    0.1677444165E+00
    0.4300000000E+02    0.5848692092E-01    0.4046326014E-01    0.7952372013E-01    0.8284500162E-02    0.1725310648E+00
    0.4500000000E+02    0.6080143445E-01    0.4153532831E-01    0.8163919506E-01    0.8506421326E-02    0.1771396096E+00
    0.4700000000E+02    0.6308677020E-01    0.4256569726E-01    0.8367692571E-01    0.8719926219E-02    0.1815801517E+00
    0.4900000000E+02    0.6534362749E-01    0.4355651050E-01    0.8564124703E-01    0.8925446121E-02    0.1858620343E+00
    0.1000000000E+02    0.1534064669E-01    0.1380445117E-01    0.2730009486E-01    0.2813410401E-02    0.5910848371E-01
    0.3000000000E+02    0.4267890102E-01    0.3229994724E-01    0.6351369781E-01    0.6600941272E-02    0.1376952297E+00
    0.5000000000E+02    0.6646158888E-01    0.4403771218E-01    0.8659714568E-01    0.9025338125E-02    0.1879462082E+00
    0.7000000000E+02    0.8747890234E-01    0.5200237906E-01    0.1026943203E+00    0.1068788355E-01    0.2230964236E+00
    0.9000000000E+02    0.1062952316E+00    0.5761575482E-01    0.1146168242E+00    0.1187442747E-01    0.2492090277E+00
    0.1100000000E+03    0.1233248513E+00    0.6165608066E-01    0.1238371524E+00    0.1274129701E-01    0.2694627481E+00
    0.1300000000E+03    0.1388790601E+00    0.6459129582E-01    0.1312030178E+00    0.1338250366E-01    0.2856894676E+00
    0.1500000000E+03    0.1531965870E+00    0.6672223861E-01    0.1372379858E+00    0.1385854950E-01    0.2990217565E+00
    0.1700000000E+03    0.1664638043E+00    0.6825216533E-01    0.1422834906E+00    0.1421038284E-01    0.3101989520E+00
    0.1900000000E+03    0.1788285259E+00    0.6932373563E-01    0.1465720575E+00    0.1446681130E-01    0.3197250695E+00
    0.2100000000E+03    0.1904096464E+00    0.7004013341E-01    0.1502677466E+00    0.1464873049E-01    0.3279560777E+00
    0.2300000000E+03    0.2013040148E+00    0.7047782411E-01    0.1534897709E+00    0.1477167648E-01    0.3351508955E+00
    0.2500000000E+03    0.2115914286E+00    0.7069461730E-01    0.1563269382E+00    0.1484743867E-01    0.3415025953E+00
    0.2700000000E+03    0.2213383212E+00    0.7073495561E-01    0.1588468306E+00    0.1488511775E-01    0.3471582478E+00
    0.2900000000E+03    0.2306005264E+00    0.7063349362E-01    0.1611018355E+00    0.1489184198E-01    0.3522319680E+00
    0.3100000000E+03    0.2394253792E+00    0.7041758408E-01    0.1631332218E+00    0.1487326510E-01    0.3568137390E+00
    0.3300000000E+03    0.2478533320E+00    0.7010904452E-01    0.1649739657E+00    0.1483392041E-01    0.3609755306E+00
    0.3500000000E+03    0.2559192116E+00    0.6972543719E-01    0.1666507516E+00    0.1477747759E-01    0.3647756372E+00
    0.3700000000E+03    0.2636532085E+00    0.6928101237E-01    0.1681854183E+00    0.1470693227E-01    0.3682618119E+00
    0.3900000000E+03    0.2710816613E+00    0.6878741415E-01    0.1695960207E+00    0.1462474801E-01    0.3714735717E+00
    0.4100000000E+03    0.2782276856E+00    0.6825421569E-01    0.1708976237E+00    0.1453296421E-01    0.3744439196E+00
    0.4300000000E+03    0.2851116816E+00    0.6768932988E-01    0.1721029023E+00    0.1443327901E-01    0.3772006490E+00
    0.4500000000E+03    0.2917517471E+00    0.6709932811E-01    0.1732226025E+00    0.1432711380E-01    0.3797673449E+00
    0.4700000000E+03    0.2981640161E+00    0.6648968986E-01    0.1742658983E+00    0.1421566378E-01    0.3821641606E+00
    0.4900000000E+03    0.3043629383E+00    0.6586500012E-01    0.1752406722E+00    0.1409993809E-01    0.3844084281E+00
    0.1000000000E+03    0.1150119286E+00    0.5979822557E-01    0.1195017775E+00    0.1234092723E-01    0.2599321867E+00
    0.3000000000E+03    0.2350649485E+00    0.7053836841E-01    0.1621432523E+00    0.1488540999E-01    0.3545794847E+00
    0.5000000000E+03    0.3073865072E+00    0.6554823854E-01    0.1757045292E+00    0.1404074438E-01    0.3854781221E+00
    0.7000000000E+03    0.3592263024E+00    0.5908360519E-01    0.1826366070E+00    0.1278234085E-01    0.4016239988E+00
    0.9000000000E+03    0.3990787171E+00    0.5312582264E-01    0.1869211657E+00    0.1156611100E-01    0.4118020438E+00
    0.1100000000E+04    0.4308730263E+00    0.4798336030E-01    0.1898609152E+00    0.1048398573E-01    0.4189132798E+00
    0.1300000000E+04    0.4568459656E+00    0.4361687185E-01    0.1920165993E+00    0.9544106111E-02    0.4242170860E+00
    0.1500000000E+04    0.4784305934E+00    0.3991534105E-01    0.1936719875E+00    0.8732917527E-02    0.4283558719E+00
    0.1700000000E+04    0.4966127413E+00    0.3676558876E-01    0.1949870820E+00    0.8032448085E-02    0.4316945954E+00
    0.1900000000E+04    0.5121022055E+00    0.3406945680E-01    0.1960593976E+00    0.7425512249E-02    0.4344572837E+00
    0.2100000000E+04    0.5254262964E+00    0.3174614268E-01    0.1969519658E+00    0.6897142377E-02    0.4367897408E+00
    0.2300000000E+04    0.5369858902E+00    0.2973036867E-01    0.1977074523E+00    0.6434764883E-02    0.4387913120E+00
    0.2500000000E+04    0.5470912850E+00    0.2796968425E-01    0.1983558305E+00    0.6027971889E-02    0.4405322336E+00
    0.2700000000E+04    0.5559862429E+00    0.2642191608E-01    0.1989188119E+00    0.5668192076E-02    0.4420636946E+00
    0.2900000000E+04    0.5638646819E+00    0.2505302854E-01    0.1994125326E+00    0.5348368577E-02    0.4434239648E+00
    0.3100000000E+04    0.5708825734E+00    0.2383541019E-01    0.1998492493E+00    0.5062678076E-02    0.4446422819E+00
    0.3300000000E+04    0.5771666039E+00    0.2274652812E-01    0.2002384493E+00    0.4806297447E-02    0.4457414038E+00
    0.3500000000E+04    0.5828205899E+00    0.2176787916E-01    0.2005875971E+00    0.4575214204E-02    0.4467393346E+00
    0.3700000000E+04    0.5879302972E+00    0.2088417370E-01    0.2009026509E+00    0.4366074159E-02    0.4476505222E+00
    0.3900000000E+04    0.5925671095E+00    0.2008269924E-01    0.2011884276E+00    0.4176059469E-02    0.4484867081E+00
    0.4100000000E+04    0.5967908505E+00    0.1935282229E-01    0.2014488658E+00    0.4002791051E-02    0.4492575421E+00
    0.4300000000E+04    0.6006519782E+00    0.1868559658E-01    0.2016872191E+00    0.3844250381E-02    0.4499710359E+00
    0.4500000000E+04    0.6041933061E+00    0.1807345336E-01    0.2019061998E+00    0.3698716614E-02    0.4506339018E+00
    0.4700000000E+04    0.6074513645E+00    0.1750995509E-01    0.2021080885E+00    0.3564715862E-02    0.4512518100E+00
    0.4900000000E+04    0.6104574867E+00    0.1698959847E-01    0.2022948167E+00    0.3440980082E-02    0.4518295870E+00
    0.1000000000E+04    0.4158181635E+00    0.5045193422E-01    0.1885146610E+00    0.1100690726E-01    0.4156413348E+00
    0.3000000000E+04    0.5674726761E+00    0.2442682448E-01    0.1996373687E+00    0.5201579169E-02    0.4440493167E+00
    0.5000000000E+04    0.6118746606E+00    0.1674409432E-01    0.2023830202E+00    0.3382613215E-02    0.4521047425E+00
    0.7000000000E+04    0.6319148925E+00    0.1324256198E-01    0.2036477545E+00    0.2553920500E-02    0.4562518758E+00
    0.9000000000E+04    0.6430880159E+00    0.1123367246E-01    0.2043724337E+00    0.2086677667E-02    0.4588802565E+00
    0.1100000000E+05    0.6501443829E+00    0.9916242316E-02    0.2048379802E+00    0.1787087211E-02    0.4607376133E+00
    0.1300000000E+05    0.6549804411E+00    0.8975259953E-02    0.2051588717E+00    0.1578043962E-02    0.4621414693E+00
    0.1500000000E+05    0.6584911482E+00    0.8262737593E-02    0.2053907834E+00    0.1423275191E-02    0.4632522264E+00
    0.1700000000E+05    0.6611506760E+00    0.7700033870E-02    0.2055641223E+00    0.1303589087E-02    0.4641606767E+00
    0.1900000000E+05    0.6632325235E+00    0.7241417710E-02    0.2056969221E+00    0.1207910341E-02    0.4649225368E+00
    0.2100000000E+05    0.6649050372E+00    0.6858408150E-02    0.2058005604E+00    0.1129406890E-02    0.4655741325E+00
    0.2300000000E+05    0.6662772983E+00    0.6532286754E-02    0.2058825700E+00    0.1063635905E-02    0.4661402905E+00
    0.2500000000E+05    0.6674229884E+00    0.6250207280E-02    0.2059481339E+00    0.1007582082E-02    0.4666386312E+00
    0.2700000000E+05    0.6683936170E+00    0.6003035028E-02    0.2060009336E+00    0.9591254287E-03    0.4670820537E+00
    0.2900000000E+05    0.6692262483E+00    0.5784079445E-02    0.2060436539E+00    0.9167306097E-03    0.4674802481E+00
    0.3100000000E+05    0.6699482161E+00    0.5588316021E-02    0.2060782970E+00    0.8792573342E-03    0.4678406549E+00
    0.3300000000E+05    0.6705801099E+00    0.5411889777E-02    0.2061063855E+00    0.8458401524E-03    0.4681690959E+00
    0.3500000000E+05    0.6711377284E+00    0.5251787786E-02    0.2061290963E+00    0.8158097222E-03    0.4684702011E+00
    0.3700000000E+05    0.6716333917E+00    0.5105616903E-02    0.2061473526E+00    0.7886397540E-03    0.4687477057E+00
    0.3900000000E+05    0.6720768469E+00    0.4971449065E-02    0.2061618883E+00    0.7639103593E-03    0.4690046616E+00
    0.4100000000E+05    0.6724759041E+00    0.4847711232E-02    0.2061732930E+00    0.7412821666E-03    0.4692435902E+00
    0.4300000000E+05    0.6728368940E+00    0.4733105516E-02    0.2061820459E+00    0.7204776806E-03    0.4694665960E+00
    0.4500000000E+05    0.6731650015E+00    0.4626550218E-02    0.2061885394E+00    0.7012676192E-03    0.4696754513E+00
    0.4700000000E+05    0.6734645131E+00    0.4527135585E-02    0.2061930981E+00    0.6834607402E-03    0.4698716612E+00
    0.4900000000E+05    0.6737390030E+00    0.4434090154E-02    0.2061959922E+00    0.6668961561E-03    0.4700565132E+00
    0.1000000000E+05    0.6469774008E+00    0.1051405878E-01    0.2046284099E+00    0.1922168644E-02    0.4598800920E+00
    0.3000000000E+05    0.6695996470E+00    0.5683562589E-02    0.2060618805E+00    0.8974382337E-03    0.4676647789E+00
    0.5000000000E+05    0.6738678226E+00    0.4389746112E-02    0.2061968873E+00    0.6590362717E-03    0.4701450326E+00
    0.7000000000E+05    0.6756582104E+00    0.3718058957E-02    0.2061668950E+00    0.5427064780E-03    0.4715222992E+00
    0.9000000000E+05    0.6766421350E+00    0.3288330038E-02    0.2060957459E+00    0.4709471390E-03    0.4724454135E+00
    0.1100000000E+06    0.6772643258E+00    0.2982611963E-02    0.2060135366E+00    0.4211468081E-03    0.4731272987E+00
    0.1300000000E+06    0.6776933766E+00    0.2750549229E-02    0.2059299494E+00    0.3840327675E-03    0.4736619193E+00
    0.1500000000E+06    0.6780072122E+00    0.2566495484E-02    0.2058484794E+00    0.3550173856E-03    0.4740983052E+00
    0.1700000000E+06    0.6782468053E+00    0.2415813487E-02    0.2057703823E+00    0.3315398175E-03    0.4744649972E+00
    0.1900000000E+06    0.6784357564E+00    0.2289452022E-02    0.2056960170E+00    0.3120443048E-03    0.4747799476E+00
    0.2100000000E+06    0.6785886181E+00    0.2181469713E-02    0.2056253659E+00    0.2955243855E-03    0.4750551223E+00
    0.2300000000E+06    0.6787148522E+00    0.2087781716E-02    0.2055582551E+00    0.2812965308E-03    0.4752988641E+00
    0.2500000000E+06    0.6788208767E+00    0.2005473751E-02    0.2054944517E+00    0.2688781948E-03    0.4755172031E+00
    0.2700000000E+06    0.6789111990E+00    0.1932402754E-02    0.2054337093E+00    0.2579177741E-03    0.4757146282E+00
    0.2900000000E+06    0.6789890779E+00    0.1866952512E-02    0.2053757882E+00    0.2481522446E-03    0.4758945643E+00
    0.3100000000E+06    0.6790569278E+00    0.1807877801E-02    0.2053204641E+00    0.2393804197E-03    0.4760596794E+00
    0.3300000000E+06    0.6791165760E+00    0.1754201474E-02    0.2052675312E+00    0.2314454508E-03    0.4762120892E+00
    0.3500000000E+06    0.6791694305E+00    0.1705144444E-02    0.2052168028E+00    0.2242230198E-03    0.4763534979E+00
    0.3700000000E+06    0.6792165944E+00    0.1660076820E-02    0.2051681103E+00    0.2176131582E-03    0.4764852969E+00
    0.3900000000E+06    0.6792589437E+00    0.1618483025E-02    0.2051213016E+00    0.2115344466E-03    0.4766086356E+00
    0.4100000000E+06    0.6792971833E+00    0.1579936398E-02    0.2050762397E+00    0.2059198165E-03    0.4767244740E+00
    0.4300000000E+06    0.6793318866E+00    0.1544080377E-02    0.2050328012E+00    0.2007134580E-03    0.4768336216E+00
    0.4500000000E+06    0.6793635248E+00    0.1510614334E-02    0.2049908745E+00    0.1958685035E-03    0.4769367665E+00
    0.4700000000E+06    0.6793924891E+00    0.1479282764E-02    0.2049503588E+00    0.1913452687E-03    0.4770344986E+00
    0.4900000000E+06    0.6794191065E+00    0.1449866921E-02    0.2049111625E+00    0.1871098976E-03    0.4771273271E+00
    0.1000000000E+06    0.6769847097E+00    0.3123960912E-02    0.2060551929E+00    0.4440435309E-03    0.4728091160E+00
    0.3000000000E+06    0.6790241308E+00    0.1836684623E-02    0.2053478148E+00    0.2436528013E-03    0.4759788312E+00
    0.5000000000E+06    0.6794316229E+00    0.1435817452E-02    0.2048920329E+00    0.1850909104E-03    0.4771720428E+00
    0.7000000000E+06    0.6796074266E+00    0.1220849605E-02    0.2045620769E+00    0.1545230391E-03    0.4778911135E+00
    0.9000000000E+06    0.6797057981E+00    0.1081536477E-02    0.2043031548E+00    0.1350563648E-03    0.4783998325E+00
    0.1100000000E+07    0.6797688369E+00    0.9817825590E-03    0.2040898134E+00    0.1212971886E-03    0.4787909064E+00
    0.1300000000E+07    0.6798127713E+00    0.9057809380E-03    0.2039082350E+00    0.1109220132E-03    0.4791072769E+00
    0.1500000000E+07    0.6798451953E+00    0.8453637093E-03    0.2037500819E+00    0.1027448982E-03    0.4793722095E+00
    0.1700000000E+07    0.6798701409E+00    0.7958263286E-03    0.2036099327E+00    0.9608946768E-04    0.4795996701E+00
    0.1900000000E+07    0.6798899491E+00    0.7542415869E-03    0.2034840616E+00    0.9053832696E-04    0.4797986746E+00
    0.2100000000E+07    0.6799060737E+00    0.7186795495E-03    0.2033697966E+00    0.8581822517E-04    0.4799753687E+00
    0.2300000000E+07    0.6799194653E+00    0.6878090400E-03    0.2032651550E+00    0.8174185383E-04    0.4801341223E+00
    0.2500000000E+07    0.6799307722E+00    0.6606780178E-03    0.2031686248E+00    0.7817599140E-04    0.4802781501E+00
    0.2700000000E+07    0.6799404520E+00    0.6365850574E-03    0.2030790259E+00    0.7502297413E-04    0.4804098830E+00
    0.2900000000E+07    0.6799488368E+00    0.6150003797E-03    0.2029954197E+00    0.7220937212E-04    0.4805312025E+00
    0.3100000000E+07    0.6799561737E+00    0.5955153246E-03    0.2029170470E+00    0.6967877907E-04    0.4806435936E+00
    0.3300000000E+07    0.6799626505E+00    0.5778088983E-03    0.2028432849E+00    0.6738705962E-04    0.4807482481E+00
    0.3500000000E+07    0.6799684124E+00    0.5616249671E-03    0.2027736159E+00    0.6529912254E-04    0.4808461370E+00
    0.3700000000E+07    0.6799735733E+00    0.5467563109E-03    0.2027076056E+00    0.6338667297E-04    0.4809380608E+00
    0.3900000000E+07    0.6799782243E+00    0.5330332233E-03    0.2026448854E+00    0.6162661118E-04    0.4810246876E+00
    0.4100000000E+07    0.6799824386E+00    0.5203152011E-03    0.2025851401E+00    0.5999986907E-04    0.4811065805E+00
    0.4300000000E+07    0.6799862760E+00    0.5084847800E-03    0.2025280977E+00    0.5849054981E-04    0.4811842181E+00
    0.4500000000E+07    0.6799897860E+00    0.4974428898E-03    0.2024735224E+00    0.5708528154E-04    0.4812580106E+00
    0.4700000000E+07    0.6799930094E+00    0.4871053064E-03    0.2024212076E+00    0.5577272490E-04    0.4813283125E+00
    0.4900000000E+07    0.6799959807E+00    0.4773999059E-03    0.2023709722E+00    0.5454319297E-04    0.4813954316E+00
    0.1000000000E+07    0.6797404164E+00    0.1027961558E-02    0.2041918239E+00    0.1276473106E-03    0.4786067345E+00
    0.3000000000E+07    0.6799526233E+00    0.6050172081E-03    0.2029556209E+00    0.7091170190E-04    0.4805884337E+00
    0.5000000000E+07    0.6799973811E+00    0.4727645055E-03    0.2023465835E+00    0.5395691159E-04    0.4814278832E+00
    0.7000000000E+07    0.6800173041E+00    0.4018476001E-03    0.2019372811E+00    0.4506868987E-04    0.4819604848E+00
    0.9000000000E+07    0.6800287231E+00    0.3559027091E-03    0.2016281524E+00    0.3939877357E-04    0.4823495022E+00
    0.1100000000E+08    0.6800361889E+00    0.3230139520E-03    0.2013795160E+00    0.3538785100E-04    0.4826553777E+00
    0.1300000000E+08    0.6800414835E+00    0.2979627323E-03    0.2011714496E+00    0.3236195050E-04    0.4829070996E+00
    0.1500000000E+08    0.6800454520E+00    0.2780527430E-03    0.2009925101E+00    0.2997641738E-04    0.4831207872E+00
    0.1700000000E+08    0.6800485484E+00    0.2617312210E-03    0.2008355102E+00    0.2803445023E-04    0.4833063181E+00
    0.1900000000E+08    0.6800510389E+00    0.2480321929E-03    0.2006956371E+00    0.2641450384E-04    0.4834701776E+00
    0.2100000000E+08    0.6800530905E+00    0.2363188925E-03    0.2005695086E+00    0.2503696212E-04    0.4836168500E+00
    0.2300000000E+08    0.6800548133E+00    0.2261521803E-03    0.2004546564E+00    0.2384722671E-04    0.4837495635E+00
    0.2500000000E+08    0.6800562830E+00    0.2172180364E-03    0.2003492235E+00    0.2280645270E-04    0.4838707186E+00
    0.2700000000E+08    0.6800575535E+00    0.2092851360E-03    0.2002517777E+00    0.2188615622E-04    0.4839821478E+00
