  Pressure (Pa) 22mC5-400 (mol/kg) 2mC6-400 (mol/kg) 3mC6-400 (mol/kg) 33mC5-400 (mol/kg) C7-400 (mol/kg)
    0.1000000000E+01    0.1586823463E-02    0.4745286259E-02    0.2624293296E-02    0.2575869849E-03    0.3406819995E-02
    0.3000000000E+01    0.4693292021E-02    0.1379427110E-01    0.7646122033E-02    0.7488782193E-03    0.9927366677E-02
    0.5000000000E+01    0.7714177974E-02    0.2229676180E-01    0.1238795006E-01    0.1210613844E-02    0.1608596276E-01
    0.7000000000E+01    0.1065396403E-01    0.3029850871E-01    0.1687386139E-01    0.1645268897E-02    0.2191369836E-01
    0.9000000000E+01    0.1351681404E-01    0.3784026240E-01    0.2112522049E-01    0.2055047692E-02    0.2743815544E-01
    0.1100000000E+02    0.1630660116E-01    0.4495844565E-01    0.2516104711E-01    0.2441920234E-02    0.3268389115E-01
    0.1300000000E+02    0.1902693302E-01    0.5168571897E-01    0.2899833081E-01    0.2807652862E-02    0.3767284327E-01
    0.1500000000E+02    0.2168117439E-01    0.5805145890E-01    0.3265229594E-01    0.3153834164E-02    0.4242467208E-01
    0.1700000000E+02    0.2427246748E-01    0.6408216453E-01    0.3613662620E-01    0.3481896998E-02    0.4695704985E-01
    0.1900000000E+02    0.2680375027E-01    0.6980180456E-01    0.3946365570E-01    0.3793137292E-02    0.5128590726E-01
    0.2100000000E+02    0.2927777300E-01    0.7523211489E-01    0.4264453214E-01    0.4088730160E-02    0.5542564396E-01
    0.2300000000E+02    0.3169711319E-01    0.8039285483E-01    0.4568935695E-01    0.4369743778E-02    0.5938930917E-01
    0.2500000000E+02    0.3406418907E-01    0.8530202853E-01    0.4860730586E-01    0.4637151372E-02    0.6318875735E-01
    0.2700000000E+02    0.3638127193E-01    0.8997607701E-01    0.5140673318E-01    0.4891841616E-02    0.6683478267E-01
    0.2900000000E+02    0.3865049722E-01    0.9443004539E-01    0.5409526232E-01    0.5134627683E-02    0.7033723574E-01
    0.3100000000E+02    0.4087387470E-01    0.9867772887E-01    0.5667986442E-01    0.5366255152E-02    0.7370512518E-01
    0.3300000000E+02    0.4305329769E-01    0.1027318007E+00    0.5916692721E-01    0.5587408926E-02    0.7694670631E-01
    0.3500000000E+02    0.4519055151E-01    0.1066039244E+00    0.6156231510E-01    0.5798719318E-02    0.8006955883E-01
    0.3700000000E+02    0.4728732115E-01    0.1103048533E+00    0.6387142215E-01    0.6000767413E-02    0.8308065506E-01
    0.3900000000E+02    0.4934519838E-01    0.1138445173E+00    0.6609921859E-01    0.6194089799E-02    0.8598642002E-01
    0.4100000000E+02    0.5136568813E-01    0.1172321014E+00    0.6825029196E-01    0.6379182774E-02    0.8879278455E-01
    0.4300000000E+02    0.5335021452E-01    0.1204761136E+00    0.7032888354E-01    0.6556506060E-02    0.9150523228E-01
    0.4500000000E+02    0.5530012619E-01    0.1235844471E+00    0.7233892067E-01    0.6726486134E-02    0.9412884134E-01
    0.4700000000E+02    0.5721670142E-01    0.1265644345E+00    0.7428404550E-01    0.6889519180E-02    0.9666832152E-01
    0.4900000000E+02    0.5910115264E-01    0.1294228970E+00    0.7616764061E-01    0.7045973742E-02    0.9912804731E-01
    0.1000000000E+02    0.1492060904E-01    0.4145017686E-01    0.2316896925E-01    0.2251232399E-02    0.3009443525E-01
    0.3000000000E+02    0.3976779598E-01    0.9657885575E-01    0.5540014209E-01    0.5251792089E-02    0.7203746826E-01
    0.5000000000E+02    0.6003169371E-01    0.1308085591E+00    0.7708735630E-01    0.7121842293E-02    0.1003292850E+00
    0.7000000000E+02    0.7720685969E-01    0.1534742884E+00    0.9290938981E-01    0.8365836615E-02    0.1210181390E+00
    0.9000000000E+02    0.9217942020E-01    0.1691115436E+00    0.1051025167E+00    0.9228820403E-02    0.1369973130E+00
    0.1100000000E+03    0.1055110969E+00    0.1801891386E+00    0.1148768760E+00    0.9844195760E-02    0.1498337493E+00
    0.1300000000E+03    0.1175770252E+00    0.1881631625E+00    0.1229478462E+00    0.1029067218E-01    0.1604544772E+00
    0.1500000000E+03    0.1286384303E+00    0.1939454737E+00    0.1297673351E+00    0.1061757018E-01    0.1694455512E+00
    0.1700000000E+03    0.1388835635E+00    0.1981343910E+00    0.1356359652E+00    0.1085727761E-01    0.1771971218E+00
    0.1900000000E+03    0.1484520303E+00    0.2011374709E+00    0.1407621858E+00    0.1103187807E-01    0.1839799131E+00
    0.2100000000E+03    0.1574499076E+00    0.2032409847E+00    0.1452955322E+00    0.1115690162E-01    0.1899882735E+00
    0.2300000000E+03    0.1659594960E+00    0.2046512360E+00    0.1493463655E+00    0.1124355550E-01    0.1953657373E+00
    0.2500000000E+03    0.1740458173E+00    0.2055201685E+00    0.1529981174E+00    0.1130010676E-01    0.2002208902E+00
    0.2700000000E+03    0.1817610654E+00    0.2059617970E+00    0.1563151770E+00    0.1133276970E-01    0.2046375902E+00
    0.2900000000E+03    0.1891477304E+00    0.2060630709E+00    0.1593481339E+00    0.1134629270E-01    0.2086817677E+00
    0.3100000000E+03    0.1962408393E+00    0.2058912421E+00    0.1621373635E+00    0.1134435642E-01    0.2124060758E+00
    0.3300000000E+03    0.2030695932E+00    0.2054989783E+00    0.1647155374E+00    0.1132985019E-01    0.2158531490E+00
    0.3500000000E+03    0.2096585849E+00    0.2049279820E+00    0.1671094203E+00    0.1130506779E-01    0.2190579357E+00
    0.3700000000E+03    0.2160287181E+00    0.2042115973E+00    0.1693411799E+00    0.1127184850E-01    0.2220493996E+00
    0.3900000000E+03    0.2221979112E+00    0.2033767194E+00    0.1714293588E+00    0.1123168049E-01    0.2248517832E+00
    0.4100000000E+03    0.2281816422E+00    0.2024452110E+00    0.1733896063E+00    0.1118577759E-01    0.2274855585E+00
    0.4300000000E+03    0.2339933768E+00    0.2014349692E+00    0.1752352372E+00    0.1113513709E-01    0.2299681544E+00
    0.4500000000E+03    0.2396449075E+00    0.2003607367E+00    0.1769776644E+00    0.1108058379E-01    0.2323145187E+00
    0.4700000000E+03    0.2451466240E+00    0.1992347262E+00    0.1786267370E+00    0.1102280392E-01    0.2345375585E+00
    0.4900000000E+03    0.2505077332E+00    0.1980671058E+00    0.1801910071E+00    0.1096237146E-01    0.2366484880E+00
    0.1000000000E+03    0.9902360992E-01    0.1751126978E+00    0.1102392779E+00    0.9561643636E-02    0.1437400143E+00
    0.3000000000E+03    0.1927290337E+00    0.2060077091E+00    0.1607710160E+00    0.1134706045E-01    0.2105810370E+00
    0.5000000000E+03    0.2531381579E+00    0.1974704056E+00    0.1809437127E+00    0.1093131440E-01    0.2376650225E+00
    0.7000000000E+03    0.2999608896E+00    0.1848134327E+00    0.1929451762E+00    0.1025474969E-01    0.2539479732E+00
    0.9000000000E+03    0.3384515124E+00    0.1724997432E+00    0.2012660247E+00    0.9575205914E-02    0.2653311928E+00
    0.1100000000E+04    0.3709472044E+00    0.1613649486E+00    0.2075271043E+00    0.8947222213E-02    0.2739562825E+00
    0.1300000000E+04    0.3987945662E+00    0.1514931019E+00    0.2124856808E+00    0.8380950531E-02    0.2808284399E+00
    0.1500000000E+04    0.4228945295E+00    0.1427821953E+00    0.2165530914E+00    0.7874334389E-02    0.2864959037E+00
    0.1700000000E+04    0.4439052743E+00    0.1350903937E+00    0.2199761853E+00    0.7421858899E-02    0.2912888876E+00
    0.1900000000E+04    0.4623333617E+00    0.1282787108E+00    0.2229140114E+00    0.7017342066E-02    0.2954208641E+00
    0.2100000000E+04    0.4785811537E+00    0.1222231443E+00    0.2254746612E+00    0.6654884966E-02    0.2990373571E+00
    0.2300000000E+04    0.4929746593E+00    0.1168168928E+00    0.2277347116E+00    0.6329177063E-02    0.3022417559E+00
    0.2500000000E+04    0.5057815443E+00    0.1119692969E+00    0.2297502515E+00    0.6035558731E-02    0.3051099877E+00
    0.2700000000E+04    0.5172236612E+00    0.1076038281E+00    0.2315635004E+00    0.5769991002E-02    0.3076993472E+00
    0.2900000000E+04    0.5274862305E+00    0.1036559646E+00    0.2332069726E+00    0.5528992654E-02    0.3100540605E+00
    0.3100000000E+04    0.5367248146E+00    0.1000712493E+00    0.2347061970E+00    0.5309569686E-02    0.3122089285E+00
    0.3300000000E+04    0.5450707441E+00    0.9680361193E-01    0.2360815545E+00    0.5109147509E-02    0.3141917924E+00
    0.3500000000E+04    0.5526354121E+00    0.9381395716E-01    0.2373495530E+00    0.4925509836E-02    0.3160252468E+00
    0.3700000000E+04    0.5595137115E+00    0.9106899348E-01    0.2385237335E+00    0.4756745322E-02    0.3177278610E+00
    0.3900000000E+04    0.5657868116E+00    0.8854026644E-01    0.2396153294E+00    0.4601201799E-02    0.3193150668E+00
    0.4100000000E+04    0.5715244158E+00    0.8620336338E-01    0.2406337524E+00    0.4457447391E-02    0.3207998165E+00
    0.4300000000E+04    0.5767866065E+00    0.8403725903E-01    0.2415869593E+00    0.4324237664E-02    0.3221930782E+00
    0.4500000000E+04    0.5816253625E+00    0.8202377661E-01    0.2424817317E+00    0.4200487944E-02    0.3235042147E+00
    0.4700000000E+04    0.5860858097E+00    0.8014714295E-01    0.2433238915E+00    0.4085250008E-02    0.3247412766E+00
    0.4900000000E+04    0.5902072583E+00    0.7839362038E-01    0.2441184704E+00    0.3977692460E-02    0.3259112321E+00
    0.1000000000E+04    0.3553503962E+00    0.1667722584E+00    0.2045951947E+00    0.9253666617E-02    0.2699104920E+00
    0.3000000000E+04    0.5322247997E+00    0.1018212716E+00    0.2339732384E+00    0.5416754236E-02    0.3111545949E+00
    0.5000000000E+04    0.5921517673E+00    0.7755921306E-01    0.2444993069E+00    0.3926561838E-02    0.3264729723E+00
    0.7000000000E+04    0.6196365424E+00    0.6509695862E-01    0.2504320221E+00    0.3169661208E-02    0.3353165468E+00
    0.9000000000E+04    0.6347782405E+00    0.5737277496E-01    0.2543779192E+00    0.2711624689E-02    0.3413139932E+00
    0.1100000000E+05    0.6441693451E+00    0.5201448614E-01    0.2572473011E+00    0.2402004497E-02    0.3457490801E+00
    0.1300000000E+05    0.6504875075E+00    0.4801795362E-01    0.2594548701E+00    0.2176655173E-02    0.3492127671E+00
    0.1500000000E+05    0.6549956087E+00    0.4488537278E-01    0.2612208503E+00    0.2003887409E-02    0.3520217197E+00
    0.1700000000E+05    0.6583576728E+00    0.4234059886E-01    0.2626746726E+00    0.1866277233E-02    0.3543635576E+00
    0.1900000000E+05    0.6609527294E+00    0.4021716166E-01    0.2638981318E+00    0.1753441100E-02    0.3563577274E+00
    0.2100000000E+05    0.6630114405E+00    0.3840811515E-01    0.2649458255E+00    0.1658792593E-02    0.3580845060E+00
    0.2300000000E+05    0.6646815583E+00    0.3684123080E-01    0.2658557908E+00    0.1577941323E-02    0.3596001805E+00
    0.2500000000E+05    0.6660617754E+00    0.3546572626E-01    0.2666554565E+00    0.1507840415E-02    0.3609455852E+00
    0.2700000000E+05    0.6672203525E+00    0.3424470162E-01    0.2673651705E+00    0.1446303781E-02    0.3621511869E+00
    0.2900000000E+05    0.6682059120E+00    0.3315059838E-01    0.2680003908E+00    0.1391718498E-02    0.3632402574E+00
    0.3100000000E+05    0.6690539706E+00    0.3216235193E-01    0.2685731002E+00    0.1342865938E-02    0.3642309309E+00
    0.3300000000E+05    0.6697910429E+00    0.3126353912E-01    0.2690927505E+00    0.1298806396E-02    0.3651375837E+00
    0.3500000000E+05    0.6704373025E+00    0.3044113434E-01    0.2695669112E+00    0.1258802297E-02    0.3659717845E+00
    0.3700000000E+05    0.6710083572E+00    0.2968465118E-01    0.2700017254E+00    0.1222265675E-02    0.3667429659E+00
    0.3900000000E+05    0.6715164631E+00    0.2898553582E-01    0.2704022377E+00    0.1188721362E-02    0.3674589085E+00
    0.4100000000E+05    0.6719713722E+00    0.2833672916E-01    0.2707726342E+00    0.1157780658E-02    0.3681260978E+00
    0.4300000000E+05    0.6723809373E+00    0.2773234481E-01    0.2711164220E+00    0.1129122118E-02    0.3687499897E+00
    0.4500000000E+05    0.6727515496E+00    0.2716742831E-01    0.2714365640E+00    0.1102477305E-02    0.3693352129E+00
    0.4700000000E+05    0.6730884620E+00    0.2663777442E-01    0.2717355830E+00    0.1077620062E-02    0.3698857246E+00
    0.4900000000E+05    0.6733960302E+00    0.2613978649E-01    0.2720156421E+00    0.1054358321E-02    0.3704049308E+00
    0.1000000000E+05    0.6399762422E+00    0.5447801381E-01    0.2559147396E+00    0.2543381418E-02    0.3436807330E+00
    0.3000000000E+05    0.6686452973E+00    0.3264436141E-01    0.2682939180E+00    0.1366639851E-02    0.3637469199E+00
    0.5000000000E+05    0.6735399719E+00    0.2590168226E-01    0.2721491552E+00    0.1043273473E-02    0.3706537322E+00
    0.7000000000E+05    0.6755124415E+00    0.2223457133E-01    0.2741667835E+00    0.8755713127E-03    0.3745317986E+00
    0.9000000000E+05    0.6765722439E+00    0.1982964786E-01    0.2754396168E+00    0.7686251190E-03    0.3771256092E+00
    0.1100000000E+06    0.6772325681E+00    0.1809139491E-01    0.2763267864E+00    0.6928035642E-03    0.3790291454E+00
    0.1300000000E+06    0.6776831060E+00    0.1675702874E-01    0.2769850675E+00    0.6354400492E-03    0.3805093848E+00
    0.1500000000E+06    0.6780100075E+00    0.1568970152E-01    0.2774950052E+00    0.5900852617E-03    0.3817070423E+00
    0.1700000000E+06    0.6782579812E+00    0.1481002914E-01    0.2779026692E+00    0.5530616947E-03    0.3827044854E+00
    0.1900000000E+06    0.6784525175E+00    0.1406830362E-01    0.2782365074E+00    0.5220979671E-03    0.3835536709E+00
    0.2100000000E+06    0.6786092054E+00    0.1343156664E-01    0.2785151282E+00    0.4957050371E-03    0.3842892665E+00
    0.2300000000E+06    0.6787381114E+00    0.1287697051E-01    0.2787512634E+00    0.4728605273E-03    0.3849354409E+00
    0.2500000000E+06    0.6788460247E+00    0.1238810105E-01    0.2789539448E+00    0.4528360199E-03    0.3855096465E+00
    0.2700000000E+06    0.6789376896E+00    0.1195281574E-01    0.2791297727E+00    0.4350965800E-03    0.3860248557E+00
    0.2900000000E+06    0.6790165216E+00    0.1156190964E-01    0.2792836919E+00    0.4192393119E-03    0.3864909464E+00
    0.3100000000E+06    0.6790850416E+00    0.1120825842E-01    0.2794194858E+00    0.4049542022E-03    0.3869155966E+00
    0.3300000000E+06    0.6791451509E+00    0.1088624886E-01    0.2795401027E+00    0.3919982839E-03    0.3873048800E+00
    0.3500000000E+06    0.6791983105E+00    0.1059138927E-01    0.2796478762E+00    0.3801780756E-03    0.3876636756E+00
    0.3700000000E+06    0.6792456614E+00    0.1032003624E-01    0.2797446796E+00    0.3693373342E-03    0.3879959559E+00
    0.3900000000E+06    0.6792881079E+00    0.1006919873E-01    0.2798320350E+00    0.3593483203E-03    0.3883049938E+00
    0.4100000000E+06    0.6793263757E+00    0.9836394798E-02    0.2799111928E+00    0.3501054441E-03    0.3885935147E+00
    0.4300000000E+06    0.6793610541E+00    0.9619545111E-02    0.2799831904E+00    0.3415205610E-03    0.3888638095E+00
    0.4500000000E+06    0.6793926264E+00    0.9416892495E-02    0.2800488961E+00    0.3335194336E-03    0.3891178207E+00
    0.4700000000E+06    0.6794214929E+00    0.9226940331E-02    0.2801090424E+00    0.3260390324E-03    0.3893572079E+00
    0.4900000000E+06    0.6794479880E+00    0.9048404781E-02    0.2801642520E+00    0.3190254513E-03    0.3895833994E+00
    0.1000000000E+06    0.6769368053E+00    0.1889787212E-01    0.2759190251E+00    0.7278277165E-03    0.3781427265E+00
    0.3000000000E+06    0.6790519397E+00    0.1138080816E-01    0.2793536536E+00    0.4119167567E-03    0.3867080399E+00
    0.5000000000E+06    0.6794604360E+00    0.8963065832E-02    0.2801901751E+00    0.3156789587E-03    0.3896919398E+00
    0.7000000000E+06    0.6796344548E+00    0.7651868632E-02    0.2805457958E+00    0.2647654262E-03    0.3913986315E+00
    0.9000000000E+06    0.6797310375E+00    0.6796663510E-02    0.2807260201E+00    0.2321013189E-03    0.3925597701E+00
    0.1100000000E+07    0.6797925464E+00    0.6181650753E-02    0.2808235565E+00    0.2089013433E-03    0.3934250282E+00
    0.1300000000E+07    0.6798351949E+00    0.5711585156E-02    0.2808762478E+00    0.1913453872E-03    0.3941071905E+00
    0.1500000000E+07    0.6798665301E+00    0.5336981551E-02    0.2809023763E+00    0.1774711433E-03    0.3946660494E+00
    0.1700000000E+07    0.6798905426E+00    0.5029220032E-02    0.2809118032E+00    0.1661541435E-03    0.3951368160E+00
    0.1900000000E+07    0.6799095412E+00    0.4770434913E-02    0.2809102782E+00    0.1566979013E-03    0.3955418347E+00
    0.2100000000E+07    0.6799249553E+00    0.4548815664E-02    0.2809013542E+00    0.1486450861E-03    0.3958961026E+00
    0.2300000000E+07    0.6799377172E+00    0.4356197625E-02    0.2808873266E+00    0.1416814207E-03    0.3962101341E+00
    0.2500000000E+07    0.6799484611E+00    0.4186730270E-02    0.2808697320E+00    0.1355829026E-03    0.3964915640E+00
    0.2700000000E+07    0.6799576336E+00    0.4036095930E-02    0.2808496286E+00    0.1301850144E-03    0.3967460972E+00
    0.2900000000E+07    0.6799655581E+00    0.3901028689E-02    0.2808277619E+00    0.1253638619E-03    0.3969780999E+00
    0.3100000000E+07    0.6799724750E+00    0.3779005967E-02    0.2808046676E+00    0.1210241376E-03    0.3971909829E+00
    0.3300000000E+07    0.6799785663E+00    0.3668043985E-02    0.2807807363E+00    0.1170911724E-03    0.3973874571E+00
    0.3500000000E+07    0.6799839728E+00    0.3566558105E-02    0.2807562567E+00    0.1135055295E-03    0.3975697101E+00
    0.3700000000E+07    0.6799888047E+00    0.3473265054E-02    0.2807314439E+00    0.1102192337E-03    0.3977395312E+00
    0.3900000000E+07    0.6799931498E+00    0.3387112930E-02    0.2807064601E+00    0.1071930807E-03    0.3978984007E+00
    0.4100000000E+07    0.6799970788E+00    0.3307230122E-02    0.2806814277E+00    0.1043946801E-03    0.3980475565E+00
    0.4300000000E+07    0.6800006493E+00    0.3232887384E-02    0.2806564397E+00    0.1017970065E-03    0.3981880435E+00
    0.4500000000E+07    0.6800039087E+00    0.3163469227E-02    0.2806315668E+00    0.9937731001E-04    0.3983207509E+00
    0.4700000000E+07    0.6800068963E+00    0.3098452048E-02    0.2806068626E+00    0.9711628512E-04    0.3984464416E+00
    0.4900000000E+07    0.6800096452E+00    0.3037387189E-02    0.2805823678E+00    0.9499742889E-04    0.3985657743E+00
    0.1000000000E+07    0.6797648578E+00    0.6466633895E-02    0.2807820836E+00    0.2196201881E-03    0.3930205540E+00
    0.3000000000E+07    0.6799691300E+00    0.3838521492E-02    0.2808163410E+00    0.1231388987E-03    0.3970867480E+00
    0.5000000000E+07    0.6800109389E+00    0.3008213843E-02    0.2805702087E+00    0.9398679745E-04    0.3986232384E+00
    0.7000000000E+07    0.6800292012E+00    0.2561227889E-02    0.2803420982E+00    0.7864192420E-04    0.3995452728E+00
    0.9000000000E+07    0.6800395134E+00    0.2270961408E-02    0.2801431193E+00    0.6882973761E-04    0.4001947144E+00
    0.1100000000E+08    0.6800461712E+00    0.2062842901E-02    0.2799687866E+00    0.6187708694E-04    0.4006920000E+00
    0.1300000000E+08    0.6800508411E+00    0.1904126693E-02    0.2798141948E+00    0.5662540794E-04    0.4010929000E+00
    0.1500000000E+08    0.6800543069E+00    0.1777861815E-02    0.2796754769E+00    0.5248108432E-04    0.4014275946E+00
    0.1700000000E+08    0.6800569870E+00    0.1674272190E-02    0.2795497127E+00    0.4910465114E-04    0.4017141728E+00
    0.1900000000E+08    0.6800591250E+00    0.1587268967E-02    0.2794346887E+00    0.4628620383E-04    0.4019642927E+00
    0.2100000000E+08    0.6800608728E+00    0.1512834476E-02    0.2793287021E+00    0.4388811218E-04    0.4021858877E+00
    0.2300000000E+08    0.6800623301E+00    0.1448195668E-02    0.2792304204E+00    0.4181591442E-04    0.4023845898E+00
    0.2500000000E+08    0.6800635651E+00    0.1391368164E-02    0.2791387839E+00    0.4000235541E-04    0.4025645353E+00
    0.2700000000E+08    0.6800646260E+00    0.1340889233E-02    0.2790529369E+00    0.3839808753E-04    0.4027288472E+00
