  Pressure (Pa) 22mC5-400 (mol/kg) 2mC6-400 (mol/kg) 3mC6-400 (mol/kg) 33mC5-400 (mol/kg) C7-400 (mol/kg)
    0.1000000000E+01    0.1592938647E-02    0.7873495305E-03    0.2604247401E-02    0.2564706334E-03    0.1183329442E-01
    0.3000000000E+01    0.4746824493E-02    0.2270127415E-02    0.7477995505E-02    0.7397581649E-03    0.3398604982E-01
    0.5000000000E+01    0.7858877500E-02    0.3642840627E-02    0.1195154263E-01    0.1187556416E-02    0.5432864733E-01
    0.7000000000E+01    0.1093005750E-01    0.4918364340E-02    0.1607253895E-01    0.1604034687E-02    0.7307627347E-01
    0.9000000000E+01    0.1396129447E-01    0.6107573623E-02    0.1988134643E-01    0.1992712323E-02    0.9041122716E-01
    0.1100000000E+02    0.1695348967E-01    0.7219717981E-02    0.2341238144E-01    0.2356580661E-02    0.1064889756E+00
    0.1300000000E+02    0.1990751672E-01    0.8262715063E-02    0.2669517123E-01    0.2698198626E-02    0.1214429194E+00
    0.1500000000E+02    0.2282422272E-01    0.9243383115E-02    0.2975519278E-01    0.3019768376E-02    0.1353881768E+00
    0.1700000000E+02    0.2570442915E-01    0.1016762655E-01    0.3261454465E-01    0.3323195660E-02    0.1484246146E+00
    0.1900000000E+02    0.2854893291E-01    0.1104058523E-01    0.3529248939E-01    0.3610138373E-02    0.1606392957E+00
    0.2100000000E+02    0.3135850719E-01    0.1186675556E-01    0.3780589467E-01    0.3882045900E-02    0.1721084692E+00
    0.2300000000E+02    0.3413390236E-01    0.1265008919E-01    0.4016959456E-01    0.4140191215E-02    0.1828992011E+00
    0.2500000000E+02    0.3687584679E-01    0.1339407425E-01    0.4239668727E-01    0.4385697252E-02    0.1930707176E+00
    0.2700000000E+02    0.3958504766E-01    0.1410180242E-01    0.4449878209E-01    0.4619558681E-02    0.2026755199E+00
    0.2900000000E+02    0.4226219174E-01    0.1477602465E-01    0.4648620532E-01    0.4842660014E-02    0.2117603136E+00
    0.3100000000E+02    0.4490794609E-01    0.1541919784E-01    0.4836817290E-01    0.5055790728E-02    0.2203667883E+00
    0.3300000000E+02    0.4752295877E-01    0.1603352394E-01    0.5015293593E-01    0.5259657958E-02    0.2285322741E+00
    0.3500000000E+02    0.5010785954E-01    0.1662098301E-01    0.5184790386E-01    0.5454897218E-02    0.2362902978E+00
    0.3700000000E+02    0.5266326045E-01    0.1718336126E-01    0.5345974927E-01    0.5642081478E-02    0.2436710566E+00
    0.3900000000E+02    0.5518975652E-01    0.1772227491E-01    0.5499449735E-01    0.5821728899E-02    0.2507018213E+00
    0.4100000000E+02    0.5768792628E-01    0.1823919059E-01    0.5645760266E-01    0.5994309434E-02    0.2574072840E+00
    0.4300000000E+02    0.6015833235E-01    0.1873544287E-01    0.5785401526E-01    0.6160250508E-02    0.2638098555E+00
    0.4500000000E+02    0.6260152199E-01    0.1921224938E-01    0.5918823774E-01    0.6319941893E-02    0.2699299242E+00
    0.4700000000E+02    0.6501802764E-01    0.1967072381E-01    0.6046437479E-01    0.6473739938E-02    0.2757860789E+00
    0.4900000000E+02    0.6740836737E-01    0.2011188729E-01    0.6168617624E-01    0.6621971224E-02    0.2813953042E+00
    0.1000000000E+02    0.1546221705E-01    0.6672755832E-02    0.2167963620E-01    0.2177578558E-02    0.9859844582E-01
    0.3000000000E+02    0.4358895169E-01    0.1510134920E-01    0.4743983430E-01    0.4950425707E-02    0.2161209125E+00
    0.5000000000E+02    0.6859388312E-01    0.2032627368E-01    0.6227778527E-01    0.6694094044E-02    0.2841122293E+00
    0.7000000000E+02    0.9104643492E-01    0.2389739577E-01    0.7195367485E-01    0.7905699586E-02    0.3286422317E+00
    0.9000000000E+02    0.1113812913E+00    0.2646010411E-01    0.7877660398E-01    0.8791321114E-02    0.3601771416E+00
    0.1100000000E+03    0.1299361142E+00    0.2834446145E-01    0.8385415309E-01    0.9456150565E-02    0.3837445369E+00
    0.1300000000E+03    0.1469772926E+00    0.2974351766E-01    0.8778470173E-01    0.9961742183E-02    0.4020645687E+00
    0.1500000000E+03    0.1627179199E+00    0.3078098752E-01    0.9092027304E-01    0.1034763374E-01    0.4167398115E+00
    0.1700000000E+03    0.1773305989E+00    0.3154139297E-01    0.9348168825E-01    0.1064093534E-01    0.4287770050E+00
    0.1900000000E+03    0.1909567260E+00    0.3208520174E-01    0.9561459519E-01    0.1086112960E-01    0.4388411286E+00
    0.2100000000E+03    0.2037133330E+00    0.3245717266E-01    0.9741901462E-01    0.1102271211E-01    0.4473895033E+00
    0.2300000000E+03    0.2156982033E+00    0.3269130604E-01    0.9896595010E-01    0.1113675589E-01    0.4547472428E+00
    0.2500000000E+03    0.2269937485E+00    0.3281395641E-01    0.1003072248E+00    0.1121189505E-01    0.4611519781E+00
    0.2700000000E+03    0.2376699822E+00    0.3284588352E-01    0.1014815650E+00    0.1125497330E-01    0.4667815392E+00
    0.2900000000E+03    0.2477868262E+00    0.3280365567E-01    0.1025185028E+00    0.1127148819E-01    0.4717717299E+00
    0.3100000000E+03    0.2573959187E+00    0.3270064012E-01    0.1034409592E+00    0.1126590525E-01    0.4762281031E+00
    0.3300000000E+03    0.2665420444E+00    0.3254772003E-01    0.1042670015E+00    0.1124188586E-01    0.4802339774E+00
    0.3500000000E+03    0.2752642759E+00    0.3235382464E-01    0.1050110671E+00    0.1120245614E-01    0.4838560262E+00
    0.3700000000E+03    0.2835968929E+00    0.3212632844E-01    0.1056848343E+00    0.1115013445E-01    0.4871482567E+00
    0.3900000000E+03    0.2915701274E+00    0.3187135640E-01    0.1062978535E+00    0.1108702924E-01    0.4901548968E+00
    0.4100000000E+03    0.2992107722E+00    0.3159402044E-01    0.1068580117E+00    0.1101491497E-01    0.4929125236E+00
    0.4300000000E+03    0.3065426818E+00    0.3129860486E-01    0.1073718813E+00    0.1093529191E-01    0.4954516587E+00
    0.4500000000E+03    0.3135871864E+00    0.3098871310E-01    0.1078449836E+00    0.1084943359E-01    0.4977979778E+00
    0.4700000000E+03    0.3203634371E+00    0.3066738511E-01    0.1082819912E+00    0.1075842491E-01    0.4999732414E+00
    0.4900000000E+03    0.3268886945E+00    0.3033719189E-01    0.1086868861E+00    0.1066319287E-01    0.5019960180E+00
    0.1000000000E+03    0.1208631282E+00    0.2747286620E-01    0.8148837122E-01    0.9146806059E-02    0.3727514856E+00
    0.3000000000E+03    0.2526518963E+00    0.3275901490E-01    0.1029928146E+00    0.1127121348E-01    0.4740609901E+00
    0.5000000000E+03    0.3300621383E+00    0.3016946521E-01    0.1088783777E+00    0.1061424590E-01    0.5029552958E+00
    0.7000000000E+03    0.3834660289E+00    0.2672896288E-01    0.1116414882E+00    0.9555173328E-02    0.5170340963E+00
    0.9000000000E+03    0.4231627500E+00    0.2356934735E-01    0.1132435301E+00    0.8523427465E-02    0.5254901106E+00
    0.1100000000E+04    0.4539749586E+00    0.2087549175E-01    0.1142859099E+00    0.7611511463E-02    0.5311832565E+00
    0.1300000000E+04    0.4785976300E+00    0.1862256698E-01    0.1150155632E+00    0.6828435622E-02    0.5353039119E+00
    0.1500000000E+04    0.4987042279E+00    0.1674254031E-01    0.1155527848E+00    0.6161162944E-02    0.5384395896E+00
    0.1700000000E+04    0.5154065587E+00    0.1516713184E-01    0.1159632427E+00    0.5592307994E-02    0.5409150829E+00
    0.1900000000E+04    0.5294784357E+00    0.1383815723E-01    0.1162858387E+00    0.5105445839E-02    0.5429251743E+00
    0.2100000000E+04    0.5414771342E+00    0.1270858413E-01    0.1165450865E+00    0.4686497673E-02    0.5445940814E+00
    0.2300000000E+04    0.5518147536E+00    0.1174108873E-01    0.1167571988E+00    0.4323832691E-02    0.5460049258E+00
    0.2500000000E+04    0.5608026429E+00    0.1090618651E-01    0.1169333243E+00    0.4007979293E-02    0.5472155263E+00
    0.2700000000E+04    0.5686802944E+00    0.1018054439E-01    0.1170813797E+00    0.3731256789E-02    0.5482674049E+00
    0.2900000000E+04    0.5756347879E+00    0.9545607948E-02    0.1172071395E+00    0.3487431938E-02    0.5491911871E+00
    0.3100000000E+04    0.5818142448E+00    0.8986529417E-02    0.1173149132E+00    0.3271429079E-02    0.5500099809E+00
    0.3300000000E+04    0.5873373503E+00    0.8491344250E-02    0.1174079808E+00    0.3079095558E-02    0.5507415663E+00
    0.3500000000E+04    0.5923002282E+00    0.8050341939E-02    0.1174888819E+00    0.2907015459E-02    0.5513998588E+00
    0.3700000000E+04    0.5967814871E+00    0.7655585017E-02    0.1175596128E+00    0.2752362833E-02    0.5519959134E+00
    0.3900000000E+04    0.6008459818E+00    0.7300540082E-02    0.1176217636E+00    0.2612786284E-02    0.5525386294E+00
    0.4100000000E+04    0.6045476533E+00    0.6979793284E-02    0.1176766158E+00    0.2486318093E-02    0.5530352562E+00
    0.4300000000E+04    0.6079316997E+00    0.6688829612E-02    0.1177252136E+00    0.2371302440E-02    0.5534917619E+00
    0.4500000000E+04    0.6110362538E+00    0.6423860572E-02    0.1177684158E+00    0.2266338462E-02    0.5539131068E+00
    0.4700000000E+04    0.6138936928E+00    0.6181688750E-02    0.1178069350E+00    0.2170234867E-02    0.5543034498E+00
    0.4900000000E+04    0.6165316695E+00    0.5959600657E-02    0.1178413671E+00    0.2081973565E-02    0.5546663050E+00
    0.1000000000E+04    0.4394789475E+00    0.2216379845E-01    0.1138148729E+00    0.8051043080E-02    0.5285869082E+00
    0.3000000000E+04    0.5788133794E+00    0.9257393605E-02    0.1172630494E+00    0.3376231536E-02    0.5496124913E+00
    0.5000000000E+04    0.6177759145E+00    0.5855351003E-02    0.1178572105E+00    0.2040505651E-02    0.5548383772E+00
    0.7000000000E+04    0.6354470793E+00    0.4410197531E-02    0.1180478959E+00    0.1464716076E-02    0.5573734868E+00
    0.9000000000E+04    0.6454078509E+00    0.3622999852E-02    0.1181139623E+00    0.1153176958E-02    0.5589221212E+00
    0.1100000000E+05    0.6517662745E+00    0.3127334399E-02    0.1181290780E+00    0.9600476797E-03    0.5599888515E+00
    0.1300000000E+05    0.6561652658E+00    0.2784711514E-02    0.1181201839E+00    0.8290960788E-03    0.5607800330E+00
    0.1500000000E+05    0.6593847269E+00    0.2532139489E-02    0.1180990820E+00    0.7345185872E-03    0.5613969960E+00
    0.1700000000E+05    0.6618407420E+00    0.2337064213E-02    0.1180715706E+00    0.6629502628E-03    0.5618958187E+00
    0.1900000000E+05    0.6637749717E+00    0.2181015429E-02    0.1180407286E+00    0.6068232540E-03    0.5623102820E+00
    0.2100000000E+05    0.6653371419E+00    0.2052740579E-02    0.1180082815E+00    0.5615489616E-03    0.5626620688E+00
    0.2300000000E+05    0.6666248594E+00    0.1944989471E-02    0.1179752324E+00    0.5241904527E-03    0.5629658009E+00
    0.2500000000E+05    0.6677044236E+00    0.1852874942E-02    0.1179421779E+00    0.4927835983E-03    0.5632317355E+00
    0.2700000000E+05    0.6686224211E+00    0.1772978060E-02    0.1179094763E+00    0.4659662936E-03    0.5634673049E+00
    0.2900000000E+05    0.6694125312E+00    0.1702831634E-02    0.1178773413E+00    0.4427646705E-03    0.5636780419E+00
    0.3100000000E+05    0.6700996983E+00    0.1640607827E-02    0.1178458971E+00    0.4224641070E-03    0.5638681605E+00
    0.3300000000E+05    0.6707027873E+00    0.1584921595E-02    0.1178152115E+00    0.4045283382E-03    0.5640409338E+00
    0.3500000000E+05    0.6712363258E+00    0.1534702722E-02    0.1177853160E+00    0.3885470211E-03    0.5641989478E+00
    0.3700000000E+05    0.6717116817E+00    0.1489110028E-02    0.1177562188E+00    0.3742007473E-03    0.5643442761E+00
    0.3900000000E+05    0.6721378765E+00    0.1447472343E-02    0.1177279134E+00    0.3612370999E-03    0.5644786037E+00
    0.4100000000E+05    0.6725221604E+00    0.1409246968E-02    0.1177003838E+00    0.3494538955E-03    0.5646033158E+00
    0.4300000000E+05    0.6728704261E+00    0.1373989828E-02    0.1176736082E+00    0.3386872197E-03    0.5647195633E+00
    0.4500000000E+05    0.6731875121E+00    0.1341333656E-02    0.1176475614E+00    0.3288027304E-03    0.5648283111E+00
    0.4700000000E+05    0.6734774281E+00    0.1310971771E-02    0.1176222164E+00    0.3196892325E-03    0.5649303754E+00
    0.4900000000E+05    0.6737435250E+00    0.1282645835E-02    0.1175975455E+00    0.3112538622E-03    0.5650264522E+00
    0.1000000000E+05    0.6489046489E+00    0.3350051802E-02    0.1181256669E+00    0.1046395629E-02    0.5594991954E+00
    0.3000000000E+05    0.6697676849E+00    0.1670824592E-02    0.1178615276E+00    0.4322887330E-03    0.5637754553E+00
    0.5000000000E+05    0.6738685408E+00    0.1269176490E-02    0.1175854541E+00    0.3072655486E-03    0.5650724351E+00
    0.7000000000E+05    0.6756157286E+00    0.1067404992E-02    0.1173727036E+00    0.2493009886E-03    0.5657865628E+00
    0.9000000000E+05    0.6765845850E+00    0.9403158395E-03    0.1172017914E+00    0.2145127810E-03    0.5662651386E+00
    0.1100000000E+06    0.6772010330E+00    0.8507207432E-03    0.1170592956E+00    0.1907798760E-03    0.5666195863E+00
    0.1300000000E+06    0.6776281005E+00    0.7831155884E-03    0.1169371802E+00    0.1732983373E-03    0.5668985111E+00
    0.1500000000E+06    0.6779416469E+00    0.7297221346E-03    0.1168303546E+00    0.1597469544E-03    0.5671271094E+00
    0.1700000000E+06    0.6781817614E+00    0.6861470992E-03    0.1167354121E+00    0.1488523674E-03    0.5673199929E+00
    0.1900000000E+06    0.6783716282E+00    0.6496944816E-03    0.1166499668E+00    0.1398512587E-03    0.5674863335E+00
    0.2100000000E+06    0.6785255906E+00    0.6186048811E-03    0.1165722849E+00    0.1322550201E-03    0.5676322382E+00
    0.2300000000E+06    0.6786530001E+00    0.5916742286E-03    0.1165010676E+00    0.1257346595E-03    0.5677619642E+00
    0.2500000000E+06    0.6787602154E+00    0.5680466946E-03    0.1164353170E+00    0.1200595688E-03    0.5678785890E+00
    0.2700000000E+06    0.6788517117E+00    0.5470948707E-03    0.1163742497E+00    0.1150627213E-03    0.5679844053E+00
    0.2900000000E+06    0.6789307305E+00    0.5283468153E-03    0.1163172400E+00    0.1106198063E-03    0.5680811635E+00
    0.3100000000E+06    0.6789996775E+00    0.5114397218E-03    0.1162637795E+00    0.1066361580E-03    0.5681702289E+00
    0.3300000000E+06    0.6790603760E+00    0.4960894332E-03    0.1162134504E+00    0.1030382564E-03    0.5682526854E+00
    0.3500000000E+06    0.6791142335E+00    0.4820697673E-03    0.1161659042E+00    0.9976802680E-04    0.5683294072E+00
    0.3700000000E+06    0.6791623534E+00    0.4691981243E-03    0.1161208479E+00    0.9677890937E-04    0.5684011090E+00
    0.3900000000E+06    0.6792056136E+00    0.4573252380E-03    0.1160780326E+00    0.9403308468E-04    0.5684683819E+00
    0.4100000000E+06    0.6792447209E+00    0.4463277292E-03    0.1160372448E+00    0.9149947440E-04    0.5685317206E+00
    0.4300000000E+06    0.6792802512E+00    0.4361025978E-03    0.1159983004E+00    0.8915227329E-04    0.5685915426E+00
    0.4500000000E+06    0.6793126781E+00    0.4265630844E-03    0.1159610391E+00    0.8696985366E-04    0.5686482035E+00
    0.4700000000E+06    0.6793423950E+00    0.4176355154E-03    0.1159253210E+00    0.8493393545E-04    0.5687020083E+00
    0.4900000000E+06    0.6793697312E+00    0.4092568667E-03    0.1158910227E+00    0.8302894915E-04    0.5687532210E+00
    0.1000000000E+06    0.6769236021E+00    0.8920662654E-03    0.1171275837E+00    0.2016512764E-03    0.5664540455E+00
    0.3000000000E+06    0.6789663376E+00    0.5196824718E-03    0.1162900941E+00    0.1085755870E-03    0.5681265844E+00
    0.5000000000E+06    0.6793825951E+00    0.4052561276E-03    0.1158743714E+00    0.8212130705E-04    0.5687779281E+00
    0.7000000000E+06    0.6795640269E+00    0.3441228676E-03    0.1155949836E+00    0.6841408682E-04    0.5691787504E+00
    0.9000000000E+06    0.6796663332E+00    0.3045832025E-03    0.1153841122E+00    0.5971674718E-04    0.5694665028E+00
    0.1100000000E+07    0.6797323164E+00    0.2763080109E-03    0.1152146278E+00    0.5358330226E-04    0.5696901745E+00
    0.1300000000E+07    0.6797785622E+00    0.2547857995E-03    0.1150728945E+00    0.4896560071E-04    0.5698727196E+00
    0.1500000000E+07    0.6798128648E+00    0.2376893719E-03    0.1149510773E+00    0.4533044980E-04    0.5700266949E+00
    0.1700000000E+07    0.6798393778E+00    0.2236799981E-03    0.1148442555E+00    0.4237447524E-04    0.5701597003E+00
    0.1900000000E+07    0.6798605209E+00    0.2119255210E-03    0.1147491345E+00    0.3991079696E-04    0.5702766771E+00
    0.2100000000E+07    0.6798778009E+00    0.2018777238E-03    0.1146633997E+00    0.3781724366E-04    0.5703810150E+00
    0.2300000000E+07    0.6798922060E+00    0.1931587207E-03    0.1145853624E+00    0.3601016422E-04    0.5704751378E+00
    0.2500000000E+07    0.6799044120E+00    0.1854984030E-03    0.1145137526E+00    0.3443011867E-04    0.5705608376E+00
    0.2700000000E+07    0.6799148966E+00    0.1786978616E-03    0.1144475909E+00    0.3303356690E-04    0.5706394758E+00
    0.2900000000E+07    0.6799240079E+00    0.1726069266E-03    0.1143861062E+00    0.3178779522E-04    0.5707121106E+00
    0.3100000000E+07    0.6799320052E+00    0.1671098037E-03    0.1143286804E+00    0.3066768928E-04    0.5707795804E+00
    0.3300000000E+07    0.6799390857E+00    0.1621155701E-03    0.1142748106E+00    0.2965360872E-04    0.5708425604E+00
    0.3500000000E+07    0.6799454026E+00    0.1575516971E-03    0.1142240818E+00    0.2872994524E-04    0.5709016024E+00
    0.3700000000E+07    0.6799510762E+00    0.1533595232E-03    0.1141761477E+00    0.2788411892E-04    0.5709571632E+00
    0.3900000000E+07    0.6799562026E+00    0.1494910191E-03    0.1141307164E+00    0.2710586355E-04    0.5710096246E+00
    0.4100000000E+07    0.6799608597E+00    0.1459064298E-03    0.1140875396E+00    0.2638670770E-04    0.5710593096E+00
    0.4300000000E+07    0.6799651108E+00    0.1425725264E-03    0.1140464039E+00    0.2571959115E-04    0.5711064931E+00
    0.4500000000E+07    0.6799690085E+00    0.1394612894E-03    0.1140071251E+00    0.2509857684E-04    0.5711514118E+00
    0.4700000000E+07    0.6799725964E+00    0.1365489024E-03    0.1139695428E+00    0.2451863152E-04    0.5711942702E+00
    0.4900000000E+07    0.6799759111E+00    0.1338149748E-03    0.1139335166E+00    0.2397545655E-04    0.5712352465E+00
    0.1000000000E+07    0.6797025201E+00    0.2893936335E-03    0.1152952377E+00    0.5641261694E-04    0.5695845682E+00
    0.3000000000E+07    0.6799281323E+00    0.1697903167E-03    0.1143569197E+00    0.3121337035E-04    0.5707464456E+00
    0.5000000000E+07    0.6799774760E+00    0.1325093450E-03    0.1139160477E+00    0.2371648236E-04    0.5712550785E+00
    0.7000000000E+07    0.6799999536E+00    0.1125447418E-03    0.1136248176E+00    0.1979273579E-04    0.5715823954E+00
    0.9000000000E+07    0.6800130698E+00    0.9962106704E-04    0.1134070174E+00    0.1729215820E-04    0.5718235457E+00
    0.1100000000E+08    0.6800217736E+00    0.9037552386E-04    0.1132329934E+00    0.1552445665E-04    0.5720143011E+00
    0.1300000000E+08    0.6800280259E+00    0.8333658716E-04    0.1130880710E+00    0.1419158232E-04    0.5721719943E+00
    0.1500000000E+08    0.6800327653E+00    0.7774442693E-04    0.1129639055E+00    0.1314123322E-04    0.5723063369E+00
    0.1700000000E+08    0.6800365007E+00    0.7316168152E-04    0.1128552949E+00    0.1228649346E-04    0.5724233154E+00
    0.1900000000E+08    0.6800395327E+00    0.6931637784E-04    0.1127587766E+00    0.1157370860E-04    0.5725268796E+00
    0.2100000000E+08    0.6800420514E+00    0.6602929374E-04    0.1126719289E+00    0.1096774702E-04    0.5726197717E+00
    0.2300000000E+08    0.6800441829E+00    0.6317686721E-04    0.1125929919E+00    0.1044452464E-04    0.5727039727E+00
    0.2500000000E+08    0.6800460143E+00    0.6067076485E-04    0.1125206459E+00    0.9986911466E-05    0.5727809600E+00
    0.2700000000E+08    0.6800476081E+00    0.5844593058E-04    0.1124538763E+00    0.9582349880E-05    0.5728518648E+00
