  Pressure (Pa) 22mC5-400 (mol/kg) 2mC6-400 (mol/kg) 3mC6-400 (mol/kg) 33mC5-400 (mol/kg) C7-400 (mol/kg)
    0.1000000000E+01    0.1585507203E-02    0.5544187880E-02    0.2104131352E-02    0.3224391940E-03    0.1707200202E-02
    0.3000000000E+01    0.4681907463E-02    0.1616123836E-01    0.6156927280E-02    0.9399515025E-03    0.4995988816E-02
    0.5000000000E+01    0.7683761565E-02    0.2619075198E-01    0.1001583288E-01    0.1523350126E-02    0.8128107026E-02
    0.7000000000E+01    0.1059657799E-01    0.3567748211E-01    0.1369548526E-01    0.2075233317E-02    0.1111536693E-01
    0.9000000000E+01    0.1342542975E-01    0.4466178739E-01    0.1720906046E-01    0.2597944113E-02    0.1396840234E-01
    0.1100000000E+02    0.1617499704E-01    0.5318015797E-01    0.2056845231E-01    0.3093600906E-02    0.1669681298E-01
    0.1300000000E+02    0.1884960502E-01    0.6126566782E-01    0.2378442561E-01    0.3564123713E-02    0.1930928798E-01
    0.1500000000E+02    0.2145325725E-01    0.6894836486E-01    0.2686674782E-01    0.4011256843E-02    0.2181371199E-01
    0.1700000000E+02    0.2398966540E-01    0.7625560879E-01    0.2982430265E-01    0.4436588515E-02    0.2421725680E-01
    0.1900000000E+02    0.2646227574E-01    0.8321236459E-01    0.3266518845E-01    0.4841567907E-02    0.2652646069E-01
    0.2100000000E+02    0.2887429274E-01    0.8984145834E-01    0.3539680371E-01    0.5227520010E-02    0.2874729730E-01
    0.2300000000E+02    0.3122870019E-01    0.9616380092E-01    0.3802592161E-01    0.5595658626E-02    0.3088523578E-01
    0.2500000000E+02    0.3352828016E-01    0.1021985842E+00    0.4055875514E-01    0.5947097754E-02    0.3294529332E-01
    0.2700000000E+02    0.3577563002E-01    0.1079634536E+00    0.4300101432E-01    0.6282861616E-02    0.3493208126E-01
    0.2900000000E+02    0.3797317769E-01    0.1134746602E+00    0.4535795645E-01    0.6603893489E-02    0.3684984564E-01
    0.3100000000E+02    0.4012319551E-01    0.1187471954E+00    0.4763443045E-01    0.6911063521E-02    0.3870250294E-01
    0.3300000000E+02    0.4222781263E-01    0.1237949101E+00    0.4983491610E-01    0.7205175655E-02    0.4049367173E-01
    0.3500000000E+02    0.4428902635E-01    0.1286306206E+00    0.5196355879E-01    0.7486973782E-02    0.4222670072E-01
    0.3700000000E+02    0.4630871229E-01    0.1332662032E+00    0.5402420043E-01    0.7757147223E-02    0.4390469366E-01
    0.3900000000E+02    0.4828863369E-01    0.1377126784E+00    0.5602040693E-01    0.8016335618E-02    0.4553053156E-01
    0.4100000000E+02    0.5023044986E-01    0.1419802859E+00    0.5795549282E-01    0.8265133302E-02    0.4710689248E-01
    0.4300000000E+02    0.5213572381E-01    0.1460785526E+00    0.5983254317E-01    0.8504093226E-02    0.4863626926E-01
    0.4500000000E+02    0.5400592930E-01    0.1500163532E+00    0.6165443335E-01    0.8733730479E-02    0.5012098547E-01
    0.4700000000E+02    0.5584245722E-01    0.1538019645E+00    0.6342384666E-01    0.8954525454E-02    0.5156320959E-01
    0.4900000000E+02    0.5764662144E-01    0.1574431147E+00    0.6514329033E-01    0.9166926708E-02    0.5296496797E-01
    0.1000000000E+02    0.1480984572E-01    0.4897707218E-01    0.1890733168E-01    0.2849029891E-02    0.1534762267E-01
    0.3000000000E+02    0.3905399154E-01    0.1161398707E+00    0.4650596375E-01    0.6759159513E-02    0.3778407987E-01
    0.5000000000E+02    0.5853695801E-01    0.1592117930E+00    0.6598501246E-01    0.9270111797E-02    0.5365126972E-01
    0.7000000000E+02    0.7491315318E-01    0.1885265804E+00    0.8069232951E-01    0.1098168143E-01    0.6565402933E-01
    0.9000000000E+02    0.8912369065E-01    0.2093049816E+00    0.9233162375E-01    0.1219689573E-01    0.7516978542E-01
    0.1100000000E+03    0.1017473551E+00    0.2244586733E+00    0.1018665506E+00    0.1308477654E-01    0.8297814921E-01
    0.1300000000E+03    0.1131619356E+00    0.2357337673E+00    0.1098859364E+00    0.1374670631E-01    0.8955578808E-01
    0.1500000000E+03    0.1236258880E+00    0.2442373999E+00    0.1167714560E+00    0.1424698642E-01    0.9521186316E-01
    0.1700000000E+03    0.1333228833E+00    0.2507032875E+00    0.1227823268E+00    0.1462824654E-01    0.1001564671E+00
    0.1900000000E+03    0.1423876148E+00    0.2556354766E+00    0.1281013851E+00    0.1491978584E-01    0.1045378716E+00
    0.2100000000E+03    0.1509215016E+00    0.2593907203E+00    0.1328616926E+00    0.1514235293E-01    0.1084640440E+00
    0.2300000000E+03    0.1590026469E+00    0.2622279493E+00    0.1371626693E+00    0.1531101666E-01    0.1120156988E+00
    0.2500000000E+03    0.1666923771E+00    0.2643391752E+00    0.1410802856E+00    0.1543695946E-01    0.1152545461E+00
    0.2700000000E+03    0.1740396673E+00    0.2658694509E+00    0.1446737285E+00    0.1552863584E-01    0.1182286879E+00
    0.2900000000E+03    0.1810842150E+00    0.2669301420E+00    0.1479898937E+00    0.1559254271E-01    0.1209762571E+00
    0.3100000000E+03    0.1878586248E+00    0.2676079735E+00    0.1510664937E+00    0.1563374459E-01    0.1235279346E+00
    0.3300000000E+03    0.1943899934E+00    0.2679713375E+00    0.1539342569E+00    0.1565623985E-01    0.1259087320E+00
    0.3500000000E+03    0.2007010796E+00    0.2680747754E+00    0.1566185160E+00    0.1566322099E-01    0.1281392792E+00
    0.3700000000E+03    0.2068111827E+00    0.2679622217E+00    0.1591403762E+00    0.1565726309E-01    0.1302367713E+00
    0.3900000000E+03    0.2127368116E+00    0.2676693865E+00    0.1615175876E+00    0.1564046221E-01    0.1322156772E+00
    0.4100000000E+03    0.2184922012E+00    0.2672255322E+00    0.1637652077E+00    0.1561453868E-01    0.1340882765E+00
    0.4300000000E+03    0.2240897152E+00    0.2666548151E+00    0.1658961098E+00    0.1558091504E-01    0.1358650722E+00
    0.4500000000E+03    0.2295401651E+00    0.2659773097E+00    0.1679213789E+00    0.1554077565E-01    0.1375551124E+00
    0.4700000000E+03    0.2348530639E+00    0.2652098001E+00    0.1698506225E+00    0.1549511271E-01    0.1391662427E+00
    0.4900000000E+03    0.2400368307E+00    0.2643663975E+00    0.1716922180E+00    0.1544476218E-01    0.1407053072E+00
    0.1000000000E+03    0.9560676342E-01    0.2174564287E+00    0.9731908178E-01    0.1267429320E-01    0.7925254704E-01
    0.3000000000E+03    0.1845033799E+00    0.2673122707E+00    0.1495560762E+00    0.1561571036E-01    0.1222749033E+00
    0.5000000000E+03    0.2425826629E+00    0.2639200370E+00    0.1725824789E+00    0.1541805468E-01    0.1414497200E+00
    0.7000000000E+03    0.2881748793E+00    0.2531021733E+00    0.1871723722E+00    0.1476273890E-01    0.1536883965E+00
    0.9000000000E+03    0.3260647354E+00    0.2413326944E+00    0.1977885506E+00    0.1403736252E-01    0.1626430444E+00
    0.1100000000E+04    0.3583628771E+00    0.2301198139E+00    0.2060982834E+00    0.1333644334E-01    0.1696835759E+00
    0.1300000000E+04    0.3862806042E+00    0.2198398935E+00    0.2129026079E+00    0.1268613877E-01    0.1754703837E+00
    0.1500000000E+04    0.4106290957E+00    0.2105387238E+00    0.2186475458E+00    0.1209181684E-01    0.1803722516E+00
    0.1700000000E+04    0.4320041728E+00    0.2021565813E+00    0.2236068815E+00    0.1155170639E-01    0.1846161364E+00
    0.1900000000E+04    0.4508683276E+00    0.1946028930E+00    0.2279607464E+00    0.1106158490E-01    0.1883517051E+00
    0.2100000000E+04    0.4675927113E+00    0.1877832528E+00    0.2318339683E+00    0.1061657176E-01    0.1916828914E+00
    0.2300000000E+04    0.4824813664E+00    0.1816092987E+00    0.2353166080E+00    0.1021184936E-01    0.1946848244E+00
    0.2500000000E+04    0.4957866921E+00    0.1760019104E+00    0.2384757690E+00    0.9842947529E-02    0.1974135808E+00
    0.2700000000E+04    0.5077201313E+00    0.1708917036E+00    0.2413627834E+00    0.9505838835E-02    0.1999121270E+00
    0.2900000000E+04    0.5184600056E+00    0.1662184468E+00    0.2440177889E+00    0.9196949855E-02    0.2022141100E+00
    0.3100000000E+04    0.5281575012E+00    0.1619300970E+00    0.2464727579E+00    0.8913135766E-02    0.2043463696E+00
    0.3300000000E+04    0.5369413717E+00    0.1579817583E+00    0.2487535659E+00    0.8651640467E-02    0.2063306563E+00
    0.3500000000E+04    0.5449217032E+00    0.1543346927E+00    0.2508814452E+00    0.8410052859E-02    0.2081848399E+00
    0.3700000000E+04    0.5521929674E+00    0.1509554307E+00    0.2528740290E+00    0.8186264311E-02    0.2099237783E+00
    0.3900000000E+04    0.5588365180E+00    0.1478149964E+00    0.2547461181E+00    0.7978429485E-02    0.2115599569E+00
    0.4100000000E+04    0.5649226469E+00    0.1448882425E+00    0.2565102543E+00    0.7784931353E-02    0.2131039666E+00
    0.4300000000E+04    0.5705122848E+00    0.1421532847E+00    0.2581771550E+00    0.7604350483E-02    0.2145648670E+00
    0.4500000000E+04    0.5756584142E+00    0.1395910224E+00    0.2597560492E+00    0.7435438365E-02    0.2159504670E+00
    0.4700000000E+04    0.5804072481E+00    0.1371847354E+00    0.2612549390E+00    0.7277094394E-02    0.2172675437E+00
    0.4900000000E+04    0.5847992156E+00    0.1349197424E+00    0.2626808062E+00    0.7128346071E-02    0.2185220155E+00
    0.1000000000E+04    0.3428242869E+00    0.2356207915E+00    0.2021699334E+00    0.1368144646E-01    0.1663516788E+00
    0.3000000000E+04    0.5234305260E+00    0.1640291200E+00    0.2452685373E+00    0.9052089306E-02    0.2032999926E+00
    0.5000000000E+04    0.5868726334E+00    0.1338361290E+00    0.2633683007E+00    0.7057297171E-02    0.2191274240E+00
    0.7000000000E+04    0.6162455156E+00    0.1171416136E+00    0.2744429870E+00    0.5976107405E-02    0.2289332469E+00
    0.9000000000E+04    0.6324459389E+00    0.1062110857E+00    0.2822280545E+00    0.5288173792E-02    0.2358941034E+00
    0.1100000000E+05    0.6424773405E+00    0.9829715203E-01    0.2881290560E+00    0.4803801516E-02    0.2412141287E+00
    0.1300000000E+05    0.6492089766E+00    0.9218873808E-01    0.2928215750E+00    0.4439114791E-02    0.2454754404E+00
    0.1500000000E+05    0.6539985505E+00    0.8726475578E-01    0.2966796943E+00    0.4151413837E-02    0.2490019469E+00
    0.1700000000E+05    0.6575605124E+00    0.8317026800E-01    0.2999309116E+00    0.3916593117E-02    0.2519914825E+00
    0.1900000000E+05    0.6603024928E+00    0.7968554052E-01    0.3027231950E+00    0.3719941368E-02    0.2545732224E+00
    0.2100000000E+05    0.6624722868E+00    0.7666598872E-01    0.3051577920E+00    0.3551922073E-02    0.2568358702E+00
    0.2300000000E+05    0.6642283939E+00    0.7401182743E-01    0.3073067899E+00    0.3406050188E-02    0.2588427906E+00
    0.2500000000E+05    0.6656765160E+00    0.7165150880E-01    0.3092231844E+00    0.3277741557E-02    0.2606407103E+00
    0.2700000000E+05    0.6668896397E+00    0.6953210705E-01    0.3109469772E+00    0.3163650644E-02    0.2622650019E+00
    0.2900000000E+05    0.6679196661E+00    0.6761344511E-01    0.3125090382E+00    0.3061269818E-02    0.2637430374E+00
    0.3100000000E+05    0.6688044438E+00    0.6586435138E-01    0.3139336430E+00    0.2968676493E-02    0.2650963982E+00
    0.3300000000E+05    0.6695721822E+00    0.6426018723E-01    0.3152401941E+00    0.2884367773E-02    0.2663423764E+00
    0.3500000000E+05    0.6702443105E+00    0.6278116275E-01    0.3164444203E+00    0.2807148937E-02    0.2674950232E+00
    0.3700000000E+05    0.6708373830E+00    0.6141115881E-01    0.3175592320E+00    0.2736056209E-02    0.2685658987E+00
    0.3900000000E+05    0.6713643797E+00    0.6013688394E-01    0.3185953436E+00    0.2670302002E-02    0.2695646177E+00
    0.4100000000E+05    0.6718356143E+00    0.5894725838E-01    0.3195617350E+00    0.2609235283E-02    0.2704992556E+00
    0.4300000000E+05    0.6722593804E+00    0.5783295608E-01    0.3204659993E+00    0.2552312363E-02    0.2713766548E+00
    0.4500000000E+05    0.6726424195E+00    0.5678605847E-01    0.3213146085E+00    0.2499075000E-02    0.2722026592E+00
    0.4700000000E+05    0.6729902656E+00    0.5579978909E-01    0.3221131191E+00    0.2449133751E-02    0.2729822955E+00
    0.4900000000E+05    0.6733075018E+00    0.5486830736E-01    0.3228663332E+00    0.2402155142E-02    0.2737199163E+00
    0.1000000000E+05    0.6380011950E+00    0.1019727397E+00    0.2853618990E+00    0.5027178239E-02    0.2387143385E+00
    0.3000000000E+05    0.6683782613E+00    0.6671937250E-01    0.3132372118E+00    0.3013851974E-02    0.2644341349E+00
    0.5000000000E+05    0.6734558622E+00    0.5442150202E-01    0.3232272805E+00    0.2379685412E-02    0.2740741750E+00
    0.7000000000E+05    0.6754813845E+00    0.4742223821E-01    0.3288447313E+00    0.2033060011E-02    0.2796610278E+00
    0.9000000000E+05    0.6765630331E+00    0.4271085186E-01    0.3325753488E+00    0.1805298657E-02    0.2834628030E+00
    0.1100000000E+06    0.6772341275E+00    0.3924514661E-01    0.3352855786E+00    0.1640569202E-02    0.2862831693E+00
    0.1300000000E+06    0.6776905759E+00    0.3655009179E-01    0.3373693603E+00    0.1514118386E-02    0.2884924004E+00
    0.1500000000E+06    0.6780209491E+00    0.3437261120E-01    0.3390355619E+00    0.1413014690E-02    0.2902890732E+00
    0.1700000000E+06    0.6782710521E+00    0.3256334609E-01    0.3404067897E+00    0.1329739790E-02    0.2917909469E+00
    0.1900000000E+06    0.6784669275E+00    0.3102748528E-01    0.3415604527E+00    0.1259578254E-02    0.2930730633E+00
    0.2100000000E+06    0.6786244652E+00    0.2970145661E-01    0.3425481821E+00    0.1199399831E-02    0.2941859058E+00
    0.2300000000E+06    0.6787539059E+00    0.2854077278E-01    0.3434059277E+00    0.1147032636E-02    0.2951649072E+00
    0.2500000000E+06    0.6788621448E+00    0.2751321433E-01    0.3441596008E+00    0.1100915364E-02    0.2960357990E+00
    0.2700000000E+06    0.6789539934E+00    0.2659477868E-01    0.3448284164E+00    0.1059892506E-02    0.2968177993E+00
    0.2900000000E+06    0.6790329107E+00    0.2576715720E-01    0.3454269671E+00    0.1023087841E-02    0.2975256028E+00
    0.3100000000E+06    0.6791014472E+00    0.2501610135E-01    0.3459665623E+00    0.9898230736E-03    0.2981706716E+00
    0.3300000000E+06    0.6791615243E+00    0.2433032915E-01    0.3464561208E+00    0.9595637313E-03    0.2987621015E+00
    0.3500000000E+06    0.6792146171E+00    0.2370077233E-01    0.3469027841E+00    0.9318821249E-03    0.2993072192E+00
    0.3700000000E+06    0.6792618767E+00    0.2312004518E-01    0.3473123470E+00    0.9064313538E-03    0.2998120043E+00
    0.3900000000E+06    0.6793042145E+00    0.2258206173E-01    0.3476895675E+00    0.8829266584E-03    0.3002813941E+00
    0.4100000000E+06    0.6793423615E+00    0.2208175455E-01    0.3480383938E+00    0.8611317832E-03    0.3007195076E+00
    0.4300000000E+06    0.6793769108E+00    0.2161486472E-01    0.3483621331E+00    0.8408488325E-03    0.3011298131E+00
    0.4500000000E+06    0.6794083487E+00    0.2117778252E-01    0.3486635794E+00    0.8219106060E-03    0.3015152561E+00
    0.4700000000E+06    0.6794370777E+00    0.2076742503E-01    0.3489451117E+00    0.8041747296E-03    0.3018783564E+00
    0.4900000000E+06    0.6794634335E+00    0.2038114082E-01    0.3492087694E+00    0.7875191028E-03    0.3022212852E+00
    0.1000000000E+06    0.6769338343E+00    0.4085941545E-01    0.3340271862E+00    0.1717001395E-02    0.2849667852E+00
    0.3000000000E+06    0.6790683442E+00    0.2538282309E-01    0.3457035289E+00    0.1006049246E-02    0.2978553631E+00
    0.5000000000E+06    0.6794758116E+00    0.2019629685E-01    0.3493344550E+00    0.7795628754E-03    0.3023857835E+00
    0.7000000000E+06    0.6796485164E+00    0.1733968443E-01    0.3512329198E+00    0.6577863333E-03    0.3049653335E+00
    0.9000000000E+06    0.6797440329E+00    0.1545958377E-01    0.3524292935E+00    0.5789267438E-03    0.3067094290E+00
    0.1100000000E+07    0.6798046916E+00    0.1409915064E-01    0.3532621609E+00    0.5225608344E-03    0.3080008902E+00
    0.1300000000E+07    0.6798466492E+00    0.1305456792E-01    0.3538793334E+00    0.4797079185E-03    0.3090129075E+00
    0.1500000000E+07    0.6798774108E+00    0.1221912862E-01    0.3543567517E+00    0.4457183676E-03    0.3098372754E+00
    0.1700000000E+07    0.6799009379E+00    0.1153075729E-01    0.3547378505E+00    0.4179118473E-03    0.3105279917E+00
    0.1900000000E+07    0.6799195192E+00    0.1095052291E-01    0.3550494491E+00    0.3946202869E-03    0.3111192690E+00
    0.2100000000E+07    0.6799345694E+00    0.1045258999E-01    0.3553090878E+00    0.3747441102E-03    0.3116340282E+00
    0.2300000000E+07    0.6799470103E+00    0.1001904025E-01    0.3555287663E+00    0.3575252053E-03    0.3120883081E+00
    0.2500000000E+07    0.6799574683E+00    0.9636998036E-02    0.3557169953E+00    0.3424216981E-03    0.3124937308E+00
    0.2700000000E+07    0.6799663840E+00    0.9296937928E-02    0.3558799930E+00    0.3290346342E-03    0.3128589626E+00
    0.2900000000E+07    0.6799740761E+00    0.8991639239E-02    0.3560224169E+00    0.3170629180E-03    0.3131906229E+00
    0.3100000000E+07    0.6799807813E+00    0.8715513982E-02    0.3561478296E+00    0.3062744794E-03    0.3134938716E+00
    0.3300000000E+07    0.6799866789E+00    0.8464160068E-02    0.3562590067E+00    0.2964871860E-03    0.3137728013E+00
    0.3500000000E+07    0.6799919069E+00    0.8234055581E-02    0.3563581443E+00    0.2875558317E-03    0.3140307084E+00
    0.3700000000E+07    0.6799965738E+00    0.8022344291E-02    0.3564470050E+00    0.2793630428E-03    0.3142702832E+00
    0.3900000000E+07    0.6800007657E+00    0.7826681848E-02    0.3565270203E+00    0.2718127779E-03    0.3144937478E+00
    0.4100000000E+07    0.6800045519E+00    0.7645123348E-02    0.3565993660E+00    0.2648255919E-03    0.3147029562E+00
    0.4300000000E+07    0.6800079890E+00    0.7476039718E-02    0.3566650170E+00    0.2583351244E-03    0.3148994707E+00
    0.4500000000E+07    0.6800111232E+00    0.7318054568E-02    0.3567247892E+00    0.2522854547E-03    0.3150846186E+00
    0.4700000000E+07    0.6800139931E+00    0.7169995839E-02    0.3567793708E+00    0.2466290826E-03    0.3152595360E+00
    0.4900000000E+07    0.6800166311E+00    0.7030858315E-02    0.3568293463E+00    0.2413253664E-03    0.3154252029E+00
    0.1000000000E+07    0.6797774048E+00    0.1473042196E-01    0.3528794892E+00    0.5486400318E-03    0.3073981803E+00
    0.3000000000E+07    0.6799775398E+00    0.8850228733E-02    0.3560870605E+00    0.3115331670E-03    0.3133455216E+00
    0.5000000000E+07    0.6800178717E+00    0.6964359128E-02    0.3568527659E+00    0.2387946229E-03    0.3155048375E+00
    0.7000000000E+07    0.6800353082E+00    0.5943262524E-02    0.3571696914E+00    0.2002862959E-03    0.3167695505E+00
    0.9000000000E+07    0.6800450723E+00    0.5277914775E-02    0.3573242551E+00    0.1755787721E-03    0.3176448586E+00
    0.1100000000E+08    0.6800513310E+00    0.4799745150E-02    0.3574029729E+00    0.1580307839E-03    0.3183059686E+00
    0.1300000000E+08    0.6800556928E+00    0.4434440146E-02    0.3574409829E+00    0.1447527669E-03    0.3188330050E+00
    0.1500000000E+08    0.6800589113E+00    0.4143423021E-02    0.3574551687E+00    0.1342600903E-03    0.3192688759E+00
    0.1700000000E+08    0.6800613868E+00    0.3904397632E-02    0.3574545835E+00    0.1257019538E-03    0.3196390677E+00
    0.1900000000E+08    0.6800633518E+00    0.3703453222E-02    0.3574444723E+00    0.1185513792E-03    0.3199598763E+00
    0.2100000000E+08    0.6800649508E+00    0.3531397760E-02    0.3574280531E+00    0.1124623500E-03    0.3202423125E+00
    0.2300000000E+08    0.6800662782E+00    0.3381879070E-02    0.3574073895E+00    0.1071970961E-03    0.3204941432E+00
    0.2500000000E+08    0.6800673984E+00    0.3250346793E-02    0.3573838511E+00    0.1025861543E-03    0.3207210392E+00
    0.2700000000E+08    0.6800683570E+00    0.3133443670E-02    0.3573583720E+00    0.9850507071E-04    0.3209272597E+00
