  Pressure (Pa) 22mC5-400 (mol/kg) 2mC6-400 (mol/kg) 3mC6-400 (mol/kg) 33mC5-400 (mol/kg) C7-400 (mol/kg)
    0.1000000000E+01    0.2122532247E-02    0.7854990442E-03    0.2598215704E-02    0.1279360856E-03    0.1349259573E-01
    0.3000000000E+01    0.6316815189E-02    0.2254796338E-02    0.7428456000E-02    0.3674004890E-03    0.3858516260E-01
    0.5000000000E+01    0.1044489404E-01    0.3603466662E-02    0.1182544892E-01    0.5874136532E-03    0.6143809347E-01
    0.7000000000E+01    0.1450851752E-01    0.4846728188E-02    0.1584522983E-01    0.7904394041E-03    0.8234059549E-01
    0.9000000000E+01    0.1850937198E-01    0.5997249816E-02    0.1953455889E-01    0.9785273740E-03    0.1015340431E+00
    0.1100000000E+02    0.2244908415E-01    0.7065665611E-02    0.2293276448E-01    0.1153396751E-02    0.1192214796E+00
    0.1300000000E+02    0.2632922373E-01    0.8060969847E-02    0.2607316365E-01    0.1316500570E-02    0.1355749405E+00
    0.1500000000E+02    0.3015130585E-01    0.8990823673E-02    0.2898416888E-01    0.1469075599E-02    0.1507411591E+00
    0.1700000000E+02    0.3391679344E-01    0.9861795587E-02    0.3169015891E-01    0.1612181454E-02    0.1648460564E+00
    0.1900000000E+02    0.3762709943E-01    0.1067955174E-01    0.3421217039E-01    0.1746731530E-02    0.1779983080E+00
    0.2100000000E+02    0.4128358887E-01    0.1144900788E-01    0.3656845194E-01    0.1873517693E-02    0.1902922013E+00
    0.2300000000E+02    0.4488758093E-01    0.1217445154E-01    0.3877491147E-01    0.1993230135E-02    0.2018099424E+00
    0.2500000000E+02    0.4844035082E-01    0.1285964116E-01    0.4084548008E-01    0.2106473462E-02    0.2126235334E+00
    0.2700000000E+02    0.5194313157E-01    0.1350788699E-01    0.4279241005E-01    0.2213779821E-02    0.2227963094E+00
    0.2900000000E+02    0.5539711579E-01    0.1412211753E-01    0.4462652055E-01    0.2315619686E-02    0.2323842061E+00
    0.3100000000E+02    0.5880345732E-01    0.1470493443E-01    0.4635740139E-01    0.2412410764E-02    0.2414368112E+00
    0.3300000000E+02    0.6216327274E-01    0.1525865827E-01    0.4799358294E-01    0.2504525397E-02    0.2499982411E+00
    0.3500000000E+02    0.6547764290E-01    0.1578536665E-01    0.4954267863E-01    0.2592296753E-02    0.2581078762E+00
    0.3700000000E+02    0.6874761434E-01    0.1628692634E-01    0.5101150506E-01    0.2676024019E-02    0.2658009809E+00
    0.3900000000E+02    0.7197420060E-01    0.1676502034E-01    0.5240618368E-01    0.2755976787E-02    0.2731092282E+00
    0.4100000000E+02    0.7515838355E-01    0.1722117089E-01    0.5373222731E-01    0.2832398774E-02    0.2800611466E+00
    0.4300000000E+02    0.7830111462E-01    0.1765675904E-01    0.5499461400E-01    0.2905510984E-02    0.2866825012E+00
    0.4500000000E+02    0.8140331593E-01    0.1807304143E-01    0.5619785044E-01    0.2975514421E-02    0.2929966212E+00
    0.4700000000E+02    0.8446588146E-01    0.1847116463E-01    0.5734602651E-01    0.3042592409E-02    0.2990246814E+00
    0.4900000000E+02    0.8748967808E-01    0.1885217764E-01    0.5844286244E-01    0.3106912600E-02    0.3047859458E+00
    0.1000000000E+02    0.2048677144E-01    0.6541124331E-02    0.2126784320E-01    0.1067517979E-02    0.1105546074E+00
    0.3000000000E+02    0.5710617125E-01    0.1441730154E-01    0.4550430849E-01    0.2364622067E-02    0.2369745439E+00
    0.5000000000E+02    0.8898730178E-01    0.1903657159E-01    0.5897309952E-01    0.3138087059E-02    0.3075720797E+00
    0.7000000000E+02    0.1170962822E+00    0.2202258751E-01    0.6756519552E-01    0.3648155382E-02    0.3528249016E+00
    0.9000000000E+02    0.1421458360E+00    0.2403384750E-01    0.7353238305E-01    0.3999952967E-02    0.3844023055E+00
    0.1100000000E+03    0.1646734448E+00    0.2540391592E-01    0.7792285344E-01    0.4246696562E-02    0.4077451884E+00
    0.1300000000E+03    0.1850923481E+00    0.2632676955E-01    0.8129117186E-01    0.4419397713E-02    0.4257368552E+00
    0.1500000000E+03    0.2037257549E+00    0.2692582878E-01    0.8395853454E-01    0.4537868277E-02    0.4400499901E+00
    0.1700000000E+03    0.2208303592E+00    0.2728455797E-01    0.8612398542E-01    0.4615579180E-02    0.4517228288E+00
    0.1900000000E+03    0.2366128536E+00    0.2746187439E-01    0.8791752240E-01    0.4662100482E-02    0.4614345517E+00
    0.2100000000E+03    0.2512417539E+00    0.2750068796E-01    0.8942769237E-01    0.4684451915E-02    0.4696485227E+00
    0.2300000000E+03    0.2648560122E+00    0.2743299359E-01    0.9071691970E-01    0.4687908132E-02    0.4766919321E+00
    0.2500000000E+03    0.2775713907E+00    0.2728308452E-01    0.9183049429E-01    0.4676507296E-02    0.4828025421E+00
    0.2700000000E+03    0.2894852467E+00    0.2706967199E-01    0.9280208353E-01    0.4653387163E-02    0.4881573821E+00
    0.2900000000E+03    0.3006801704E+00    0.2680733377E-01    0.9365724282E-01    0.4621015270E-02    0.4928910405E+00
    0.3100000000E+03    0.3112267861E+00    0.2650753260E-01    0.9441572452E-01    0.4581351267E-02    0.4971077094E+00
    0.3300000000E+03    0.3211859310E+00    0.2617934933E-01    0.9509303986E-01    0.4535964135E-02    0.5008893382E+00
    0.3500000000E+03    0.3306103690E+00    0.2583002097E-01    0.9570154145E-01    0.4486118540E-02    0.5043012916E+00
    0.3700000000E+03    0.3395461504E+00    0.2546534222E-01    0.9625118991E-01    0.4432839526E-02    0.5073963597E+00
    0.3900000000E+03    0.3480337013E+00    0.2508996942E-01    0.9675010726E-01    0.4376961681E-02    0.5102176555E+00
    0.4100000000E+03    0.3561087028E+00    0.2470765335E-01    0.9720498324E-01    0.4319166983E-02    0.5128007446E+00
    0.4300000000E+03    0.3638028066E+00    0.2432141957E-01    0.9762137834E-01    0.4260014239E-02    0.5151752350E+00
    0.4500000000E+03    0.3711442217E+00    0.2393370944E-01    0.9800395284E-01    0.4199962224E-02    0.5173659798E+00
    0.4700000000E+03    0.3781581985E+00    0.2354649121E-01    0.9835664227E-01    0.4139388016E-02    0.5193939994E+00
    0.4900000000E+03    0.3848674309E+00    0.2316134842E-01    0.9868279328E-01    0.4078601639E-02    0.5212771964E+00
    0.1000000000E+03    0.1536966089E+00    0.2478472572E-01    0.7588262116E-01    0.4134171878E-02    0.3968843484E+00
    0.3000000000E+03    0.3060305071E+00    0.2666149977E-01    0.9404751406E-01    0.4601988701E-02    0.4950584315E+00
    0.5000000000E+03    0.3881142446E+00    0.2296996263E-01    0.9883682834E-01    0.4048210382E-02    0.5221693688E+00
    0.7000000000E+03    0.4411117906E+00    0.1944579412E-01    0.1010419616E+00    0.3470674052E-02    0.5351911674E+00
    0.9000000000E+03    0.4784010000E+00    0.1661888005E-01    0.1023018125E+00    0.2987148317E-02    0.5429400952E+00
    0.1100000000E+04    0.5060556841E+00    0.1440874744E-01    0.1031112420E+00    0.2597952722E-02    0.5481217996E+00
    0.1300000000E+04    0.5273392264E+00    0.1267280162E-01    0.1036713074E+00    0.2285504613E-02    0.5518524084E+00
    0.1500000000E+04    0.5441880009E+00    0.1129176942E-01    0.1040791472E+00    0.2032647323E-02    0.5546790790E+00
    0.1700000000E+04    0.5578296027E+00    0.1017687344E-01    0.1043874220E+00    0.1825707958E-02    0.5569026478E+00
    0.1900000000E+04    0.5690808034E+00    0.9263743059E-02    0.1046271386E+00    0.1654337906E-02    0.5587027036E+00
    0.2100000000E+04    0.5785058271E+00    0.8505699750E-02    0.1048177291E+00    0.1510795135E-02    0.5601933224E+00
    0.2300000000E+04    0.5865064914E+00    0.7868574367E-02    0.1049719808E+00    0.1389272216E-02    0.5614505760E+00
    0.2500000000E+04    0.5933763296E+00    0.7327033569E-02    0.1050986457E+00    0.1285376425E-02    0.5625272177E+00
    0.2700000000E+04    0.5993344788E+00    0.6862035943E-02    0.1052039107E+00    0.1195749900E-02    0.5634610282E+00
    0.2900000000E+04    0.6045476442E+00    0.6459073501E-02    0.1052922699E+00    0.1117796908E-02    0.5642798052E+00
    0.3100000000E+04    0.6091447555E+00    0.6106947455E-02    0.1053670631E+00    0.1049488364E-02    0.5650044765E+00
    0.3300000000E+04    0.6132269962E+00    0.5796906665E-02    0.1054308228E+00    0.9892209837E-03    0.5656511119E+00
    0.3500000000E+04    0.6168748181E+00    0.5522033804E-02    0.1054855019E+00    0.9357149276E-03    0.5662322651E+00
    0.3700000000E+04    0.6201529446E+00    0.5276802432E-02    0.1055326298E+00    0.8879386934E-03    0.5667578925E+00
    0.3900000000E+04    0.6231140006E+00    0.5056753354E-02    0.1055734205E+00    0.8450534154E-03    0.5672359963E+00
    0.4100000000E+04    0.6258011888E+00    0.4858255255E-02    0.1056088485E+00    0.8063711284E-03    0.5676730857E+00
    0.4300000000E+04    0.6282502900E+00    0.4678325612E-02    0.1056397054E+00    0.7713231755E-03    0.5680745123E+00
    0.4500000000E+04    0.6304911778E+00    0.4514495221E-02    0.1056666395E+00    0.7394360572E-03    0.5684447182E+00
    0.4700000000E+04    0.6325489797E+00    0.4364704665E-02    0.1056901873E+00    0.7103127968E-03    0.5687874237E+00
    0.4900000000E+04    0.6344449760E+00    0.4227224402E-02    0.1057107956E+00    0.6836184329E-03    0.5691057688E+00
    0.1000000000E+04    0.4931867055E+00    0.1544586591E-01    0.1027466662E+00    0.2781783936E-02    0.5457624734E+00
    0.3000000000E+04    0.6069163263E+00    0.6277252059E-02    0.1053311882E+00    0.1082545909E-02    0.5646528041E+00
    0.5000000000E+04    0.6353380715E+00    0.4162634744E-02    0.1057201170E+00    0.6710915145E-03    0.5692566565E+00
    0.7000000000E+04    0.6479581693E+00    0.3258677740E-02    0.1058178676E+00    0.4974883541E-03    0.5714738039E+00
    0.9000000000E+04    0.6550432898E+00    0.2752218312E-02    0.1058311921E+00    0.4028123304E-03    0.5728227250E+00
    0.1100000000E+05    0.6595690855E+00    0.2423583444E-02    0.1058126151E+00    0.3431668725E-03    0.5737494979E+00
    0.1300000000E+05    0.6627067780E+00    0.2190112571E-02    0.1057805675E+00    0.3019841720E-03    0.5744356774E+00
    0.1500000000E+05    0.6650088363E+00    0.2013859342E-02    0.1057427513E+00    0.2717020936E-03    0.5749701092E+00
    0.1700000000E+05    0.6667693565E+00    0.1874925447E-02    0.1057027421E+00    0.2483955140E-03    0.5754018324E+00
    0.1900000000E+05    0.6681591069E+00    0.1761833552E-02    0.1056623083E+00    0.2298286400E-03    0.5757603256E+00
    0.2100000000E+05    0.6692839687E+00    0.1667472726E-02    0.1056223527E+00    0.2146350589E-03    0.5760644773E+00
    0.2300000000E+05    0.6702130518E+00    0.1587185493E-02    0.1055833364E+00    0.2019323286E-03    0.5763270063E+00
    0.2500000000E+05    0.6709933680E+00    0.1517782918E-02    0.1055454839E+00    0.1911247066E-03    0.5765568242E+00
    0.2700000000E+05    0.6716580033E+00    0.1457001088E-02    0.1055088903E+00    0.1817950765E-03    0.5767603811E+00
    0.2900000000E+05    0.6722309149E+00    0.1403183753E-02    0.1054735780E+00    0.1736423604E-03    0.5769424746E+00
    0.3100000000E+05    0.6727298750E+00    0.1355088142E-02    0.1054395286E+00    0.1664435564E-03    0.5771067555E+00
    0.3300000000E+05    0.6731683444E+00    0.1311761358E-02    0.1054067018E+00    0.1600297943E-03    0.5772560576E+00
    0.3500000000E+05    0.6735567045E+00    0.1272459014E-02    0.1053750456E+00    0.1542707178E-03    0.5773926185E+00
    0.3700000000E+05    0.6739030902E+00    0.1236590074E-02    0.1053445030E+00    0.1490639973E-03    0.5775182314E+00
    0.3900000000E+05    0.6742139660E+00    0.1203678517E-02    0.1053150156E+00    0.1443281054E-03    0.5776343528E+00
    0.4100000000E+05    0.6744945338E+00    0.1173336077E-02    0.1052865257E+00    0.1399972295E-03    0.5777421794E+00
    0.4300000000E+05    0.6747490264E+00    0.1145242479E-02    0.1052589778E+00    0.1360176140E-03    0.5778427052E+00
    0.4500000000E+05    0.6749809235E+00    0.1119130852E-02    0.1052323190E+00    0.1323448859E-03    0.5779367634E+00
    0.4700000000E+05    0.6751931120E+00    0.1094776790E-02    0.1052064995E+00    0.1289420657E-03    0.5780250584E+00
    0.4900000000E+05    0.6753880067E+00    0.1071990033E-02    0.1051814725E+00    0.1257780677E-03    0.5781081906E+00
    0.1000000000E+05    0.6575312810E+00    0.2572422592E-02    0.1058243541E+00    0.3699648165E-03    0.5733243225E+00
    0.3000000000E+05    0.6724887134E+00    0.1378485971E-02    0.1054563976E+00    0.1699353284E-03    0.5770266483E+00
    0.5000000000E+05    0.6754796178E+00    0.1061132667E-02    0.1051692424E+00    0.1242772366E-03    0.5781479846E+00
    0.7000000000E+05    0.6767633028E+00    0.8968886638E-03    0.1049571571E+00    0.1021019034E-03    0.5787666630E+00
    0.9000000000E+05    0.6774780912E+00    0.7920511434E-03    0.1047899364E+00    0.8846019943E-04    0.5791822095E+00
    0.1100000000E+06    0.6779341182E+00    0.7176012785E-03    0.1046520284E+00    0.7901141255E-04    0.5794906218E+00
    0.1300000000E+06    0.6782506583E+00    0.6611699657E-03    0.1045346998E+00    0.7198023591E-04    0.5797337783E+00
    0.1500000000E+06    0.6784833960E+00    0.6164666840E-03    0.1044325994E+00    0.6649003329E-04    0.5799333985E+00
    0.1700000000E+06    0.6786618311E+00    0.5799058493E-03    0.1043422197E+00    0.6205220349E-04    0.5801020864E+00
    0.1900000000E+06    0.6788030569E+00    0.5492727858E-03    0.1042611393E+00    0.5837028652E-04    0.5802477596E+00
    0.2100000000E+06    0.6789176648E+00    0.5231152238E-03    0.1041876172E+00    0.5525270096E-04    0.5803756942E+00
    0.2300000000E+06    0.6790125688E+00    0.5004356049E-03    0.1041203598E+00    0.5256945835E-04    0.5804895710E+00
    0.2500000000E+06    0.6790924755E+00    0.4805228189E-03    0.1040583798E+00    0.5022886799E-04    0.5805920530E+00
    0.2700000000E+06    0.6791607003E+00    0.4628543309E-03    0.1040009066E+00    0.4816416992E-04    0.5806851256E+00
    0.2900000000E+06    0.6792196464E+00    0.4470363332E-03    0.1039473269E+00    0.4632545658E-04    0.5807703060E+00
    0.3100000000E+06    0.6792710989E+00    0.4327656039E-03    0.1038971450E+00    0.4467457718E-04    0.5808487780E+00
    0.3300000000E+06    0.6793164115E+00    0.4198043359E-03    0.1038499542E+00    0.4318180540E-04    0.5809214823E+00
    0.3500000000E+06    0.6793566295E+00    0.4079630251E-03    0.1038054170E+00    0.4182359237E-04    0.5809891783E+00
    0.3700000000E+06    0.6793925732E+00    0.3970885330E-03    0.1037632499E+00    0.4058101074E-04    0.5810524869E+00
    0.3900000000E+06    0.6794248951E+00    0.3870555705E-03    0.1037232126E+00    0.3943865194E-04    0.5811119223E+00
    0.4100000000E+06    0.6794541211E+00    0.3777605007E-03    0.1036850997E+00    0.3838382863E-04    0.5811679148E+00
    0.4300000000E+06    0.6794806797E+00    0.3691167486E-03    0.1036487342E+00    0.3740598735E-04    0.5812208280E+00
    0.4500000000E+06    0.6795049235E+00    0.3610513483E-03    0.1036139624E+00    0.3649626888E-04    0.5812709715E+00
    0.4700000000E+06    0.6795271453E+00    0.3535023075E-03    0.1035806501E+00    0.3564717436E-04    0.5813186113E+00
    0.4900000000E+06    0.6795475906E+00    0.3464165707E-03    0.1035486795E+00    0.3485230844E-04    0.5813639775E+00
    0.1000000000E+06    0.6777287595E+00    0.7520085558E-03    0.1047179700E+00    0.8335372337E-04    0.5793465052E+00
    0.3000000000E+06    0.6792462163E+00    0.4397237248E-03    0.1039218384E+00    0.4547856253E-04    0.5808103168E+00
    0.5000000000E+06    0.6795572129E+00    0.3430329060E-03    0.1035331642E+00    0.3447346424E-04    0.5813858716E+00
    0.7000000000E+06    0.6796930130E+00    0.2913093949E-03    0.1032733721E+00    0.2874305556E-04    0.5817417376E+00
    0.9000000000E+06    0.6797696667E+00    0.2578405287E-03    0.1030778731E+00    0.2509927205E-04    0.5819979922E+00
    0.1100000000E+07    0.6798191394E+00    0.2339016428E-03    0.1029210491E+00    0.2252661849E-04    0.5821976138E+00
    0.1300000000E+07    0.6798538316E+00    0.2156781549E-03    0.1027900863E+00    0.2058832047E-04    0.5823608014E+00
    0.1500000000E+07    0.6798795750E+00    0.2012012813E-03    0.1026776462E+00    0.1906169941E-04    0.5824986309E+00
    0.1700000000E+07    0.6798994794E+00    0.1893380942E-03    0.1025791309E+00    0.1781987024E-04    0.5826178188E+00
    0.1900000000E+07    0.6799153571E+00    0.1793842109E-03    0.1024914677E+00    0.1678458975E-04    0.5827227392E+00
    0.2100000000E+07    0.6799283371E+00    0.1708755227E-03    0.1024125009E+00    0.1590466755E-04    0.5828163966E+00
    0.2300000000E+07    0.6799391602E+00    0.1634920860E-03    0.1023406599E+00    0.1514503250E-04    0.5829009421E+00
    0.2500000000E+07    0.6799483328E+00    0.1570051914E-03    0.1022747647E+00    0.1448075242E-04    0.5829779678E+00
    0.2700000000E+07    0.6799562135E+00    0.1512464071E-03    0.1022139061E+00    0.1389355740E-04    0.5830486843E+00
    0.2900000000E+07    0.6799630630E+00    0.1460885670E-03    0.1021573688E+00    0.1336971614E-04    0.5831140333E+00
    0.3100000000E+07    0.6799690760E+00    0.1414336122E-03    0.1021045799E+00    0.1289868434E-04    0.5831747615E+00
    0.3300000000E+07    0.6799744007E+00    0.1372045438E-03    0.1020550734E+00    0.1247221415E-04    0.5832314707E+00
    0.3500000000E+07    0.6799791516E+00    0.1333399390E-03    0.1020084650E+00    0.1208374976E-04    0.5832846532E+00
    0.3700000000E+07    0.6799834194E+00    0.1297901184E-03    0.1019644345E+00    0.1172800644E-04    0.5833347163E+00
    0.3900000000E+07    0.6799872761E+00    0.1265144064E-03    0.1019227117E+00    0.1140067087E-04    0.5833820012E+00
    0.4100000000E+07    0.6799907801E+00    0.1234791344E-03    0.1018830669E+00    0.1109818333E-04    0.5834267961E+00
    0.4300000000E+07    0.6799939790E+00    0.1206561609E-03    0.1018453031E+00    0.1081757679E-04    0.5834693469E+00
    0.4500000000E+07    0.6799969123E+00    0.1180217561E-03    0.1018092500E+00    0.1055635598E-04    0.5835098651E+00
    0.4700000000E+07    0.6799996127E+00    0.1155557497E-03    0.1017747594E+00    0.1031240532E-04    0.5835485337E+00
    0.4900000000E+07    0.6800021078E+00    0.1132408728E-03    0.1017417017E+00    0.1008391784E-04    0.5835855122E+00
    0.1000000000E+07    0.6797967953E+00    0.2449808627E-03    0.1029956061E+00    0.2371364918E-04    0.5821033165E+00
    0.3000000000E+07    0.6799661639E+00    0.1437034609E-03    0.1021305371E+00    0.1312816019E-04    0.5831449344E+00
    0.5000000000E+07    0.6800032858E+00    0.1121353752E-03    0.1017256740E+00    0.9974978600E-05    0.5836034120E+00
    0.7000000000E+07    0.6800202135E+00    0.9523175152E-04    0.1014586190E+00    0.8324345871E-05    0.5838990842E+00
    0.9000000000E+07    0.6800300985E+00    0.8429038751E-04    0.1012590660E+00    0.7272357782E-05    0.5841171914E+00
    0.1100000000E+08    0.6800366619E+00    0.7646347031E-04    0.1010997122E+00    0.6528683267E-05    0.5842898639E+00
    0.1300000000E+08    0.6800413788E+00    0.7050488907E-04    0.1009670624E+00    0.5967945164E-05    0.5844326962E+00
    0.1500000000E+08    0.6800449559E+00    0.6577123761E-04    0.1008534489E+00    0.5526070881E-05    0.5845544360E+00
    0.1700000000E+08    0.6800477762E+00    0.6189218382E-04    0.1007540947E+00    0.5166493776E-05    0.5846604810E+00
    0.1900000000E+08    0.6800500662E+00    0.5863744551E-04    0.1006658217E+00    0.4866640193E-05    0.5847543947E+00
    0.2100000000E+08    0.6800519690E+00    0.5585527863E-04    0.1005864081E+00    0.4611729257E-05    0.5848386528E+00
    0.2300000000E+08    0.6800535797E+00    0.5344106872E-04    0.1005142398E+00    0.4391628048E-05    0.5849150448E+00
    0.2500000000E+08    0.6800549640E+00    0.5132002989E-04    0.1004481067E+00    0.4199129454E-05    0.5849849058E+00
    0.2700000000E+08    0.6800561689E+00    0.4943708498E-04    0.1003870788E+00    0.4028950096E-05    0.5850492582E+00
