  Pressure (Pa) 22mC5-400 (mol/kg) 2mC6-400 (mol/kg) 3mC6-400 (mol/kg) 33mC5-400 (mol/kg) C7-400 (mol/kg)
    0.1000000000E+01    0.2112904739E-02    0.5501859250E-02    0.1564173791E-02    0.6400093713E-04    0.8461049824E-02
    0.3000000000E+01    0.6232971372E-02    0.1580652442E-01    0.4500671711E-02    0.1839117475E-03    0.2434999823E-01
    0.5000000000E+01    0.1021939821E-01    0.2527089688E-01    0.7207548439E-02    0.2940976699E-03    0.3900219170E-01
    0.7000000000E+01    0.1408035394E-01    0.3399024235E-01    0.9711852394E-02    0.3956620505E-03    0.5256310600E-01
    0.9000000000E+01    0.1782333194E-01    0.4204571665E-01    0.1203650270E-01    0.4895445834E-03    0.6515602443E-01
    0.1100000000E+02    0.2145521932E-01    0.4950692277E-01    0.1420105062E-01    0.5765510041E-03    0.7688612824E-01
    0.1300000000E+02    0.2498235757E-01    0.5643392611E-01    0.1622227833E-01    0.6573764851E-03    0.8784371339E-01
    0.1500000000E+02    0.2841059605E-01    0.6287885805E-01    0.1811467416E-01    0.7326242482E-03    0.9810674398E-01
    0.1700000000E+02    0.3174533935E-01    0.6888720326E-01    0.1989081306E-01    0.8028205026E-03    0.1077428967E+00
    0.1900000000E+02    0.3499158920E-01    0.7449884165E-01    0.2156166370E-01    0.8684265328E-03    0.1168112108E+00
    0.2100000000E+02    0.3815398171E-01    0.7974889821E-01    0.2313683810E-01    0.9298485555E-03    0.1253634302E+00
    0.2300000000E+02    0.4123682058E-01    0.8466844103E-01    0.2462479611E-01    0.9874458143E-03    0.1334451020E+00
    0.2500000000E+02    0.4424410671E-01    0.8928505863E-01    0.2603301385E-01    0.1041537272E-02    0.1410964821E+00
    0.2700000000E+02    0.4717956467E-01    0.9362334023E-01    0.2736812340E-01    0.1092407179E-02    0.1483532859E+00
    0.2900000000E+02    0.5004666649E-01    0.9770527774E-01    0.2863602932E-01    0.1140309729E-02    0.1552473152E+00
    0.3100000000E+02    0.5284865294E-01    0.1015506042E+00    0.2984200629E-01    0.1185472983E-02    0.1618069826E+00
    0.3300000000E+02    0.5558855272E-01    0.1051770796E+00    0.3099078146E-01    0.1228102183E-02    0.1680577547E+00
    0.3500000000E+02    0.5826919982E-01    0.1086007349E+00    0.3208660414E-01    0.1268382565E-02    0.1740225262E+00
    0.3700000000E+02    0.6089324905E-01    0.1118360789E+00    0.3313330504E-01    0.1306481771E-02    0.1797219396E+00
    0.3900000000E+02    0.6346319026E-01    0.1148962769E+00    0.3413434700E-01    0.1342551909E-02    0.1851746570E+00
    0.4100000000E+02    0.6598136109E-01    0.1177933043E+00    0.3509286837E-01    0.1376731330E-02    0.1903975938E+00
    0.4300000000E+02    0.6844995864E-01    0.1205380787E+00    0.3601172048E-01    0.1409146159E-02    0.1954061202E+00
    0.4500000000E+02    0.7087105000E-01    0.1231405756E+00    0.3689349991E-01    0.1439911634E-02    0.2002142351E+00
    0.4700000000E+02    0.7324658192E-01    0.1256099285E+00    0.3774057659E-01    0.1469133263E-02    0.2048347169E+00
    0.4900000000E+02    0.7557838953E-01    0.1279545162E+00    0.3855511819E-01    0.1496907834E-02    0.2092792546E+00
    0.1000000000E+02    0.1965275349E-01    0.4584664615E-01    0.1313768176E-01    0.5338615066E-03    0.7112296852E-01
    0.3000000000E+02    0.5145560508E-01    0.9965636413E-01    0.2924645151E-01    0.1163220441E-02    0.1585672881E+00
    0.5000000000E+02    0.7672844168E-01    0.1290824544E+00    0.3895081573E-01    0.1510280557E-02    0.2114389281E+00
    0.7000000000E+02    0.9780677575E-01    0.1466654647E+00    0.4556076855E-01    0.1719951807E-02    0.2475752247E+00
    0.9000000000E+02    0.1159917614E+00    0.1576563662E+00    0.5041997149E-01    0.1852899352E-02    0.2742262416E+00
    0.1100000000E+03    0.1320709583E+00    0.1646477251E+00    0.5418215503E-01    0.1939094831E-02    0.2949235997E+00
    0.1300000000E+03    0.1465520183E+00    0.1690639212E+00    0.5720590454E-01    0.1995026289E-02    0.3116067274E+00
    0.1500000000E+03    0.1597787601E+00    0.1717488998E+00    0.5970552214E-01    0.2030480995E-02    0.3254360037E+00
    0.1700000000E+03    0.1719935340E+00    0.1732317361E+00    0.6181761583E-01    0.2051609158E-02    0.3371519377E+00
    0.1900000000E+03    0.1833728947E+00    0.1738589913E+00    0.6363376304E-01    0.2062450888E-02    0.3472514800E+00
    0.2100000000E+03    0.1940490787E+00    0.1738657860E+00    0.6521788455E-01    0.2065756361E-02    0.3560818695E+00
    0.2300000000E+03    0.2041234988E+00    0.1734162781E+00    0.6661609948E-01    0.2063453151E-02    0.3638939017E+00
    0.2500000000E+03    0.2136755349E+00    0.1726278439E+00    0.6786261599E-01    0.2056925595E-02    0.3708737906E+00
    0.2700000000E+03    0.2227684408E+00    0.1715861072E+00    0.6898340876E-01    0.2047188579E-02    0.3771630731E+00
    0.2900000000E+03    0.2314534219E+00    0.1703545983E+00    0.6999860106E-01    0.2034999340E-02    0.3828715095E+00
    0.3100000000E+03    0.2397725159E+00    0.1689811419E+00    0.7092405679E-01    0.2020931489E-02    0.3880857121E+00
    0.3300000000E+03    0.2477606728E+00    0.1675021879E+00    0.7177247410E-01    0.2005425270E-02    0.3928750748E+00
    0.3500000000E+03    0.2554472819E+00    0.1659458115E+00    0.7255415465E-01    0.1988822429E-02    0.3972959480E+00
    0.3700000000E+03    0.2628573141E+00    0.1643338333E+00    0.7327755633E-01    0.1971390886E-02    0.4013946391E+00
    0.3900000000E+03    0.2700121878E+00    0.1626833407E+00    0.7394969774E-01    0.1953342492E-02    0.4052096103E+00
    0.4100000000E+03    0.2769304341E+00    0.1610077995E+00    0.7457645930E-01    0.1934846004E-02    0.4087731151E+00
    0.4300000000E+03    0.2836282152E+00    0.1593178748E+00    0.7516281074E-01    0.1916036708E-02    0.4121124360E+00
    0.4500000000E+03    0.2901197314E+00    0.1576220458E+00    0.7571298535E-01    0.1897023640E-02    0.4152508326E+00
    0.4700000000E+03    0.2964175451E+00    0.1559270723E+00    0.7623061508E-01    0.1877895063E-02    0.4182082776E+00
    0.4900000000E+03    0.3025328409E+00    0.1542383503E+00    0.7671883656E-01    0.1858722678E-02    0.4210020342E+00
    0.1000000000E+03    0.1242580150E+00    0.1615447883E+00    0.5241124083E-01    0.1900600792E-02    0.2851734180E+00
    0.3000000000E+03    0.2356563744E+00    0.1696831092E+00    0.7047168845E-01    0.2028170069E-02    0.3855357052E+00
    0.5000000000E+03    0.3055252156E+00    0.1533977161E+00    0.7695278497E-01    0.1849138751E-02    0.4223422978E+00
    0.7000000000E+03    0.3577659272E+00    0.1375803111E+00    0.8059395952E-01    0.1664637267E-02    0.4433461716E+00
    0.9000000000E+03    0.3989787266E+00    0.1241388023E+00    0.8301434626E-01    0.1502604809E-02    0.4574865332E+00
    0.1100000000E+04    0.4323372925E+00    0.1129407773E+00    0.8477512856E-01    0.1364380452E-02    0.4678864002E+00
    0.1300000000E+04    0.4597818174E+00    0.1036013529E+00    0.8613078521E-01    0.1246984222E-02    0.4759716005E+00
    0.1500000000E+04    0.4826415673E+00    0.9575896839E-01    0.8721613648E-01    0.1146992254E-02    0.4825020751E+00
    0.1700000000E+04    0.5018811260E+00    0.8911773383E-01    0.8811033583E-01    0.1061359201E-02    0.4879264145E+00
    0.1900000000E+04    0.5182231830E+00    0.8344408228E-01    0.8886338953E-01    0.9875531172E-03    0.4925294305E+00
    0.2100000000E+04    0.5322202394E+00    0.7855525328E-01    0.8950868014E-01    0.9235166976E-03    0.4965021258E+00
    0.2300000000E+04    0.5443008685E+00    0.7430809877E-01    0.9006947285E-01    0.8675903538E-03    0.4999781823E+00
    0.2500000000E+04    0.5548014076E+00    0.7058993157E-01    0.9056255231E-01    0.8184359321E-03    0.5030544293E+00
    0.2700000000E+04    0.5639884747E+00    0.6731143804E-01    0.9100037685E-01    0.7749713935E-03    0.5058030073E+00
    0.2900000000E+04    0.5720753456E+00    0.6440129376E-01    0.9139241614E-01    0.7363178304E-03    0.5082789461E+00
    0.3100000000E+04    0.5792340627E+00    0.6180209534E-01    0.9174601511E-01    0.7017574761E-03    0.5105250719E+00
    0.3300000000E+04    0.5856045013E+00    0.5946728386E-01    0.9206697058E-01    0.6707007477E-03    0.5125752938E+00
    0.3500000000E+04    0.5913012289E+00    0.5735880926E-01    0.9235992730E-01    0.6426604598E-03    0.5144568656E+00
    0.3700000000E+04    0.5964187440E+00    0.5544534703E-01    0.9262865666E-01    0.6172316354E-03    0.5161919824E+00
    0.3900000000E+04    0.6010355103E+00    0.5370092787E-01    0.9287625712E-01    0.5940756568E-03    0.5177989314E+00
    0.4100000000E+04    0.6052170881E+00    0.5210387748E-01    0.9310530112E-01    0.5729077742E-03    0.5192929375E+00
    0.4300000000E+04    0.6090185839E+00    0.5063599045E-01    0.9331794454E-01    0.5534872139E-03    0.5206867944E+00
    0.4500000000E+04    0.6124865795E+00    0.4928188211E-01    0.9351600956E-01    0.5356093056E-03    0.5219913440E+00
    0.4700000000E+04    0.6156606622E+00    0.4802847644E-01    0.9370104824E-01    0.5190991835E-03    0.5232158446E+00
    0.4900000000E+04    0.6185746465E+00    0.4686459877E-01    0.9387439184E-01    0.5038067180E-03    0.5243682570E+00
    0.1000000000E+04    0.4164998565E+00    0.1182827672E+00    0.8395726752E-01    0.1430673145E-02    0.4630426105E+00
    0.3000000000E+04    0.5757613168E+00    0.6306595995E-01    0.9157362742E-01    0.7185655224E-03    0.5094284377E+00
    0.5000000000E+04    0.6199433359E+00    0.4631317915E-01    0.9395704335E-01    0.4965759299E-03    0.5249196196E+00
    0.7000000000E+04    0.6389101247E+00    0.3824400024E-01    0.9520719739E-01    0.3922678724E-03    0.5334333435E+00
    0.9000000000E+04    0.6491167503E+00    0.3337630781E-01    0.9599723652E-01    0.3313695059E-03    0.5390300291E+00
    0.1100000000E+05    0.6553980188E+00    0.3004885763E-01    0.9654882484E-01    0.2910223815E-03    0.5430774184E+00
    0.1300000000E+05    0.6596188630E+00    0.2759089056E-01    0.9695882105E-01    0.2620350869E-03    0.5461845782E+00
    0.1500000000E+05    0.6626357847E+00    0.2567810312E-01    0.9727701283E-01    0.2400167149E-03    0.5486698772E+00
    0.1700000000E+05    0.6648927529E+00    0.2413325398E-01    0.9753188605E-01    0.2226037646E-03    0.5507182765E+00
    0.1900000000E+05    0.6666412672E+00    0.2285053174E-01    0.9774103437E-01    0.2084080674E-03    0.5524456469E+00
    0.2100000000E+05    0.6680338049E+00    0.2176243030E-01    0.9791596785E-01    0.1965583376E-03    0.5539288107E+00
    0.2300000000E+05    0.6691678964E+00    0.2082360017E-01    0.9806456296E-01    0.1864784550E-03    0.5552210066E+00
    0.2500000000E+05    0.6701086888E+00    0.2000229515E-01    0.9819240802E-01    0.1777711552E-03    0.5563604648E+00
    0.2700000000E+05    0.6709012829E+00    0.1927553277E-01    0.9830358755E-01    0.1701529077E-03    0.5573754528E+00
    0.2900000000E+05    0.6715778529E+00    0.1862620466E-01    0.9840116214E-01    0.1634154534E-03    0.5582873882E+00
    0.3100000000E+05    0.6721619454E+00    0.1804127254E-01    0.9848747411E-01    0.1574020526E-03    0.5591128394E+00
    0.3300000000E+05    0.6726711756E+00    0.1751059864E-01    0.9856434900E-01    0.1519922536E-03    0.5598648543E+00
    0.3500000000E+05    0.6731189766E+00    0.1702616286E-01    0.9863323230E-01    0.1470918036E-03    0.5605538694E+00
    0.3700000000E+05    0.6735157653E+00    0.1658152396E-01    0.9869528454E-01    0.1426257772E-03    0.5611883464E+00
    0.3900000000E+05    0.6738697407E+00    0.1617143965E-01    0.9875144900E-01    0.1385337781E-03    0.5617752296E+00
    0.4100000000E+05    0.6741874422E+00    0.1579159300E-01    0.9880250087E-01    0.1347665172E-03    0.5623202792E+00
    0.4300000000E+05    0.6744741475E+00    0.1543839162E-01    0.9884908344E-01    0.1312833238E-03    0.5628283197E+00
    0.4500000000E+05    0.6747341620E+00    0.1510881784E-01    0.9889173534E-01    0.1280503045E-03    0.5633034269E+00
    0.4700000000E+05    0.6749710322E+00    0.1480031513E-01    0.9893091119E-01    0.1250389599E-03    0.5637490713E+00
    0.4900000000E+05    0.6751877051E+00    0.1451070089E-01    0.9896699753E-01    0.1222251309E-03    0.5641682295E+00
    0.1000000000E+05    0.6525960401E+00    0.3157401378E-01    0.9629518697E-01    0.3093684366E-03    0.5411995111E+00
    0.3000000000E+05    0.6718802429E+00    0.1832638006E-01    0.9844560159E-01    0.1603264875E-03    0.5587100386E+00
    0.5000000000E+05    0.6752892550E+00    0.1437238014E-01    0.9898398742E-01    0.1208857179E-03    0.5643686933E+00
    0.7000000000E+05    0.6766914411E+00    0.1225487151E-01    0.9922146467E-01    0.1007401494E-03    0.5674597241E+00
    0.9000000000E+05    0.6774544954E+00    0.1087963520E-01    0.9934801886E-01    0.8801462051E-04    0.5694909310E+00
    0.1100000000E+06    0.6779341720E+00    0.9892467540E-02    0.9942162327E-01    0.7905333687E-04    0.5709623251E+00
    0.1300000000E+06    0.6782636470E+00    0.9138635987E-02    0.9946609609E-01    0.7230836826E-04    0.5720948037E+00
    0.1500000000E+06    0.6785039725E+00    0.8538175562E-02    0.9949302825E-01    0.6699723006E-04    0.5730033148E+00
    0.1700000000E+06    0.6786870642E+00    0.8044980860E-02    0.9950872196E-01    0.6267629239E-04    0.5737544643E+00
    0.1900000000E+06    0.6788312261E+00    0.7630326224E-02    0.9951688439E-01    0.5907284682E-04    0.5743899159E+00
    0.2100000000E+06    0.6789477069E+00    0.7275245598E-02    0.9951982822E-01    0.5600882974E-04    0.5749372721E+00
    0.2300000000E+06    0.6790438004E+00    0.6966638684E-02    0.9951906348E-01    0.5336240366E-04    0.5754156563E+00
    0.2500000000E+06    0.6791244435E+00    0.6695123656E-02    0.9951561248E-01    0.5104702389E-04    0.5758388026E+00
    0.2700000000E+06    0.6791930969E+00    0.6453779538E-02    0.9951018813E-01    0.4899930308E-04    0.5762168693E+00
    0.2900000000E+06    0.6792522587E+00    0.6237372724E-02    0.9950329973E-01    0.4717161354E-04    0.5765575570E+00
    0.3100000000E+06    0.6793037774E+00    0.6041861601E-02    0.9949531866E-01    0.4552738608E-04    0.5768668270E+00
    0.3300000000E+06    0.6793490502E+00    0.5864068240E-02    0.9948652038E-01    0.4403801613E-04    0.5771493775E+00
    0.3500000000E+06    0.6793891531E+00    0.5701454357E-02    0.9947711218E-01    0.4268076549E-04    0.5774089695E+00
    0.3700000000E+06    0.6794249278E+00    0.5551964518E-02    0.9946725199E-01    0.4143730227E-04    0.5776486551E+00
    0.3900000000E+06    0.6794570425E+00    0.5413913944E-02    0.9945706142E-01    0.4029266149E-04    0.5778709414E+00
    0.4100000000E+06    0.6794860345E+00    0.5285906646E-02    0.9944663489E-01    0.3923449029E-04    0.5780779103E+00
    0.4300000000E+06    0.6795123406E+00    0.5166774651E-02    0.9943604631E-01    0.3825249015E-04    0.5782713070E+00
    0.4500000000E+06    0.6795363194E+00    0.5055532182E-02    0.9942535385E-01    0.3733799789E-04    0.5784526075E+00
    0.4700000000E+06    0.6795582687E+00    0.4951340615E-02    0.9941460352E-01    0.3648366668E-04    0.5786230699E+00
    0.4900000000E+06    0.6795784371E+00    0.4853481352E-02    0.9940383186E-01    0.3568321980E-04    0.5787837744E+00
    0.1000000000E+06    0.6777188781E+00    0.1034975050E-01    0.9938952953E-01    0.8318640132E-04    0.5702792151E+00
    0.3000000000E+06    0.6792788773E+00    0.6137221040E-02    0.9949942669E-01    0.4632851312E-04    0.5767158004E+00
    0.5000000000E+06    0.6795879203E+00    0.4806729266E-02    0.9939844736E-01    0.3530148594E-04    0.5788607641E+00
    0.7000000000E+06    0.6797210833E+00    0.4090381369E-02    0.9929416778E-01    0.2950962561E-04    0.5800601761E+00
    0.9000000000E+06    0.6797955872E+00    0.3625193937E-02    0.9920003496E-01    0.2580992359E-04    0.5808634400E+00
    0.1100000000E+07    0.6798433436E+00    0.3291680178E-02    0.9911614326E-01    0.2319016753E-04    0.5814547628E+00
    0.1300000000E+07    0.6798766408E+00    0.3037359287E-02    0.9904098291E-01    0.2121230976E-04    0.5819163259E+00
    0.1500000000E+07    0.6799012262E+00    0.2835060143E-02    0.9897307386E-01    0.1965210899E-04    0.5822912727E+00
    0.1700000000E+07    0.6799201508E+00    0.2669110900E-02    0.9891120056E-01    0.1838141021E-04    0.5826048037E+00
    0.1900000000E+07    0.6799351859E+00    0.2529750064E-02    0.9885439941E-01    0.1732100679E-04    0.5828727994E+00
    0.2100000000E+07    0.6799474314E+00    0.2410536407E-02    0.9880190803E-01    0.1641898350E-04    0.5831058528E+00
    0.2300000000E+07    0.6799576066E+00    0.2307024056E-02    0.9875311834E-01    0.1563971933E-04    0.5833113503E+00
    0.2500000000E+07    0.6799662022E+00    0.2216031583E-02    0.9870753986E-01    0.1495785923E-04    0.5834946284E+00
    0.2700000000E+07    0.6799735645E+00    0.2135213917E-02    0.9866477230E-01    0.1435480338E-04    0.5836596568E+00
    0.2900000000E+07    0.6799799450E+00    0.2062799124E-02    0.9862448525E-01    0.1381655943E-04    0.5838094610E+00
    0.3100000000E+07    0.6799855308E+00    0.1997419890E-02    0.9858640307E-01    0.1333237381E-04    0.5839463951E+00
    0.3300000000E+07    0.6799904642E+00    0.1938001880E-02    0.9855029359E-01    0.1289382880E-04    0.5840723235E+00
    0.3500000000E+07    0.6799948550E+00    0.1883687606E-02    0.9851595946E-01    0.1249422919E-04    0.5841887457E+00
    0.3700000000E+07    0.6799987896E+00    0.1833783163E-02    0.9848323161E-01    0.1212817473E-04    0.5842968839E+00
    0.3900000000E+07    0.6800023370E+00    0.1787720140E-02    0.9845196406E-01    0.1179125543E-04    0.5843977467E+00
    0.4100000000E+07    0.6800055528E+00    0.1745027847E-02    0.9842202996E-01    0.1147983003E-04    0.5844921747E+00
    0.4300000000E+07    0.6800084823E+00    0.1705312701E-02    0.9839331836E-01    0.1119086216E-04    0.5845808756E+00
    0.4500000000E+07    0.6800111629E+00    0.1668242701E-02    0.9836573167E-01    0.1092179718E-04    0.5846644504E+00
    0.4700000000E+07    0.6800136257E+00    0.1633535552E-02    0.9833918361E-01    0.1067046837E-04    0.5847434129E+00
    0.4900000000E+07    0.6800158968E+00    0.1600949486E-02    0.9831359750E-01    0.1043502439E-04    0.5848182062E+00
    0.1000000000E+07    0.6798218109E+00    0.3446115303E-02    0.9915689737E-01    0.2439970415E-04    0.5811791408E+00
    0.3000000000E+07    0.6799828275E+00    0.2029303047E-02    0.9860518397E-01    0.1356828189E-04    0.5838794105E+00
    0.5000000000E+07    0.6800169674E+00    0.1585385584E-02    0.9830114350E-01    0.1032275275E-04    0.5848541614E+00
    0.7000000000E+07    0.6800322269E+00    0.1347242456E-02    0.9808924641E-01    0.8620393949E-05    0.5854255651E+00
    0.9000000000E+07    0.6800410033E+00    0.1192934726E-02    0.9792602250E-01    0.7534235120E-05    0.5858216886E+00
    0.1100000000E+08    0.6800467587E+00    0.1082472464E-02    0.9779304886E-01    0.6765840122E-05    0.5861213932E+00
    0.1300000000E+08    0.6800508515E+00    0.9983347686E-03    0.9768075120E-01    0.6186153554E-05    0.5863607096E+00
    0.1500000000E+08    0.6800539269E+00    0.9314668802E-03    0.9758350225E-01    0.5729160262E-05    0.5865589298E+00
    0.1700000000E+08    0.6800563320E+00    0.8766535028E-03    0.9749770789E-01    0.5357158160E-05    0.5867275159E+00
    0.1900000000E+08    0.6800582706E+00    0.8306498793E-03    0.9742093020E-01    0.5046859627E-05    0.5868737994E+00
    0.2100000000E+08    0.6800598708E+00    0.7913169388E-03    0.9735143817E-01    0.4783009361E-05    0.5870027372E+00
    0.2300000000E+08    0.6800612171E+00    0.7571794298E-03    0.9728795776E-01    0.4555145228E-05    0.5871178276E+00
    0.2500000000E+08    0.6800623677E+00    0.7271824029E-03    0.9722952363E-01    0.4355823549E-05    0.5872216266E+00
    0.2700000000E+08    0.6800633641E+00    0.7005487113E-03    0.9717538662E-01    0.4179585998E-05    0.5873160550E+00
