  Pressure (Pa) 22mC5-400 (mol/kg) 2mC6-400 (mol/kg) 3mC6-400 (mol/kg) 33mC5-400 (mol/kg) C7-400 (mol/kg)
    0.1000000000E+01    0.2120764956E-02    0.1577632508E-02    0.3135481255E-02    0.1927010631E-03    0.8480291808E-02
    0.3000000000E+01    0.6301275798E-02    0.4563743481E-02    0.9059875064E-02    0.5575976297E-03    0.2450790936E-01
    0.5000000000E+01    0.1040271344E-01    0.7343848334E-02    0.1456382667E-01    0.8975273553E-03    0.3940352393E-01
    0.7000000000E+01    0.1442771110E-01    0.9938542256E-02    0.1969120626E-01    0.1214992320E-02    0.5328506892E-01
    0.9000000000E+01    0.1837878325E-01    0.1236566671E-01    0.2447996340E-01    0.1512159096E-02    0.6625457412E-01
    0.1100000000E+02    0.2225833219E-01    0.1464076118E-01    0.2896309426E-01    0.1790913886E-02    0.7840076245E-01
    0.1300000000E+02    0.2606865429E-01    0.1677742855E-01    0.3316942517E-01    0.2052907114E-02    0.8980115393E-01
    0.1500000000E+02    0.2981194573E-01    0.1878763270E-01    0.3712425193E-01    0.2299589726E-02    0.1005237825E+00
    0.1700000000E+02    0.3349030791E-01    0.2068194269E-01    0.4084986502E-01    0.2532242972E-02    0.1106286061E+00
    0.1900000000E+02    0.3710575251E-01    0.2246973417E-01    0.4436598363E-01    0.2752002972E-02    0.1201686731E+00
    0.2100000000E+02    0.4066020621E-01    0.2415935683E-01    0.4769011666E-01    0.2959881114E-02    0.1291910911E+00
    0.2300000000E+02    0.4415551518E-01    0.2575827404E-01    0.5083786445E-01    0.3156781085E-02    0.1377378377E+00
    0.2500000000E+02    0.4759344923E-01    0.2727318023E-01    0.5382317238E-01    0.3343513160E-02    0.1458464419E+00
    0.2700000000E+02    0.5097570568E-01    0.2871009989E-01    0.5665854511E-01    0.3520806265E-02    0.1535505596E+00
    0.2900000000E+02    0.5430391311E-01    0.3007447149E-01    0.5935522826E-01    0.3689318193E-02    0.1608804616E+00
    0.3100000000E+02    0.5757963476E-01    0.3137121901E-01    0.6192336338E-01    0.3849644308E-02    0.1678634498E+00
    0.3300000000E+02    0.6080437180E-01    0.3260481303E-01    0.6437212044E-01    0.4002324985E-02    0.1745242138E+00
    0.3500000000E+02    0.6397956638E-01    0.3377932332E-01    0.6670981174E-01    0.4147851999E-02    0.1808851364E+00
    0.3700000000E+02    0.6710660453E-01    0.3489846413E-01    0.6894399014E-01    0.4286674034E-02    0.1869665579E+00
    0.3900000000E+02    0.7018681886E-01    0.3596563332E-01    0.7108153408E-01    0.4419201447E-02    0.1927870047E+00
    0.4100000000E+02    0.7322149110E-01    0.3698394649E-01    0.7312872140E-01    0.4545810404E-02    0.1983633872E+00
    0.4300000000E+02    0.7621185454E-01    0.3795626659E-01    0.7509129365E-01    0.4666846487E-02    0.2037111735E+00
    0.4500000000E+02    0.7915909631E-01    0.3888522990E-01    0.7697451237E-01    0.4782627842E-02    0.2088445398E+00
    0.4700000000E+02    0.8206435949E-01    0.3977326875E-01    0.7878320832E-01    0.4893447944E-02    0.2137765034E+00
    0.4900000000E+02    0.8492874518E-01    0.4062263158E-01    0.8052182485E-01    0.4999578024E-02    0.2185190390E+00
    0.1000000000E+02    0.2032735218E-01    0.1352132590E-01    0.2675784086E-01    0.1653729773E-02    0.7242549711E-01
    0.3000000000E+02    0.5594823942E-01    0.3073100888E-01    0.6065476985E-01    0.3770469494E-02    0.1644137194E+00
    0.5000000000E+02    0.8634594206E-01    0.4103346622E-01    0.8136614544E-01    0.5050963516E-02    0.2208227539E+00
    0.7000000000E+02    0.1127825114E+00    0.4765200972E-01    0.9541429563E-01    0.5884576529E-02    0.2592191410E+00
    0.9000000000E+02    0.1361299949E+00    0.5205007605E-01    0.1056139977E+00    0.6447742430E-02    0.2871932705E+00
    0.1100000000E+03    0.1570109282E+00    0.5500461108E-01    0.1133826970E+00    0.6834100302E-02    0.3085720935E+00
    0.1300000000E+03    0.1758822187E+00    0.5697231585E-01    0.1195136256E+00    0.7098750163E-02    0.3254998182E+00
    0.1500000000E+03    0.1930873213E+00    0.5824126063E-01    0.1244862570E+00    0.7276522399E-02    0.3392740618E+00
    0.1700000000E+03    0.2088898440E+00    0.5900269969E-01    0.1286079899E+00    0.7390613023E-02    0.3507277287E+00
    0.1900000000E+03    0.2234958575E+00    0.5938861484E-01    0.1320852858E+00    0.7457091531E-02    0.3604208843E+00
    0.2100000000E+03    0.2370691011E+00    0.5949286696E-01    0.1350621385E+00    0.7487438500E-02    0.3687445921E+00
    0.2300000000E+03    0.2497415901E+00    0.5938382756E-01    0.1376421546E+00    0.7490060665E-02    0.3759805545E+00
    0.2500000000E+03    0.2616211703E+00    0.5911228128E-01    0.1399018612E+00    0.7471239021E-02    0.3823370837E+00
    0.2700000000E+03    0.2727969978E+00    0.5871656040E-01    0.1418990617E+00    0.7435745273E-02    0.3879717027E+00
    0.2900000000E+03    0.2833435807E+00    0.5822598730E-01    0.1436782670E+00    0.7387255584E-02    0.3930058480E+00
    0.3100000000E+03    0.2933238052E+00    0.5766324413E-01    0.1452743338E+00    0.7328635793E-02    0.3975347229E+00
    0.3300000000E+03    0.3027912322E+00    0.5704604127E-01    0.1467149649E+00    0.7262142592E-02    0.4016340763E+00
    0.3500000000E+03    0.3117918626E+00    0.5638831519E-01    0.1480224683E+00    0.7189568255E-02    0.4053649722E+00
    0.3700000000E+03    0.3203655094E+00    0.5570110309E-01    0.1492150185E+00    0.7112346560E-02    0.4087772156E+00
    0.3900000000E+03    0.3285468756E+00    0.5499319131E-01    0.1503075792E+00    0.7031631524E-02    0.4119118569E+00
    0.4100000000E+03    0.3363664098E+00    0.5427160240E-01    0.1513125877E+00    0.6948356706E-02    0.4148030527E+00
    0.4300000000E+03    0.3438509908E+00    0.5354196529E-01    0.1522404705E+00    0.6863280437E-02    0.4174794686E+00
    0.4500000000E+03    0.3510244803E+00    0.5280879981E-01    0.1531000377E+00    0.6777020680E-02    0.4199653513E+00
    0.4700000000E+03    0.3579081731E+00    0.5207573728E-01    0.1538987864E+00    0.6690082181E-02    0.4222813571E+00
    0.4900000000E+03    0.3645211658E+00    0.5134569324E-01    0.1546431393E+00    0.6602877791E-02    0.4244451998E+00
    0.1000000000E+03    0.1468470675E+00    0.5367407850E-01    0.1097428613E+00    0.6658957889E-02    0.2985466909E+00
    0.3000000000E+03    0.2884009446E+00    0.5795242945E-01    0.1444973171E+00    0.7359058551E-02    0.3953283177E+00
    0.5000000000E+03    0.3677315924E+00    0.5098255265E-01    0.1549966774E+00    0.6559284007E-02    0.4254749190E+00
    0.7000000000E+03    0.4211403781E+00    0.4423854734E-01    0.1602242589E+00    0.5728229642E-02    0.4408819887E+00
    0.9000000000E+03    0.4599355896E+00    0.3872186044E-01    0.1633955039E+00    0.5023377730E-02    0.4504529306E+00
    0.1100000000E+04    0.4893790626E+00    0.3431905583E-01    0.1655392916E+00    0.4446691636E-02    0.4570677830E+00
    0.1300000000E+04    0.5124165316E+00    0.3079268879E-01    0.1670917237E+00    0.3976187943E-02    0.4619594765E+00
    0.1500000000E+04    0.5308690073E+00    0.2793652183E-01    0.1682708510E+00    0.3589672840E-02    0.4657502406E+00
    0.1700000000E+04    0.5459330832E+00    0.2559274699E-01    0.1691983989E+00    0.3269003423E-02    0.4687905044E+00
    0.1900000000E+04    0.5584290477E+00    0.2364423400E-01    0.1699479196E+00    0.3000141838E-02    0.4712938015E+00
    0.2100000000E+04    0.5689375595E+00    0.2200430085E-01    0.1705665981E+00    0.2772380938E-02    0.4733982269E+00
    0.2300000000E+04    0.5778804115E+00    0.2060835256E-01    0.1710861575E+00    0.2577551410E-02    0.4751973504E+00
    0.2500000000E+04    0.5855707068E+00    0.1940773547E-01    0.1715287475E+00    0.2409380757E-02    0.4767569979E+00
    0.2700000000E+04    0.5922452429E+00    0.1836536153E-01    0.1719103220E+00    0.2263010191E-02    0.4781249318E+00
    0.2900000000E+04    0.5980860597E+00    0.1745261327E-01    0.1722426758E+00    0.2134639108E-02    0.4793367169E+00
    0.3100000000E+04    0.6032351476E+00    0.1664714650E-01    0.1725347250E+00    0.2021264972E-02    0.4804194252E+00
    0.3300000000E+04    0.6078047081E+00    0.1593131750E-01    0.1727933391E+00    0.1920492557E-02    0.4813940588E+00
    0.3500000000E+04    0.6118844500E+00    0.1529104542E-01    0.1730238996E+00    0.1830393189E-02    0.4822771819E+00
    0.3700000000E+04    0.6155468664E+00    0.1471498043E-01    0.1732306849E+00    0.1749400043E-02    0.4830820492E+00
    0.3900000000E+04    0.6188511105E+00    0.1419388862E-01    0.1734171401E+00    0.1676229566E-02    0.4838194043E+00
    0.4100000000E+04    0.6218458824E+00    0.1372019199E-01    0.1735860716E+00    0.1609821953E-02    0.4844980556E+00
    0.4300000000E+04    0.6245716053E+00    0.1328762101E-01    0.1737397896E+00    0.1549295661E-02    0.4851252992E+00
    0.4500000000E+04    0.6270620870E+00    0.1289094931E-01    0.1738802135E+00    0.1493912324E-02    0.4857072351E+00
    0.4700000000E+04    0.6293458006E+00    0.1252578927E-01    0.1740089514E+00    0.1443049460E-02    0.4862490060E+00
    0.4900000000E+04    0.6314468820E+00    0.1218843300E-01    0.1741273615E+00    0.1396179078E-02    0.4867549811E+00
    0.1000000000E+04    0.4756070929E+00    0.3639618847E-01    0.1645611137E+00    0.4720271131E-02    0.4540319723E+00
    0.3000000000E+04    0.6007394562E+00    0.1703766751E-01    0.1723932688E+00    0.2076239503E-02    0.4798927729E+00
    0.5000000000E+04    0.6324354890E+00    0.1202917717E-01    0.1741830613E+00    0.1374097668E-02    0.4869957348E+00
    0.7000000000E+04    0.6463121304E+00    0.9740733692E-02    0.1749615965E+00    0.1061284284E-02    0.4906081030E+00
    0.9000000000E+04    0.6540028828E+00    0.8398375409E-02    0.1753839056E+00    0.8836783182E-03    0.4928818516E+00
    0.1100000000E+05    0.6588652163E+00    0.7497686404E-02    0.1756401869E+00    0.7681697632E-03    0.4944814614E+00
    0.1300000000E+05    0.6622086634E+00    0.6841433016E-02    0.1758062316E+00    0.6863238272E-03    0.4956867554E+00
    0.1500000000E+05    0.6646453984E+00    0.6336197379E-02    0.1759181795E+00    0.6248351402E-03    0.4966382513E+00
    0.1700000000E+05    0.6664986848E+00    0.5931689724E-02    0.1759954103E+00    0.5766471613E-03    0.4974151263E+00
    0.1900000000E+05    0.6679549082E+00    0.5598245878E-02    0.1760492195E+00    0.5376630188E-03    0.4980657947E+00
    0.2100000000E+05    0.6691289239E+00    0.5317128783E-02    0.1760866142E+00    0.5053357510E-03    0.4986217286E+00
    0.2300000000E+05    0.6700952955E+00    0.5075858604E-02    0.1761121570E+00    0.4779949376E-03    0.4991043846E+00
    0.2500000000E+05    0.6709045043E+00    0.4865764229E-02    0.1761289359E+00    0.4544969612E-03    0.4995289600E+00
    0.2700000000E+05    0.6715919281E+00    0.4680609802E-02    0.1761391083E+00    0.4340308097E-03    0.4999065597E+00
    0.2900000000E+05    0.6721830875E+00    0.4515780812E-02    0.1761442216E+00    0.4160042003E-03    0.5002455134E+00
    0.3100000000E+05    0.6726968498E+00    0.4367779358E-02    0.1761454106E+00    0.3999737029E-03    0.5005522082E+00
    0.3300000000E+05    0.6731474619E+00    0.4233898925E-02    0.1761435232E+00    0.3856001844E-03    0.5008316358E+00
    0.3500000000E+05    0.6735458810E+00    0.4112007876E-02    0.1761392039E+00    0.3726194508E-03    0.5010877615E+00
    0.3700000000E+05    0.6739006711E+00    0.4000401204E-02    0.1761329490E+00    0.3608223439E-03    0.5013237818E+00
    0.3900000000E+05    0.6742186219E+00    0.3897696492E-02    0.1761251457E+00    0.3500409082E-03    0.5015423056E+00
    0.4100000000E+05    0.6745051853E+00    0.3802759311E-02    0.1761160996E+00    0.3401385644E-03    0.5017454871E+00
    0.4300000000E+05    0.6747647889E+00    0.3714648691E-02    0.1761060539E+00    0.3310029901E-03    0.5019351229E+00
    0.4500000000E+05    0.6750010657E+00    0.3632576576E-02    0.1760952040E+00    0.3225408731E-03    0.5021127252E+00
    0.4700000000E+05    0.6752170244E+00    0.3555877220E-02    0.1760837078E+00    0.3146739827E-03    0.5022795773E+00
    0.4900000000E+05    0.6754151782E+00    0.3483983753E-02    0.1760716943E+00    0.3073361861E-03    0.5024367765E+00
    0.1000000000E+05    0.6566813233E+00    0.7908787923E-02    0.1755266831E+00    0.8204698999E-03    0.4937436573E+00
    0.3000000000E+05    0.6724486628E+00    0.4439861402E-02    0.1761452480E+00    0.4077626770E-03    0.5004025535E+00
    0.5000000000E+05    0.6755082525E+00    0.3449684565E-02    0.1760655272E+00    0.3038477639E-03    0.5025120567E+00
    0.7000000000E+05    0.6768075134E+00    0.2927574828E-02    0.1759326085E+00    0.2517255446E-03    0.5036838305E+00
    0.9000000000E+05    0.6775265411E+00    0.2591388103E-02    0.1758007036E+00    0.2191327822E-03    0.5044701804E+00
    0.1100000000E+06    0.6779833213E+00    0.2351424668E-02    0.1756784948E+00    0.1963325312E-03    0.5050518595E+00
    0.1300000000E+06    0.6782993519E+00    0.2168922803E-02    0.1755667371E+00    0.1792523158E-03    0.5055085528E+00
    0.1500000000E+06    0.6785310999E+00    0.2024000646E-02    0.1754645022E+00    0.1658511114E-03    0.5058818261E+00
    0.1700000000E+06    0.6787083779E+00    0.1905259038E-02    0.1753705910E+00    0.1549791989E-03    0.5061958761E+00
    0.1900000000E+06    0.6788484135E+00    0.1805626957E-02    0.1752838859E+00    0.1459333911E-03    0.5064659262E+00
    0.2100000000E+06    0.6789618575E+00    0.1720452387E-02    0.1752034265E+00    0.1382564252E-03    0.5067021268E+00
    0.2300000000E+06    0.6790556496E+00    0.1646531582E-02    0.1751284071E+00    0.1316364902E-03    0.5069115581E+00
    0.2500000000E+06    0.6791345058E+00    0.1581575930E-02    0.1750581558E+00    0.1258527362E-03    0.5070993398E+00
    0.2700000000E+06    0.6792017432E+00    0.1523900782E-02    0.1749921112E+00    0.1207438081E-03    0.5072692851E+00
    0.2900000000E+06    0.6792597635E+00    0.1472234626E-02    0.1749298019E+00    0.1161887297E-03    0.5074243047E+00
    0.3100000000E+06    0.6793103481E+00    0.1425597186E-02    0.1748708292E+00    0.1120947907E-03    0.5075666671E+00
    0.3300000000E+06    0.6793548466E+00    0.1383218819E-02    0.1748148538E+00    0.1083895951E-03    0.5076981723E+00
    0.3500000000E+06    0.6793943001E+00    0.1344485618E-02    0.1747615847E+00    0.1050156815E-03    0.5078202708E+00
    0.3700000000E+06    0.6794295248E+00    0.1308901056E-02    0.1747107711E+00    0.1019267871E-03    0.5079341473E+00
    0.3900000000E+06    0.6794611694E+00    0.1276058598E-02    0.1746621950E+00    0.9908519243E-04    0.5080407812E+00
    0.4100000000E+06    0.6794897563E+00    0.1245621730E-02    0.1746156661E+00    0.9645979761E-04    0.5081409907E+00
    0.4300000000E+06    0.6795157107E+00    0.1217309166E-02    0.1745710175E+00    0.9402470147E-04    0.5082354661E+00
    0.4500000000E+06    0.6795393823E+00    0.1190883702E-02    0.1745281015E+00    0.9175813677E-04    0.5083247946E+00
    0.4700000000E+06    0.6795610615E+00    0.1166143702E-02    0.1744867873E+00    0.8964166002E-04    0.5084094795E+00
    0.4900000000E+06    0.6795809911E+00    0.1142916520E-02    0.1744469584E+00    0.8765952710E-04    0.5084899555E+00
    0.1000000000E+06    0.6777778281E+00    0.2462443727E-02    0.1757382691E+00    0.2068329217E-03    0.5047803328E+00
    0.3000000000E+06    0.6792858925E+00    0.1448339614E-02    0.1748999210E+00    0.1140890458E-03    0.5074969462E+00
    0.5000000000E+06    0.6795903652E+00    0.1131822916E-02    0.1744275679E+00    0.8671453560E-04    0.5085287352E+00
    0.7000000000E+06    0.6797222090E+00    0.9620935345E-03    0.1740973692E+00    0.7239921746E-04    0.5091536369E+00
    0.9000000000E+06    0.6797961499E+00    0.8521179379E-03    0.1738428051E+00    0.6327654782E-04    0.5095972399E+00
    0.1100000000E+07    0.6798436117E+00    0.7733856032E-03    0.1736353679E+00    0.5682662008E-04    0.5099391226E+00
    0.1300000000E+07    0.6798767340E+00    0.7134102958E-03    0.1734601780E+00    0.5196230502E-04    0.5102162513E+00
    0.1500000000E+07    0.6799012060E+00    0.6657402922E-03    0.1733084713E+00    0.4812826552E-04    0.5104487012E+00
    0.1700000000E+07    0.6799200521E+00    0.6266598427E-03    0.1731746437E+00    0.4500761787E-04    0.5106485466E+00
    0.1900000000E+07    0.6799350303E+00    0.5938571964E-03    0.1730548917E+00    0.4240474752E-04    0.5108235953E+00
    0.2100000000E+07    0.6799472327E+00    0.5658083435E-03    0.1729465131E+00    0.4019156523E-04    0.5109791774E+00
    0.2300000000E+07    0.6799573743E+00    0.5414621953E-03    0.1728475191E+00    0.3828025446E-04    0.5111190879E+00
    0.2500000000E+07    0.6799659430E+00    0.5200670943E-03    0.1727564022E+00    0.3660834954E-04    0.5112461215E+00
    0.2700000000E+07    0.6799732833E+00    0.5010692970E-03    0.1726719926E+00    0.3513005367E-04    0.5113623941E+00
    0.2900000000E+07    0.6799796454E+00    0.4840506006E-03    0.1725933640E+00    0.3381093195E-04    0.5114695447E+00
    0.3100000000E+07    0.6799852157E+00    0.4686884374E-03    0.1725197701E+00    0.3262453157E-04    0.5115688681E+00
    0.3300000000E+07    0.6799901356E+00    0.4547294555E-03    0.1724506010E+00    0.3155015387E-04    0.5116614044E+00
    0.3500000000E+07    0.6799945146E+00    0.4419715089E-03    0.1723853515E+00    0.3057134139E-04    0.5117480013E+00
    0.3700000000E+07    0.6799984389E+00    0.4302510662E-03    0.1723235987E+00    0.2967482398E-04    0.5118293587E+00
    0.3900000000E+07    0.6800019771E+00    0.4194342083E-03    0.1722649846E+00    0.2884976787E-04    0.5119060607E+00
    0.4100000000E+07    0.6800051846E+00    0.4094100676E-03    0.1722092040E+00    0.2808723016E-04    0.5119785999E+00
    0.4300000000E+07    0.6800081066E+00    0.4000859609E-03    0.1721559939E+00    0.2737975527E-04    0.5120473953E+00
    0.4500000000E+07    0.6800107804E+00    0.3913837227E-03    0.1721051268E+00    0.2672107183E-04    0.5121128064E+00
    0.4700000000E+07    0.6800132369E+00    0.3832369042E-03    0.1720564038E+00    0.2610586177E-04    0.5121751437E+00
    0.4900000000E+07    0.6800155022E+00    0.3755886058E-03    0.1720096508E+00    0.2552958205E-04    0.5122346772E+00
    0.1000000000E+07    0.6798222055E+00    0.8098313547E-03    0.1737343222E+00    0.5980354523E-04    0.5097780226E+00
    0.3000000000E+07    0.6799825198E+00    0.4761796659E-03    0.1725559786E+00    0.3320254966E-04    0.5115201146E+00
    0.5000000000E+07    0.6800165701E+00    0.3719358065E-03    0.1719869641E+00    0.2525479840E-04    0.5122634675E+00
    0.7000000000E+07    0.6800317894E+00    0.3160607892E-03    0.1716072622E+00    0.2108947613E-04    0.5127365516E+00
    0.9000000000E+07    0.6800405399E+00    0.2798708639E-03    0.1713216364E+00    0.1843292058E-04    0.5130827372E+00
    0.1100000000E+08    0.6800462759E+00    0.2539702084E-03    0.1710925173E+00    0.1655397786E-04    0.5133552828E+00
    0.1300000000E+08    0.6800503530E+00    0.2342449311E-03    0.1709011577E+00    0.1513667190E-04    0.5135797887E+00
    0.1500000000E+08    0.6800534151E+00    0.2185699055E-03    0.1707368345E+00    0.1401944023E-04    0.5137705140E+00
    0.1700000000E+08    0.6800558085E+00    0.2057214946E-03    0.1705928336E+00    0.1311003948E-04    0.5139362075E+00
    0.1900000000E+08    0.6800577367E+00    0.1949385730E-03    0.1704646702E+00    0.1235150562E-04    0.5140826195E+00
    0.2100000000E+08    0.6800593275E+00    0.1857194667E-03    0.1703491988E+00    0.1170652867E-04    0.5142137297E+00
    0.2300000000E+08    0.6800606652E+00    0.1777182347E-03    0.1702441278E+00    0.1114952466E-04    0.5143324051E+00
    0.2500000000E+08    0.6800618079E+00    0.1706875235E-03    0.1701477355E+00    0.1066229279E-04    0.5144407788E+00
    0.2700000000E+08    0.6800627969E+00    0.1644451328E-03    0.1700586956E+00    0.1023148782E-04    0.5145404803E+00
