  Pressure (Pa) 22mC5-400 (mol/kg) 2mC6-400 (mol/kg) 3mC6-400 (mol/kg) 33mC5-400 (mol/kg) C7-400 (mol/kg)
    0.1000000000E+01    0.2119267774E-02    0.2363982301E-02    0.3132751487E-02    0.1283333810E-03    0.8472936798E-02
    0.3000000000E+01    0.6288164722E-02    0.6824930477E-02    0.9037270985E-02    0.3706076187E-03    0.2444699653E-01
    0.5000000000E+01    0.1036726452E-01    0.1096207861E-01    0.1450588000E-01    0.5954324256E-03    0.3924734810E-01
    0.7000000000E+01    0.1436006101E-01    0.1480920827E-01    0.1958609266E-01    0.8046319879E-03    0.5300173001E-01
    0.9000000000E+01    0.1826986382E-01    0.1839540653E-01    0.2431872563E-01    0.9997763329E-03    0.6581988886E-01
    0.1100000000E+02    0.2209981043E-01    0.2174586646E-01    0.2873903971E-01    0.1182224744E-02    0.7779664467E-01
    0.1300000000E+02    0.2585287718E-01    0.2488252846E-01    0.3287765549E-01    0.1353160533E-02    0.8901434981E-01
    0.1500000000E+02    0.2953188955E-01    0.2782459814E-01    0.3676129369E-01    0.1513619108E-02    0.9954487703E-01
    0.1700000000E+02    0.3313953162E-01    0.3058896763E-01    0.4041337797E-01    0.1664510809E-02    0.1094512387E+00
    0.1900000000E+02    0.3667835482E-01    0.3319056079E-01    0.4385452929E-01    0.1806639607E-02    0.1187889143E+00
    0.2100000000E+02    0.4015078607E-01    0.3564261787E-01    0.4710297383E-01    0.1940718522E-02    0.1276069465E+00
    0.2300000000E+02    0.4355913529E-01    0.3795693174E-01    0.5017488159E-01    0.2067382409E-02    0.1359488506E+00
    0.2500000000E+02    0.4690560242E-01    0.4014404499E-01    0.5308464911E-01    0.2187198632E-02    0.1438533742E+00
    0.2700000000E+02    0.5019228388E-01    0.4221341535E-01    0.5584513677E-01    0.2300676011E-02    0.1513551343E+00
    0.2900000000E+02    0.5342117866E-01    0.4417355526E-01    0.5846786890E-01    0.2408272373E-02    0.1584851559E+00
    0.3100000000E+02    0.5659419390E-01    0.4603215009E-01    0.6096320335E-01    0.2510400946E-02    0.1652713267E+00
    0.3300000000E+02    0.5971315017E-01    0.4779615888E-01    0.6334047594E-01    0.2607435805E-02    0.1717387859E+00
    0.3500000000E+02    0.6277978631E-01    0.4947190049E-01    0.6560812386E-01    0.2699716524E-02    0.1779102557E+00
    0.3700000000E+02    0.6579576404E-01    0.5106512754E-01    0.6777379159E-01    0.2787552178E-02    0.1838063259E+00
    0.3900000000E+02    0.6876267218E-01    0.5258109028E-01    0.6984442219E-01    0.2871224785E-02    0.1894456996E+00
    0.4100000000E+02    0.7168203064E-01    0.5402459175E-01    0.7182633626E-01    0.2950992289E-02    0.1948454048E+00
    0.4300000000E+02    0.7455529413E-01    0.5540003576E-01    0.7372530040E-01    0.3027091150E-02    0.2000209791E+00
    0.4500000000E+02    0.7738385566E-01    0.5671146876E-01    0.7554658683E-01    0.3099738600E-02    0.2049866299E+00
    0.4700000000E+02    0.8016904979E-01    0.5796261637E-01    0.7729502552E-01    0.3169134616E-02    0.2097553742E+00
    0.4900000000E+02    0.8291215571E-01    0.5915691548E-01    0.7897504973E-01    0.3235463650E-02    0.2143391615E+00
    0.1000000000E+02    0.2019462948E-01    0.2009866287E-01    0.2656590942E-01    0.1092509807E-02    0.7190802823E-01
    0.3000000000E+02    0.5501455546E-01    0.4511509492E-01    0.5973085493E-01    0.2459995894E-02    0.1619195911E+00
    0.5000000000E+02    0.8426831088E-01    0.5973374895E-01    0.7979069332E-01    0.3267531824E-02    0.2165651653E+00
    0.7000000000E+02    0.1094548796E+00    0.6894275195E-01    0.9334600796E-01    0.3783121086E-02    0.2536243454E+00
    0.9000000000E+02    0.1315604715E+00    0.7495717299E-01    0.1031815738E+00    0.4125602516E-02    0.2806078555E+00
    0.1100000000E+03    0.1512617578E+00    0.7893164089E-01    0.1106806221E+00    0.4356925452E-02    0.3012509928E+00
    0.1300000000E+03    0.1690394612E+00    0.8153344583E-01    0.1166104343E+00    0.4512937550E-02    0.3176282637E+00
    0.1500000000E+03    0.1852452640E+00    0.8317679311E-01    0.1214320959E+00    0.4615940679E-02    0.3309878112E+00
    0.1700000000E+03    0.2001429884E+00    0.8413256786E-01    0.1254400693E+00    0.4680564993E-02    0.3421276834E+00
    0.1900000000E+03    0.2139349006E+00    0.8458510614E-01    0.1288316245E+00    0.4716804191E-02    0.3515831490E+00
    0.2100000000E+03    0.2267790598E+00    0.8466382499E-01    0.1317441271E+00    0.4731705985E-02    0.3597273667E+00
    0.2300000000E+03    0.2388010815E+00    0.8446189598E-01    0.1342763270E+00    0.4730370206E-02    0.3668289046E+00
    0.2500000000E+03    0.2501023119E+00    0.8404779201E-01    0.1365011378E+00    0.4716566305E-02    0.3730862912E+00
    0.2700000000E+03    0.2607656295E+00    0.8347270277E-01    0.1384736360E+00    0.4693130269E-02    0.3786496571E+00
    0.2900000000E+03    0.2708596447E+00    0.8277544989E-01    0.1402362475E+00    0.4662228021E-02    0.3836347800E+00
    0.3100000000E+03    0.2804417902E+00    0.8198583305E-01    0.1418222157E+00    0.4625535005E-02    0.3881324795E+00
    0.3300000000E+03    0.2895606322E+00    0.8112696087E-01    0.1432579822E+00    0.4584361499E-02    0.3922150720E+00
    0.3500000000E+03    0.2982576231E+00    0.8021690739E-01    0.1445648584E+00    0.4539741857E-02    0.3959409078E+00
    0.3700000000E+03    0.3065684464E+00    0.7926991000E-01    0.1457602256E+00    0.4492499190E-02    0.3993576278E+00
    0.3900000000E+03    0.3145240630E+00    0.7829724936E-01    0.1468584104E+00    0.4443292996E-02    0.4025045420E+00
    0.4100000000E+03    0.3221515318E+00    0.7730790476E-01    0.1478713350E+00    0.4392654728E-02    0.4054143982E+00
    0.4300000000E+03    0.3294746615E+00    0.7630904818E-01    0.1488090068E+00    0.4341014695E-02    0.4081147137E+00
    0.4500000000E+03    0.3365145320E+00    0.7530642110E-01    0.1496798925E+00    0.4288722642E-02    0.4106287939E+00
    0.4700000000E+03    0.3432899152E+00    0.7430462479E-01    0.1504912072E+00    0.4236063659E-02    0.4129765192E+00
    0.4900000000E+03    0.3498176180E+00    0.7330734587E-01    0.1512491400E+00    0.4183270590E-02    0.4151749611E+00
    0.1000000000E+03    0.1416779612E+00    0.7714990488E-01    0.1071656250E+00    0.4252501302E-02    0.2915664617E+00
    0.3000000000E+03    0.2757114808E+00    0.8239060793E-01    0.1410495224E+00    0.4644516097E-02    0.3859396649E+00
    0.5000000000E+03    0.3529933743E+00    0.7281134674E-01    0.1516097865E+00    0.4156884701E-02    0.4162228892E+00
    0.7000000000E+03    0.4065034618E+00    0.6358292991E-01    0.1569999209E+00    0.3653018040E-02    0.4320544433E+00
    0.9000000000E+03    0.4462138814E+00    0.5597433852E-01    0.1603353638E+00    0.3222247264E-02    0.4420606312E+00
    0.1100000000E+04    0.4768344682E+00    0.4984447441E-01    0.1626278231E+00    0.2866354883E-02    0.4490721291E+00
    0.1300000000E+04    0.5010750663E+00    0.4489171021E-01    0.1643118050E+00    0.2573333517E-02    0.4543161325E+00
    0.1500000000E+04    0.5206589630E+00    0.4084981415E-01    0.1656071025E+00    0.2330702679E-02    0.4584188289E+00
    0.1700000000E+04    0.5367476169E+00    0.3751187160E-01    0.1666376894E+00    0.2128048120E-02    0.4617363001E+00
    0.1900000000E+04    0.5501545451E+00    0.3472210332E-01    0.1674791763E+00    0.1957172492E-02    0.4644873904E+00
    0.2100000000E+04    0.5614659850E+00    0.3236376690E-01    0.1681804804E+00    0.1811731315E-02    0.4668147178E+00
    0.2300000000E+04    0.5711140779E+00    0.3034890983E-01    0.1687747449E+00    0.1686823055E-02    0.4688155868E+00
    0.2500000000E+04    0.5794234931E+00    0.2861065636E-01    0.1692852767E+00    0.1578643820E-02    0.4705588819E+00
    0.2700000000E+04    0.5866422091E+00    0.2709761083E-01    0.1697289750E+00    0.1484219929E-02    0.4720948722E+00
    0.2900000000E+04    0.5929624103E+00    0.2576983609E-01    0.1701184115E+00    0.1401206928E-02    0.4734611873E+00
    0.3100000000E+04    0.5985349989E+00    0.2459595958E-01    0.1704631444E+00    0.1327740011E-02    0.4746866110E+00
    0.3300000000E+04    0.6034798710E+00    0.2355107751E-01    0.1707705789E+00    0.1262322758E-02    0.4757935747E+00
    0.3500000000E+04    0.6078933180E+00    0.2261522377E-01    0.1710465465E+00    0.1203744018E-02    0.4767998444E+00
    0.3700000000E+04    0.6118534389E+00    0.2177224019E-01    0.1712957059E+00    0.1151015444E-02    0.4777196930E+00
    0.3900000000E+04    0.6154241538E+00    0.2100893475E-01    0.1715218264E+00    0.1103324175E-02    0.4785647323E+00
    0.4100000000E+04    0.6186582159E+00    0.2031444781E-01    0.1717279925E+00    0.1059996711E-02    0.4793445153E+00
    0.4300000000E+04    0.6215995006E+00    0.1967977036E-01    0.1719167541E+00    0.1020471110E-02    0.4800669814E+00
    0.4500000000E+04    0.6242847609E+00    0.1909737431E-01    0.1720902384E+00    0.9842754112E-03    0.4807387888E+00
    0.4700000000E+04    0.6267449903E+00    0.1856092622E-01    0.1722502351E+00    0.9510107596E-03    0.4813655677E+00
    0.4900000000E+04    0.6290064870E+00    0.1806506367E-01    0.1723982614E+00    0.9203381056E-03    0.4819521143E+00
    0.1000000000E+04    0.4624605302E+00    0.5274345780E-01    0.1615774913E+00    0.3035616354E-02    0.4458435833E+00
    0.3000000000E+04    0.5958340342E+00    0.2516534841E-01    0.1702958604E+00    0.1363381279E-02    0.4740899826E+00
    0.5000000000E+04    0.6300698558E+00    0.1783089762E-01    0.1724681977E+00    0.9058815333E-03    0.4822316095E+00
    0.7000000000E+04    0.6449329419E+00    0.1446068414E-01    0.1734717958E+00    0.7007004910E-03    0.4864574044E+00
    0.9000000000E+04    0.6531009594E+00    0.1247978179E-01    0.1740469914E+00    0.5839344571E-03    0.4891489719E+00
    0.1100000000E+05    0.6582292582E+00    0.1114919168E-01    0.1744159907E+00    0.5079102712E-03    0.4910572662E+00
    0.1300000000E+05    0.6617358847E+00    0.1017896178E-01    0.1746696633E+00    0.4540061538E-03    0.4925029426E+00
    0.1500000000E+05    0.6642799195E+00    0.9431540172E-02    0.1748523145E+00    0.4134903524E-03    0.4936486734E+00
    0.1700000000E+05    0.6662075410E+00    0.8832812923E-02    0.1749881866E+00    0.3817266713E-03    0.4945868488E+00
    0.1900000000E+05    0.6677174000E+00    0.8339037709E-02    0.1750916774E+00    0.3560215755E-03    0.4953743237E+00
    0.2100000000E+05    0.6689313974E+00    0.7922573346E-02    0.1751718797E+00    0.3346997709E-03    0.4960482524E+00
    0.2300000000E+05    0.6699283785E+00    0.7565002901E-02    0.1752348178E+00    0.3166621588E-03    0.4966340777E+00
    0.2500000000E+05    0.6707615486E+00    0.7253526130E-02    0.1752846393E+00    0.3011560754E-03    0.4971498880E+00
    0.2700000000E+05    0.6714680859E+00    0.6978935060E-02    0.1753242906E+00    0.2876476486E-03    0.4976089445E+00
    0.2900000000E+05    0.6720747396E+00    0.6734413993E-02    0.1753559210E+00    0.2757469219E-03    0.4980212219E+00
    0.3100000000E+05    0.6726012395E+00    0.6514795149E-02    0.1753811333E+00    0.2651618961E-03    0.4983943880E+00
    0.3300000000E+05    0.6730624517E+00    0.6316078952E-02    0.1754011458E+00    0.2556692191E-03    0.4987344482E+00
    0.3500000000E+05    0.6734697880E+00    0.6135114611E-02    0.1754169004E+00    0.2470948692E-03    0.4990461829E+00
    0.3700000000E+05    0.6738321519E+00    0.5969381361E-02    0.1754291353E+00    0.2393010582E-03    0.4993334517E+00
    0.3900000000E+05    0.6741565911E+00    0.5816834919E-02    0.1754384372E+00    0.2321771271E-03    0.4995994101E+00
    0.4100000000E+05    0.6744487560E+00    0.5675797362E-02    0.1754452772E+00    0.2256330784E-03    0.4998466669E+00
    0.4300000000E+05    0.6747132295E+00    0.5544876623E-02    0.1754500376E+00    0.2195948894E-03    0.5000774008E+00
    0.4500000000E+05    0.6749537671E+00    0.5422906626E-02    0.1754530317E+00    0.2140010586E-03    0.5002934475E+00
    0.4700000000E+05    0.6751734754E+00    0.5308902082E-02    0.1754545181E+00    0.2088000186E-03    0.5004963665E+00
    0.4900000000E+05    0.6753749465E+00    0.5202023884E-02    0.1754547118E+00    0.2039481719E-03    0.5006874926E+00
    0.1000000000E+05    0.6559298117E+00    0.1175665640E-01    0.1742499774E+00    0.5423401223E-03    0.4901755907E+00
    0.3000000000E+05    0.6723469849E+00    0.6621764799E-02    0.1753692457E+00    0.2703052510E-03    0.4982122854E+00
    0.5000000000E+05    0.6754695380E+00    0.5151028187E-02    0.1754543814E+00    0.2016413719E-03    0.5007789989E+00
    0.7000000000E+05    0.6767871526E+00    0.4374277067E-02    0.1754112537E+00    0.1671570814E-03    0.5022008059E+00
    0.9000000000E+05    0.6775139738E+00    0.3873626350E-02    0.1753379964E+00    0.1455755095E-03    0.5031509224E+00
    0.1100000000E+06    0.6779747834E+00    0.3516021490E-02    0.1752579842E+00    0.1304689533E-03    0.5038506825E+00
    0.1300000000E+06    0.6782931684E+00    0.3243905506E-02    0.1751784814E+00    0.1191469824E-03    0.5043977933E+00
    0.1500000000E+06    0.6785264118E+00    0.3027732571E-02    0.1751019490E+00    0.1102604009E-03    0.5048432214E+00
    0.1700000000E+06    0.6787046994E+00    0.2850552124E-02    0.1750291502E+00    0.1030488216E-03    0.5052166159E+00
    0.1900000000E+06    0.6788454490E+00    0.2701844163E-02    0.1749601940E+00    0.9704698400E-04    0.5055366108E+00
    0.2100000000E+06    0.6789594168E+00    0.2574684617E-02    0.1748949305E+00    0.9195223392E-04    0.5058156152E+00
    0.2300000000E+06    0.6790536045E+00    0.2464303276E-02    0.1748331150E+00    0.8755812495E-04    0.5060622727E+00
    0.2500000000E+06    0.6791327669E+00    0.2367291438E-02    0.1747744776E+00    0.8371839479E-04    0.5062828246E+00
    0.2700000000E+06    0.6792002464E+00    0.2281139247E-02    0.1747187535E+00    0.8032615710E-04    0.5064819125E+00
    0.2900000000E+06    0.6792584612E+00    0.2203951888E-02    0.1746656957E+00    0.7730125608E-04    0.5066630744E+00
    0.3100000000E+06    0.6793092046E+00    0.2134268227E-02    0.1746150789E+00    0.7458225213E-04    0.5068290636E+00
    0.3300000000E+06    0.6793538344E+00    0.2070940850E-02    0.1745667000E+00    0.7212115954E-04    0.5069820616E+00
    0.3500000000E+06    0.6793933978E+00    0.2013054355E-02    0.1745203770E+00    0.6987988544E-04    0.5071238238E+00
    0.3700000000E+06    0.6794287152E+00    0.1959868248E-02    0.1744759472E+00    0.6782775608E-04    0.5072557820E+00
    0.3900000000E+06    0.6794604390E+00    0.1910776144E-02    0.1744332650E+00    0.6593975904E-04    0.5073791182E+00
    0.4100000000E+06    0.6794890939E+00    0.1865276037E-02    0.1743921999E+00    0.6419526855E-04    0.5074948186E+00
    0.4300000000E+06    0.6795151072E+00    0.1822948251E-02    0.1743526349E+00    0.6257710477E-04    0.5076037141E+00
    0.4500000000E+06    0.6795388302E+00    0.1783438837E-02    0.1743144648E+00    0.6107082823E-04    0.5077065103E+00
    0.4700000000E+06    0.6795605544E+00    0.1746446887E-02    0.1742775948E+00    0.5966420298E-04    0.5078038119E+00
    0.4900000000E+06    0.6795805238E+00    0.1711714724E-02    0.1742419390E+00    0.5834678293E-04    0.5078961400E+00
    0.1000000000E+06    0.6777675681E+00    0.3681493672E-02    0.1752982043E+00    0.1374270803E-03    0.5035244085E+00
    0.3000000000E+06    0.6792846735E+00    0.2168250058E-02    0.1746400954E+00    0.7590678320E-04    0.5067478178E+00
    0.5000000000E+06    0.6795899160E+00    0.1695125434E-02    0.1742245420E+00    0.5771866896E-04    0.5079405828E+00
    0.7000000000E+06    0.6797219768E+00    0.1441252113E-02    0.1739248593E+00    0.4820140609E-04    0.5086523197E+00
    0.9000000000E+06    0.6797960083E+00    0.1276694109E-02    0.1736900817E+00    0.4213418245E-04    0.5091523824E+00
    0.1100000000E+07    0.6798435164E+00    0.1158855970E-02    0.1734968137E+00    0.3784346952E-04    0.5095347823E+00
    0.1300000000E+07    0.6798766654E+00    0.1069074589E-02    0.1733324183E+00    0.3460697466E-04    0.5098428318E+00
    0.1500000000E+07    0.6799011543E+00    0.9977035578E-03    0.1731892914E+00    0.3205561917E-04    0.5100998942E+00
    0.1700000000E+07    0.6799200118E+00    0.9391858706E-03    0.1730624975E+00    0.2997875298E-04    0.5103199417E+00
    0.1900000000E+07    0.6799349979E+00    0.8900635783E-03    0.1729486486E+00    0.2824631656E-04    0.5105119649E+00
    0.2100000000E+07    0.6799472061E+00    0.8480566867E-03    0.1728453174E+00    0.2677313358E-04    0.5106820745E+00
    0.2300000000E+07    0.6799573522E+00    0.8115925061E-03    0.1727507038E+00    0.2550080069E-04    0.5108346048E+00
    0.2500000000E+07    0.6799659243E+00    0.7795462425E-03    0.1726634361E+00    0.2438776989E-04    0.5109727363E+00
    0.2700000000E+07    0.6799732672E+00    0.7510891816E-03    0.1725824440E+00    0.2340357730E-04    0.5110988696E+00
    0.2900000000E+07    0.6799796315E+00    0.7255954005E-03    0.1725068764E+00    0.2252531503E-04    0.5112148588E+00
    0.3100000000E+07    0.6799852034E+00    0.7025820751E-03    0.1724360454E+00    0.2173538399E-04    0.5113221648E+00
    0.3300000000E+07    0.6799901247E+00    0.6816699584E-03    0.1723693865E+00    0.2102001238E-04    0.5114219581E+00
    0.3500000000E+07    0.6799945050E+00    0.6625564354E-03    0.1723064310E+00    0.2036824963E-04    0.5115151907E+00
    0.3700000000E+07    0.6799984303E+00    0.6449966829E-03    0.1722467853E+00    0.1977126546E-04    0.5116026467E+00
    0.3900000000E+07    0.6800019694E+00    0.6287902003E-03    0.1721901158E+00    0.1922185047E-04    0.5116849794E+00
    0.4100000000E+07    0.6800051776E+00    0.6137709912E-03    0.1721361370E+00    0.1871405326E-04    0.5117627386E+00
    0.4300000000E+07    0.6800081003E+00    0.5998002792E-03    0.1720846028E+00    0.1824291200E-04    0.5118363912E+00
    0.4500000000E+07    0.6800107746E+00    0.5867610209E-03    0.1720352995E+00    0.1780425284E-04    0.5119063371E+00
    0.4700000000E+07    0.6800132316E+00    0.5745537132E-03    0.1719880405E+00    0.1739453623E-04    0.5119729210E+00
    0.4900000000E+07    0.6800154973E+00    0.5630931495E-03    0.1719426616E+00    0.1701073836E-04    0.5120364425E+00
    0.1000000000E+07    0.6798220904E+00    0.1213407175E-02    0.1735892087E+00    0.3982393151E-04    0.5093549163E+00
    0.3000000000E+07    0.6799825068E+00    0.7138044475E-03    0.1724709067E+00    0.2212024494E-04    0.5112695182E+00
    0.5000000000E+07    0.6800165654E+00    0.5576195422E-03    0.1719206313E+00    0.1682773183E-04    0.5120671379E+00
    0.7000000000E+07    0.6800317870E+00    0.4738857829E-03    0.1715509638E+00    0.1405339948E-04    0.5125693979E+00
    0.9000000000E+07    0.6800405384E+00    0.4196451268E-03    0.1712718321E+00    0.1228377203E-04    0.5129345180E+00
    0.1100000000E+08    0.6800462749E+00    0.3808225215E-03    0.1710473577E+00    0.1103203727E-04    0.5132206346E+00
    0.1300000000E+08    0.6800503523E+00    0.3512543811E-03    0.1708595334E+00    0.1008778351E-04    0.5134554878E+00
    0.1500000000E+08    0.6800534146E+00    0.3277564250E-03    0.1706980181E+00    0.9343413613E-05    0.5136544436E+00
    0.1700000000E+08    0.6800558081E+00    0.3084950126E-03    0.1705563179E+00    0.8737490732E-05    0.5138268889E+00
    0.1900000000E+08    0.6800577364E+00    0.2923295125E-03    0.1704300844E+00    0.8232072756E-05    0.5139789714E+00
    0.2100000000E+08    0.6800593272E+00    0.2785080700E-03    0.1703162626E+00    0.7802307330E-05    0.5141149327E+00
    0.2300000000E+08    0.6800606649E+00    0.2665122039E-03    0.1702126226E+00    0.7431152116E-05    0.5142378206E+00
    0.2500000000E+08    0.6800618077E+00    0.2559711773E-03    0.1701174875E+00    0.7106482508E-05    0.5143498978E+00
    0.2700000000E+08    0.6800627967E+00    0.2466118967E-03    0.1700295635E+00    0.6819408196E-05    0.5144528891E+00
