  Pressure (Pa) 22mC5-400 (mol/kg) 2mC6-400 (mol/kg) 3mC6-400 (mol/kg) 33mC5-400 (mol/kg) C7-400 (mol/kg)
    0.1000000000E+01    0.2120228964E-02    0.1589987409E-02    0.3165932444E-02    0.4531106821E-03    0.1712448704E-02
    0.3000000000E+01    0.6296574516E-02    0.4668278676E-02    0.9318746763E-02    0.1330447197E-02    0.5040930850E-02
    0.5000000000E+01    0.1038998252E-01    0.7617347181E-02    0.1524428344E-01    0.2171075596E-02    0.8247019602E-02
    0.7000000000E+01    0.1440337845E-01    0.1044433203E-01    0.2095537616E-01    0.2977023359E-02    0.1133761616E-01
    0.9000000000E+01    0.1833954800E-01    0.1315586071E-01    0.2646390182E-01    0.3750172521E-02    0.1431910762E-01
    0.1100000000E+02    0.2220114535E-01    0.1575809451E-01    0.3178086829E-01    0.4492272577E-02    0.1719741408E-01
    0.1300000000E+02    0.2599070080E-01    0.1825676898E-01    0.3691649270E-01    0.5204952031E-02    0.1997803070E-01
    0.1500000000E+02    0.2971062796E-01    0.2065723040E-01    0.4188027136E-01    0.5889728738E-02    0.2266606527E-01
    0.1700000000E+02    0.3336323039E-01    0.2296446837E-01    0.4668104244E-01    0.6548019206E-02    0.2526627186E-01
    0.1900000000E+02    0.3695070782E-01    0.2518314528E-01    0.5132704217E-01    0.7181146952E-02    0.2778308101E-01
    0.2100000000E+02    0.4047516193E-01    0.2731762277E-01    0.5582595538E-01    0.7790350055E-02    0.3022062692E-01
    0.2300000000E+02    0.4393860178E-01    0.2937198572E-01    0.6018496107E-01    0.8376787965E-02    0.3258277186E-01
    0.2500000000E+02    0.4734294886E-01    0.3135006394E-01    0.6441077346E-01    0.8941547670E-02    0.3487312827E-01
    0.2700000000E+02    0.5069004183E-01    0.3325545182E-01    0.6850967914E-01    0.9485649294E-02    0.3709507873E-01
    0.2900000000E+02    0.5398164094E-01    0.3509152617E-01    0.7248757072E-01    0.1001005117E-01    0.3925179400E-01
    0.3100000000E+02    0.5721943218E-01    0.3686146253E-01    0.7634997733E-01    0.1051565445E-01    0.4134624943E-01
    0.3300000000E+02    0.6040503116E-01    0.3856824990E-01    0.8010209230E-01    0.1100330735E-01    0.4338123984E-01
    0.3500000000E+02    0.6353998678E-01    0.4021470429E-01    0.8374879841E-01    0.1147380893E-01    0.4535939306E-01
    0.3700000000E+02    0.6662578463E-01    0.4180348102E-01    0.8729469081E-01    0.1192791265E-01    0.4728318229E-01
    0.3900000000E+02    0.6966385024E-01    0.4333708607E-01    0.9074409805E-01    0.1236632957E-01    0.4915493735E-01
    0.4100000000E+02    0.7265555204E-01    0.4481788637E-01    0.9410110113E-01    0.1278973127E-01    0.5097685496E-01
    0.4300000000E+02    0.7560220426E-01    0.4624811934E-01    0.9736955109E-01    0.1319875257E-01    0.5275100817E-01
    0.4500000000E+02    0.7850506957E-01    0.4762990160E-01    0.1005530851E+00    0.1359399401E-01    0.5447935499E-01
    0.4700000000E+02    0.8136536162E-01    0.4896523696E-01    0.1036551409E+00    0.1397602410E-01    0.5616374627E-01
    0.4900000000E+02    0.8418424739E-01    0.5025602388E-01    0.1066789709E+00    0.1434538146E-01    0.5780593300E-01
    0.1000000000E+02    0.2027950724E-01    0.1447027147E-01    0.2914567371E-01    0.4124999197E-02    0.1577080603E-01
    0.3000000000E+02    0.5560715996E-01    0.3598457058E-01    0.7443287750E-01    0.1026514843E-01    0.4030662545E-01
    0.5000000000E+02    0.8557851539E-01    0.5088527779E-01    0.1081625197E+00    0.1452546848E-01    0.5861172120E-01
    0.7000000000E+02    0.1115416391E+00    0.6152270514E-01    0.1343939180E+00    0.1757286075E-01    0.7287107620E-01
    0.9000000000E+02    0.1344118067E+00    0.6927293736E-01    0.1554694455E+00    0.1979774244E-01    0.8434623361E-01
    0.1100000000E+03    0.1548331326E+00    0.7499355594E-01    0.1728380342E+00    0.2144346605E-01    0.9381799160E-01
    0.1300000000E+03    0.1732728001E+00    0.7924523796E-01    0.1874456306E+00    0.2266920374E-01    0.1017963819E+00
    0.1500000000E+03    0.1900785223E+00    0.8240874643E-01    0.1999370184E+00    0.2358312657E-01    0.1086292455E+00
    0.1700000000E+03    0.2055149423E+00    0.8475078056E-01    0.2107674861E+00    0.2426107159E-01    0.1145623281E+00
    0.1900000000E+03    0.2197874585E+00    0.8646299726E-01    0.2202681166E+00    0.2475759995E-01    0.1197744292E+00
    0.2100000000E+03    0.2330582674E+00    0.8768613369E-01    0.2286857435E+00    0.2511283152E-01    0.1243989197E+00
    0.2300000000E+03    0.2454574385E+00    0.8852545752E-01    0.2362083627E+00    0.2535682197E-01    0.1285374318E+00
    0.2500000000E+03    0.2570907296E+00    0.8906096591E-01    0.2429818349E+00    0.2551245222E-01    0.1322688594E+00
    0.2700000000E+03    0.2680452107E+00    0.8935429573E-01    0.2491211788E+00    0.2559738639E-01    0.1356554465E+00
    0.2900000000E+03    0.2783933830E+00    0.8945351299E-01    0.2547183999E+00    0.2562542915E-01    0.1387470082E+00
    0.3100000000E+03    0.2881962426E+00    0.8939649938E-01    0.2598480373E+00    0.2560748578E-01    0.1415839231E+00
    0.3300000000E+03    0.2975055940E+00    0.8921338981E-01    0.2645711710E+00    0.2555225350E-01    0.1441992954E+00
    0.3500000000E+03    0.3063658184E+00    0.8892835483E-01    0.2689383672E+00    0.2546672724E-01    0.1466205447E+00
    0.3700000000E+03    0.3148152423E+00    0.8856092275E-01    0.2729918782E+00    0.2535657501E-01    0.1488705935E+00
    0.3900000000E+03    0.3228872085E+00    0.8812697314E-01    0.2767673073E+00    0.2522642023E-01    0.1509687667E+00
    0.4100000000E+03    0.3306109225E+00    0.8763949199E-01    0.2802948871E+00    0.2508005644E-01    0.1529314821E+00
    0.4300000000E+03    0.3380121277E+00    0.8710915209E-01    0.2836004709E+00    0.2492061248E-01    0.1547727861E+00
    0.4500000000E+03    0.3451136491E+00    0.8654476327E-01    0.2867063108E+00    0.2475068080E-01    0.1565047743E+00
    0.4700000000E+03    0.3519358341E+00    0.8595362498E-01    0.2896316737E+00    0.2457241797E-01    0.1581379248E+00
    0.4900000000E+03    0.3584969134E+00    0.8534180454E-01    0.2923933348E+00    0.2438762421E-01    0.1596813646E+00
    0.1000000000E+03    0.1448960332E+00    0.7234665359E-01    0.1645491576E+00    0.2068156175E-01    0.8929590709E-01
    0.3000000000E+03    0.2833595466E+00    0.8944249357E-01    0.2573375724E+00    0.2562161708E-01    0.1401950779E+00
    0.5000000000E+03    0.3616847310E+00    0.8502975308E-01    0.2937174374E+00    0.2429325919E-01    0.1604219796E+00
    0.7000000000E+03    0.4149852959E+00    0.7855981938E-01    0.3143608918E+00    0.2232087521E-01    0.1720259141E+00
    0.9000000000E+03    0.4540481100E+00    0.7259200010E-01    0.3280840224E+00    0.2047789135E-01    0.1798127901E+00
    0.1100000000E+04    0.4839048614E+00    0.6748154392E-01    0.3380515211E+00    0.1888454194E-01    0.1855160363E+00
    0.1300000000E+04    0.5073954871E+00    0.6316588567E-01    0.3457134267E+00    0.1753020383E-01    0.1899333457E+00
    0.1500000000E+04    0.5262925609E+00    0.5951151753E-01    0.3518398815E+00    0.1637874549E-01    0.1934900840E+00
    0.1700000000E+04    0.5417717778E+00    0.5639208234E-01    0.3568828528E+00    0.1539379424E-01    0.1964368115E+00
    0.1900000000E+04    0.5546459237E+00    0.5370360480E-01    0.3611274409E+00    0.1454446421E-01    0.1989321335E+00
    0.2100000000E+04    0.5654946022E+00    0.5136399641E-01    0.3647636077E+00    0.1380584750E-01    0.2010820763E+00
    0.2300000000E+04    0.5747415208E+00    0.4930915496E-01    0.3679234826E+00    0.1315818099E-01    0.2029606175E+00
    0.2500000000E+04    0.5827029174E+00    0.4748897615E-01    0.3707022104E+00    0.1258582208E-01    0.2046211858E+00
    0.2700000000E+04    0.5896190723E+00    0.4586405811E-01    0.3731702884E+00    0.1207634448E-01    0.2061034816E+00
    0.2900000000E+04    0.5956754362E+00    0.4440315695E-01    0.3753812166E+00    0.1161981327E-01    0.2074377155E+00
    0.3100000000E+04    0.6010171502E+00    0.4308126982E-01    0.3773764310E+00    0.1120822451E-01    0.2086473470E+00
    0.3300000000E+04    0.6057592385E+00    0.4187820081E-01    0.3791885917E+00    0.1083507753E-01    0.2097509142E+00
    0.3500000000E+04    0.6099938951E+00    0.4077748689E-01    0.3808438375E+00    0.1049504965E-01    0.2107632896E+00
    0.3700000000E+04    0.6137957802E+00    0.3976558945E-01    0.3823633700E+00    0.1018374814E-01    0.2116965654E+00
    0.3900000000E+04    0.6172259274E+00    0.3883128143E-01    0.3837645919E+00    0.9897520060E-02    0.2125606900E+00
    0.4100000000E+04    0.6203346633E+00    0.3796517889E-01    0.3850619393E+00    0.9633305650E-02    0.2133639341E+00
    0.4300000000E+04    0.6231638185E+00    0.3715938007E-01    0.3862675016E+00    0.9388524363E-02    0.2141132396E+00
    0.4500000000E+04    0.6257484178E+00    0.3640718477E-01    0.3873914906E+00    0.9160985693E-02    0.2148144822E+00
    0.4700000000E+04    0.6281179891E+00    0.3570287442E-01    0.3884425987E+00    0.8948818848E-02    0.2154726742E+00
    0.4900000000E+04    0.6302975842E+00    0.3504153835E-01    0.3894282782E+00    0.8750416885E-02    0.2160921212E+00
    0.1000000000E+04    0.4699165200E+00    0.6993005137E-01    0.3334238549E+00    0.1964951350E-01    0.1828625711E+00
    0.3000000000E+04    0.5984278265E+00    0.4372619745E-01    0.3764035715E+00    0.1140883837E-01    0.2080568495E+00
    0.5000000000E+04    0.6313229468E+00    0.3472563734E-01    0.3898986267E+00    0.8655936525E-02    0.2163884986E+00
    0.7000000000E+04    0.6456956137E+00    0.2988536094E-01    0.3970510708E+00    0.7234596663E-02    0.2209678047E+00
    0.9000000000E+04    0.6536350486E+00    0.2673229044E-01    0.4016253596E+00    0.6338934216E-02    0.2239852465E+00
    0.1100000000E+05    0.6586387819E+00    0.2445852297E-01    0.4048590127E+00    0.5709654403E-02    0.2261744220E+00
    0.1300000000E+05    0.6620698276E+00    0.2271309757E-01    0.4072931295E+00    0.5236520792E-02    0.2278610736E+00
    0.1500000000E+05    0.6645642696E+00    0.2131543380E-01    0.4092063274E+00    0.4864013153E-02    0.2292152134E+00
    0.1700000000E+05    0.6664573535E+00    0.2016162418E-01    0.4107583871E+00    0.4560803644E-02    0.2303355386E+00
    0.1900000000E+05    0.6679420066E+00    0.1918694290E-01    0.4120482600E+00    0.4307715638E-02    0.2312838627E+00
    0.2100000000E+05    0.6691369007E+00    0.1834861176E-01    0.4131408729E+00    0.4092270110E-02    0.2321011713E+00
    0.2300000000E+05    0.6701189475E+00    0.1761703030E-01    0.4140807944E+00    0.3905950388E-02    0.2328158769E+00
    0.2500000000E+05    0.6709401364E+00    0.1697095245E-01    0.4148997488E+00    0.3742718226E-02    0.2334483922E+00
    0.2700000000E+05    0.6716368494E+00    0.1639466546E-01    0.4156210008E+00    0.3598156943E-02    0.2340138202E+00
    0.2900000000E+05    0.6722352959E+00    0.1587625583E-01    0.4162620425E+00    0.3468950894E-02    0.2345236123E+00
    0.3100000000E+05    0.6727548287E+00    0.1540649839E-01    0.4168363073E+00    0.3352555648E-02    0.2349866345E+00
    0.3300000000E+05    0.6732100438E+00    0.1497811965E-01    0.4173543016E+00    0.3246981459E-02    0.2354098751E+00
    0.3500000000E+05    0.6736121549E+00    0.1458529446E-01    0.4178243739E+00    0.3150646719E-02    0.2357989290E+00
    0.3700000000E+05    0.6739699177E+00    0.1422329334E-01    0.4182532507E+00    0.3062276148E-02    0.2361583369E+00
    0.3900000000E+05    0.6742902672E+00    0.1388822974E-01    0.4186464191E+00    0.2980828418E-02    0.2364918290E+00
    0.4100000000E+05    0.6745787666E+00    0.1357687528E-01    0.4190084043E+00    0.2905443651E-02    0.2368025025E+00
    0.4300000000E+05    0.6748399306E+00    0.1328652241E-01    0.4193429754E+00    0.2835404642E-02    0.2370929544E+00
    0.4500000000E+05    0.6750774604E+00    0.1301488063E-01    0.4196532996E+00    0.2770107770E-02    0.2373653809E+00
    0.4700000000E+05    0.6752944190E+00    0.1275999699E-01    0.4199420596E+00    0.2709040837E-02    0.2376216542E+00
    0.4900000000E+05    0.6754933627E+00    0.1252019444E-01    0.4202115449E+00    0.2651765990E-02    0.2378633818E+00
    0.1000000000E+05    0.6563932140E+00    0.2551322426E-01    0.4033670451E+00    0.5999758760E-02    0.2251577496E+00
    0.3000000000E+05    0.6725039216E+00    0.1563578913E-01    0.4165568071E+00    0.3409287297E-02    0.2347604954E+00
    0.5000000000E+05    0.6755867646E+00    0.1240548780E-01    0.4203396851E+00    0.2624430754E-02    0.2379792325E+00
    0.7000000000E+05    0.6768873199E+00    0.1063612396E-01    0.4222489317E+00    0.2207890167E-02    0.2397884637E+00
    0.9000000000E+05    0.6776038687E+00    0.9474744670E-02    0.4234251527E+00    0.1939835265E-02    0.2410059933E+00
    0.1100000000E+06    0.6780575072E+00    0.8635797728E-02    0.4242304063E+00    0.1748961373E-02    0.2419062580E+00
    0.1300000000E+06    0.6783704656E+00    0.7992401335E-02    0.4248191975E+00    0.1604217397E-02    0.2426118350E+00
    0.1500000000E+06    0.6785993905E+00    0.7478294241E-02    0.4252695787E+00    0.1489624793E-02    0.2431871596E+00
    0.1700000000E+06    0.6787741207E+00    0.7054997708E-02    0.4256256000E+00    0.1396011461E-02    0.2436699222E+00
    0.1900000000E+06    0.6789118654E+00    0.6698411635E-02    0.4259141626E+00    0.1317687149E-02    0.2440839086E+00
    0.2100000000E+06    0.6790232458E+00    0.6392559569E-02    0.4261526968E+00    0.1250910020E-02    0.2444450083E+00
    0.2300000000E+06    0.6791151719E+00    0.6126370588E-02    0.4263530303E+00    0.1193105259E-02    0.2447643169E+00
    0.2500000000E+06    0.6791923330E+00    0.5891895233E-02    0.4265234919E+00    0.1142435426E-02    0.2450498622E+00
    0.2700000000E+06    0.6792580234E+00    0.5683256180E-02    0.4266701279E+00    0.1097549527E-02    0.2453076246E+00
    0.2900000000E+06    0.6793146252E+00    0.5496000616E-02    0.4267974409E+00    0.1057429124E-02    0.2455421682E+00
    0.3100000000E+06    0.6793639035E+00    0.5326684253E-02    0.4269088568E+00    0.1021290038E-02    0.2457570492E+00
    0.3300000000E+06    0.6794071943E+00    0.5172594943E-02    0.4270070313E+00    0.9885173649E-03    0.2459550877E+00
    0.3500000000E+06    0.6794455270E+00    0.5031563670E-02    0.4270940566E+00    0.9586212499E-03    0.2461385548E+00
    0.3700000000E+06    0.6794797079E+00    0.4901832019E-02    0.4271716045E+00    0.9312060019E-03    0.2463093043E+00
    0.3900000000E+06    0.6795103774E+00    0.4781957184E-02    0.4272410275E+00    0.9059480464E-03    0.2464688673E+00
    0.4100000000E+06    0.6795380506E+00    0.4670742552E-02    0.4273034323E+00    0.8825798731E-03    0.2466185219E+00
    0.4300000000E+06    0.6795631466E+00    0.4567186109E-02    0.4273597333E+00    0.8608781438E-03    0.2467593453E+00
    0.4500000000E+06    0.6795860097E+00    0.4470441477E-02    0.4274106931E+00    0.8406547439E-03    0.2468922531E+00
    0.4700000000E+06    0.6796069255E+00    0.4379788104E-02    0.4274569529E+00    0.8217499528E-03    0.2470180294E+00
    0.4900000000E+06    0.6796261329E+00    0.4294608147E-02    0.4274990557E+00    0.8040271660E-03    0.2471373507E+00
    0.1000000000E+06    0.6778536002E+00    0.9024943874E-02    0.4238618831E+00    0.1837203241E-02    0.2414861619E+00
    0.3000000000E+06    0.6793400879E+00    0.5409284154E-02    0.4268549547E+00    0.1038903718E-02    0.2456518756E+00
    0.5000000000E+06    0.6796351602E+00    0.4253901166E-02    0.4275186957E+00    0.7955716216E-03    0.2471947774E+00
    0.7000000000E+06    0.6797615467E+00    0.3629150943E-02    0.4277765113E+00    0.6669982262E-03    0.2481134698E+00
    0.9000000000E+06    0.6798318016E+00    0.3222367406E-02    0.4278920246E+00    0.5845867696E-03    0.2487576340E+00
    0.1100000000E+07    0.6798765511E+00    0.2930165583E-02    0.4279428554E+00    0.5260928552E-03    0.2492493794E+00
    0.1300000000E+07    0.6799075648E+00    0.2707011925E-02    0.4279599013E+00    0.4818516956E-03    0.2496449349E+00
    0.1500000000E+07    0.6799303339E+00    0.2529285387E-02    0.4279577439E+00    0.4469022663E-03    0.2499746066E+00
    0.1700000000E+07    0.6799477653E+00    0.2383340650E-02    0.4279440682E+00    0.4184034801E-03    0.2502565028E+00
    0.1900000000E+07    0.6799615426E+00    0.2260667686E-02    0.4279232506E+00    0.3945965118E-03    0.2505022651E+00
    0.2100000000E+07    0.6799727081E+00    0.2155645021E-02    0.4278979285E+00    0.3743269906E-03    0.2507197994E+00
    0.2300000000E+07    0.6799819419E+00    0.2064388977E-02    0.4278697616E+00    0.3568019426E-03    0.2509147084E+00
    0.2500000000E+07    0.6799897066E+00    0.1984118139E-02    0.4278398288E+00    0.3414563621E-03    0.2510911006E+00
    0.2700000000E+07    0.6799963280E+00    0.1912780784E-02    0.4278088499E+00    0.3278754082E-03    0.2512520745E+00
    0.2900000000E+07    0.6800020419E+00    0.1848825598E-02    0.4277773142E+00    0.3157467552E-03    0.2514000216E+00
    0.3100000000E+07    0.6800070236E+00    0.1791054780E-02    0.4277455590E+00    0.3048301984E-03    0.2515368251E+00
    0.3300000000E+07    0.6800114058E+00    0.1738526664E-02    0.4277138192E+00    0.2949375874E-03    0.2516639928E+00
    0.3500000000E+07    0.6800152909E+00    0.1690489259E-02    0.4276822589E+00    0.2859191828E-03    0.2517827505E+00
    0.3700000000E+07    0.6800187593E+00    0.1646333740E-02    0.4276509927E+00    0.2776541403E-03    0.2518941070E+00
    0.3900000000E+07    0.6800218748E+00    0.1605561167E-02    0.4276201000E+00    0.2700437241E-03    0.2519989026E+00
    0.4100000000E+07    0.6800246890E+00    0.1567758198E-02    0.4275896353E+00    0.2630063708E-03    0.2520978440E+00
    0.4300000000E+07    0.6800272436E+00    0.1532579071E-02    0.4275596343E+00    0.2564740354E-03    0.2521915312E+00
    0.4500000000E+07    0.6800295732E+00    0.1499732010E-02    0.4275301198E+00    0.2503894445E-03    0.2522804776E+00
    0.4700000000E+07    0.6800317064E+00    0.1468968836E-02    0.4275011047E+00    0.2447040014E-03    0.2523651260E+00
    0.4900000000E+07    0.6800336671E+00    0.1440076926E-02    0.4274725945E+00    0.2393761683E-03    0.2524458607E+00
    0.1000000000E+07    0.6798564081E+00    0.3065531356E-02    0.4279230271E+00    0.5531140109E-03    0.2490181781E+00
    0.3000000000E+07    0.6800046152E+00    0.1819231103E-02    0.4277614474E+00    0.3101497598E-03    0.2514697145E+00
    0.5000000000E+07    0.6800345892E+00    0.1426274393E-02    0.4274585291E+00    0.2368349882E-03    0.2524848669E+00
    0.7000000000E+07    0.6800475465E+00    0.1214821317E-02    0.4272023302E+00    0.1982531001E-03    0.2531224979E+00
    0.9000000000E+07    0.6800547976E+00    0.1077521891E-02    0.4269865040E+00    0.1735823635E-03    0.2535853689E+00
    0.1100000000E+08    0.6800594415E+00    0.9790792158E-03    0.4268009744E+00    0.1561001482E-03    0.2539477586E+00
    0.1300000000E+08    0.6800626752E+00    0.9040005683E-03    0.4266384494E+00    0.1428936542E-03    0.2542450375E+00
    0.1500000000E+08    0.6800650591E+00    0.8442680901E-03    0.4264938603E+00    0.1324706735E-03    0.2544967688E+00
    0.1700000000E+08    0.6800668910E+00    0.7952583818E-03    0.4263636125E+00    0.1239779438E-03    0.2547148896E+00
    0.1900000000E+08    0.6800683437E+00    0.7540921187E-03    0.4262450833E+00    0.1168878802E-03    0.2549072104E+00
    0.2100000000E+08    0.6800695248E+00    0.7188695153E-03    0.4261363067E+00    0.1108545605E-03    0.2550791159E+00
    0.2300000000E+08    0.6800705044E+00    0.6882793559E-03    0.4260357733E+00    0.1056405614E-03    0.2552344729E+00
    0.2500000000E+08    0.6800713304E+00    0.6613833550E-03    0.4259422996E+00    0.1010768388E-03    0.2553761503E+00
    0.2700000000E+08    0.6800720366E+00    0.6374898819E-03    0.4258549410E+00    0.9703935517E-04    0.2555063343E+00
