  Pressure (Pa) 22mC5-400 (mol/kg) 2mC6-400 (mol/kg) 3mC6-400 (mol/kg) 33mC5-400 (mol/kg) C7-400 (mol/kg)
    0.1000000000E+01    0.2115210873E-02    0.3971087744E-02    0.1055469167E-02    0.5173175917E-03    0.1712698963E-02
    0.3000000000E+01    0.6252872879E-02    0.1163738184E-01    0.3107688240E-02    0.1516014903E-02    0.5043207533E-02
    0.5000000000E+01    0.1027245350E-01    0.1895504513E-01    0.5085457544E-02    0.2469296204E-02    0.8253398804E-02
    0.7000000000E+01    0.1418023895E-01    0.2594551312E-01    0.6993072235E-02    0.3379952276E-02    0.1135020540E-01
    0.9000000000E+01    0.1798206239E-01    0.3262853441E-01    0.8834497765E-02    0.4250554296E-02    0.1434002814E-01
    0.1100000000E+02    0.2168334427E-01    0.3902233192E-01    0.1061340111E-01    0.5083474829E-02    0.1722878638E-01
    0.1300000000E+02    0.2528912852E-01    0.4514374605E-01    0.1233317850E-01    0.5880906460E-02    0.2002196275E-01
    0.1500000000E+02    0.2880411491E-01    0.5100836210E-01    0.1399698011E-01    0.6644878383E-02    0.2272464290E-01
    0.1700000000E+02    0.3223268818E-01    0.5663062390E-01    0.1560773207E-01    0.7377271201E-02    0.2534155109E-01
    0.1900000000E+02    0.3557894418E-01    0.6202393549E-01    0.1716815620E-01    0.8079830150E-02    0.2787708191E-01
    0.2100000000E+02    0.3884671354E-01    0.6720075204E-01    0.1868078761E-01    0.8754176945E-02    0.3033532874E-01
    0.2300000000E+02    0.4203958297E-01    0.7217266156E-01    0.2014799058E-01    0.9401820414E-02    0.3272010932E-01
    0.2500000000E+02    0.4516091454E-01    0.7695045830E-01    0.2157197280E-01    0.1002416605E-01    0.3503498873E-01
    0.2700000000E+02    0.4821386321E-01    0.8154420889E-01    0.2295479822E-01    0.1062252463E-01    0.3728330008E-01
    0.2900000000E+02    0.5120139264E-01    0.8596331200E-01    0.2429839865E-01    0.1119811997E-01    0.3946816328E-01
    0.3100000000E+02    0.5412628970E-01    0.9021655226E-01    0.2560458423E-01    0.1175209594E-01    0.4159250187E-01
    0.3300000000E+02    0.5699117754E-01    0.9431214909E-01    0.2687505296E-01    0.1228552285E-01    0.4365905843E-01
    0.3500000000E+02    0.5979852761E-01    0.9825780093E-01    0.2811139930E-01    0.1279940318E-01    0.4567040843E-01
    0.3700000000E+02    0.6255067056E-01    0.1020607255E+00    0.2931512200E-01    0.1329467681E-01    0.4762897288E-01
    0.3900000000E+02    0.6524980630E-01    0.1057276961E+00    0.3048763127E-01    0.1377222580E-01    0.4953702987E-01
    0.4100000000E+02    0.6789801310E-01    0.1092650754E+00    0.3163025525E-01    0.1423287871E-01    0.5139672500E-01
    0.4300000000E+02    0.7049725602E-01    0.1126788453E+00    0.3274424593E-01    0.1467741455E-01    0.5321008102E-01
    0.4500000000E+02    0.7304939459E-01    0.1159746348E+00    0.3383078462E-01    0.1510656641E-01    0.5497900652E-01
    0.4700000000E+02    0.7555618994E-01    0.1191577454E+00    0.3489098688E-01    0.1552102472E-01    0.5670530398E-01
    0.4900000000E+02    0.7801931124E-01    0.1222331744E+00    0.3592590711E-01    0.1592144029E-01    0.5839067710E-01
    0.1000000000E+02    0.1984494735E-01    0.3586050277E-01    0.9731546404E-02    0.4671583698E-02    0.1579668791E-01
    0.3000000000E+02    0.5267150258E-01    0.8811013856E-01    0.2495605965E-01    0.1147774183E-01    0.4053772266E-01
    0.5000000000E+02    0.7923499210E-01    0.1237319920E+00    0.3643420025E-01    0.1611657528E-01    0.5921852411E-01
    0.7000000000E+02    0.1016002719E+00    0.1490689245E+00    0.4548855877E-01    0.1941408322E-01    0.7397569427E-01
    0.9000000000E+02    0.1209823646E+00    0.1676500593E+00    0.5287562308E-01    0.2182994867E-01    0.8603193685E-01
    0.1100000000E+03    0.1381464954E+00    0.1815857358E+00    0.5906096128E-01    0.2363912960E-01    0.9614011258E-01
    0.1300000000E+03    0.1536008701E+00    0.1922101912E+00    0.6434772737E-01    0.2501552409E-01    0.1047906773E+00
    0.1500000000E+03    0.1676977073E+00    0.2004052649E+00    0.6894237331E-01    0.2607411278E-01    0.1123177915E+00
    0.1700000000E+03    0.1806898291E+00    0.2067752757E+00    0.7299072693E-01    0.2689372757E-01    0.1189575962E+00
    0.1900000000E+03    0.1927641223E+00    0.2117470056E+00    0.7659896786E-01    0.2753007043E-01    0.1248821049E+00
    0.2100000000E+03    0.2040622331E+00    0.2156296036E+00    0.7984641328E-01    0.2802351421E-01    0.1302198688E+00
    0.2300000000E+03    0.2146938597E+00    0.2186519172E+00    0.8279362653E-01    0.2840396476E-01    0.1350690855E+00
    0.2500000000E+03    0.2247455725E+00    0.2209865536E+00    0.8548773646E-01    0.2869399492E-01    0.1395062020E+00
    0.2700000000E+03    0.2342868340E+00    0.2227658422E+00    0.8796603009E-01    0.2891092413E-01    0.1435917256E+00
    0.2900000000E+03    0.2433742075E+00    0.2240926979E+00    0.9025844160E-01    0.2906823379E-01    0.1473742514E+00
    0.3100000000E+03    0.2520543666E+00    0.2250481789E+00    0.9238931564E-01    0.2917655235E-01    0.1508933162E+00
    0.3300000000E+03    0.2603662857E+00    0.2256968516E+00    0.9437868157E-01    0.2924435444E-01    0.1541814613E+00
    0.3500000000E+03    0.2683428654E+00    0.2260906652E+00    0.9624319078E-01    0.2927846615E-01    0.1572657503E+00
    0.3700000000E+03    0.2760121542E+00    0.2262717958E+00    0.9799681706E-01    0.2928443590E-01    0.1601689036E+00
    0.3900000000E+03    0.2833982817E+00    0.2262747638E+00    0.9965138776E-01    0.2926681057E-01    0.1629101589E+00
    0.4100000000E+03    0.2905221799E+00    0.2261280309E+00    0.1012169916E+00    0.2922934401E-01    0.1655059319E+00
    0.4300000000E+03    0.2974021467E+00    0.2258552193E+00    0.1027022959E+00    0.2917515604E-01    0.1679703307E+00
    0.4500000000E+03    0.3040542917E+00    0.2254760525E+00    0.1041147954E+00    0.2910685537E-01    0.1703155594E+00
    0.4700000000E+03    0.3104928916E+00    0.2250070883E+00    0.1054610105E+00    0.2902663534E-01    0.1725522390E+00
    0.4900000000E+03    0.3167306763E+00    0.2244622956E+00    0.1067466454E+00    0.2893634927E-01    0.1746896644E+00
    0.1000000000E+03    0.1298053647E+00    0.1751017850E+00    0.5609672086E-01    0.2279776040E-01    0.9129429017E-01
    0.3000000000E+03    0.2477625939E+00    0.2246124896E+00    0.9134273017E-01    0.2912794351E-01    0.1491645386E+00
    0.5000000000E+03    0.3197778762E+00    0.2241652355E+00    0.1073683366E+00    0.2888793264E-01    0.1757237506E+00
    0.7000000000E+03    0.3724338164E+00    0.2163275268E+00    0.1175722703E+00    0.2766904361E-01    0.1927451353E+00
    0.9000000000E+03    0.4132555738E+00    0.2075140636E+00    0.1250149159E+00    0.2632772776E-01    0.2052225812E+00
    0.1100000000E+04    0.4458441103E+00    0.1991935078E+00    0.1308538478E+00    0.2506431837E-01    0.2150513467E+00
    0.1300000000E+04    0.4723619139E+00    0.1916941231E+00    0.1356464766E+00    0.2392482077E-01    0.2231466931E+00
    0.1500000000E+04    0.4942573736E+00    0.1850241679E+00    0.1397030044E+00    0.2291072667E-01    0.2300192581E+00
    0.1700000000E+04    0.5125578249E+00    0.1791013557E+00    0.1432136154E+00    0.2201040785E-01    0.2359828167E+00
    0.1900000000E+04    0.5280170417E+00    0.1738255150E+00    0.1463032907E+00    0.2120935580E-01    0.2412439866E+00
    0.2100000000E+04    0.5412007867E+00    0.1691020925E+00    0.1490585612E+00    0.2049363731E-01    0.2459460814E+00
    0.2300000000E+04    0.5525410193E+00    0.1648487887E+00    0.1515418194E+00    0.1985095161E-01    0.2501926099E+00
    0.2500000000E+04    0.5623721781E+00    0.1609962482E+00    0.1537995393E+00    0.1927080707E-01    0.2540607910E+00
    0.2700000000E+04    0.5709563447E+00    0.1574867754E+00    0.1558672703E+00    0.1874438552E-01    0.2576097764E+00
    0.2900000000E+04    0.5785011297E+00    0.1542725591E+00    0.1577728141E+00    0.1826431476E-01    0.2608858879E+00
    0.3100000000E+04    0.5851726236E+00    0.1513139479E+00    0.1595383247E+00    0.1782443461E-01    0.2639260832E+00
    0.3300000000E+04    0.5911049157E+00    0.1485779497E+00    0.1611817406E+00    0.1741958659E-01    0.2667603234E+00
    0.3500000000E+04    0.5964071796E+00    0.1460369860E+00    0.1627177906E+00    0.1704543546E-01    0.2694132357E+00
    0.3700000000E+04    0.6011690072E+00    0.1436678811E+00    0.1641587157E+00    0.1669832169E-01    0.2719053094E+00
    0.3900000000E+04    0.6054644667E+00    0.1414510494E+00    0.1655147991E+00    0.1637514123E-01    0.2742537742E+00
    0.4100000000E+04    0.6093552177E+00    0.1393698439E+00    0.1667947617E+00    0.1607324799E-01    0.2764732563E+00
    0.4300000000E+04    0.6128929252E+00    0.1374100355E+00    0.1680060631E+00    0.1579037490E-01    0.2785762778E+00
    0.4500000000E+04    0.6161211453E+00    0.1355593937E+00    0.1691551326E+00    0.1552456998E-01    0.2805736412E+00
    0.4700000000E+04    0.6190768101E+00    0.1338073499E+00    0.1702475505E+00    0.1527414436E-01    0.2824747305E+00
    0.4900000000E+04    0.6217914051E+00    0.1321447241E+00    0.1712881906E+00    0.1503762998E-01    0.2842877480E+00
    0.1000000000E+04    0.4304219639E+00    0.2032594062E+00    0.1280918494E+00    0.2568172250E-01    0.2103975025E+00
    0.3000000000E+04    0.5819370004E+00    0.1527635052E+00    0.1586718671E+00    0.1803969449E-01    0.2624334608E+00
    0.5000000000E+04    0.6230668871E+00    0.1313443985E+00    0.1717904524E+00    0.1492418246E-01    0.2851635176E+00
    0.7000000000E+04    0.6407891845E+00    0.1185354800E+00    0.1799284595E+00    0.1314631369E-01    0.2994233168E+00
    0.9000000000E+04    0.6503863483E+00    0.1095583574E+00    0.1857047463E+00    0.1194496318E-01    0.3096336038E+00
    0.1100000000E+05    0.6563269412E+00    0.1027197361E+00    0.1901150356E+00    0.1105478714E-01    0.3174867243E+00
    0.1300000000E+05    0.6603385400E+00    0.9723884150E-01    0.1936422068E+00    0.1035652320E-01    0.3238077658E+00
    0.1500000000E+05    0.6632176764E+00    0.9269340791E-01    0.1965556586E+00    0.9787311642E-02    0.3290591095E+00
    0.1700000000E+05    0.6653789469E+00    0.8882976965E-01    0.1990202802E+00    0.9310267530E-02    0.3335248724E+00
    0.1900000000E+05    0.6670581393E+00    0.8548384760E-01    0.2011439143E+00    0.8902022043E-02    0.3373915292E+00
    0.2100000000E+05    0.6683987236E+00    0.8254353397E-01    0.2030007108E+00    0.8546895470E-02    0.3407877062E+00
    0.2300000000E+05    0.6694927695E+00    0.7992892900E-01    0.2046436901E+00    0.8233889019E-02    0.3438056489E+00
    0.2500000000E+05    0.6704019589E+00    0.7758114645E-01    0.2061119796E+00    0.7955009148E-02    0.3465136187E+00
    0.2700000000E+05    0.6711691072E+00    0.7545558643E-01    0.2074352141E+00    0.7704276114E-02    0.3489634506E+00
    0.2900000000E+05    0.6718248321E+00    0.7351769499E-01    0.2086363341E+00    0.7477107923E-02    0.3511953681E+00
    0.3100000000E+05    0.6723915898E+00    0.7174018406E-01    0.2097334304E+00    0.7269921697E-02    0.3532411649E+00
    0.3300000000E+05    0.6728862131E+00    0.7010114759E-01    0.2107409997E+00    0.7079866789E-02    0.3551263743E+00
    0.3500000000E+05    0.6733215612E+00    0.6858274867E-01    0.2116708213E+00    0.6904640818E-02    0.3568717878E+00
    0.3700000000E+05    0.6737076226E+00    0.6717028217E-01    0.2125325852E+00    0.6742359651E-02    0.3584945433E+00
    0.3900000000E+05    0.6740522710E+00    0.6585149113E-01    0.2133343492E+00    0.6591463470E-02    0.3600089200E+00
    0.4100000000E+05    0.6743617947E+00    0.6461605911E-01    0.2140828796E+00    0.6450647599E-02    0.3614269306E+00
    0.4300000000E+05    0.6746412753E+00    0.6345522671E-01    0.2147839075E+00    0.6318810674E-02    0.3627587690E+00
    0.4500000000E+05    0.6748948633E+00    0.6236149779E-01    0.2154423259E+00    0.6195015235E-02    0.3640131534E+00
    0.4700000000E+05    0.6751259808E+00    0.6132841138E-01    0.2160623423E+00    0.6078457326E-02    0.3651975932E+00
    0.4900000000E+05    0.6753374747E+00    0.6035036243E-01    0.2166475978E+00    0.5968442768E-02    0.3663185982E+00
    0.1000000000E+05    0.6536730321E+00    0.1059325264E+00    0.1880434409E+00    0.1147033295E-01    0.3137913337E+00
    0.3000000000E+05    0.6721181707E+00    0.7261036963E-01    0.2091969067E+00    0.7371209917E-02    0.3522398093E+00
    0.5000000000E+05    0.6754366242E+00    0.5988042383E-01    0.2169281973E+00    0.5915697640E-02    0.3668571155E+00
    0.7000000000E+05    0.6768072145E+00    0.5245541902E-01    0.2213062501E+00    0.5092247178E-02    0.3753585229E+00
    0.9000000000E+05    0.6775539224E+00    0.4739610632E-01    0.2242241230E+00    0.4541910585E-02    0.3811484395E+00
    0.1100000000E+06    0.6780233307E+00    0.4364625908E-01    0.2263481380E+00    0.4139754112E-02    0.3854426049E+00
    0.1300000000E+06    0.6783455917E+00    0.4071493944E-01    0.2279830737E+00    0.3828876905E-02    0.3888036323E+00
    0.1500000000E+06    0.6785804761E+00    0.3833733073E-01    0.2292911970E+00    0.3579039641E-02    0.3915340952E+00
    0.1700000000E+06    0.6787592606E+00    0.3635577561E-01    0.2303680511E+00    0.3372449400E-02    0.3938137584E+00
    0.1900000000E+06    0.6788998926E+00    0.3466953762E-01    0.2312740992E+00    0.3197846629E-02    0.3957573206E+00
    0.2100000000E+06    0.6790134048E+00    0.3321072377E-01    0.2320497443E+00    0.3047704876E-02    0.3974420098E+00
    0.2300000000E+06    0.6791069514E+00    0.3193162482E-01    0.2327231596E+00    0.2916772865E-02    0.3989220603E+00
    0.2500000000E+06    0.6791853742E+00    0.3079756802E-01    0.2333146757E+00    0.2801258252E-02    0.4002368715E+00
    0.2700000000E+06    0.6792520671E+00    0.2978264730E-01    0.2338393841E+00    0.2698343545E-02    0.4014158752E+00
    0.2900000000E+06    0.6793094793E+00    0.2886705212E-01    0.2343087552E+00    0.2605885203E-02    0.4024815768E+00
    0.3100000000E+06    0.6793594225E+00    0.2803533107E-01    0.2347316846E+00    0.2522219163E-02    0.4034515310E+00
    0.3300000000E+06    0.6794032658E+00    0.2727522594E-01    0.2351151918E+00    0.2446030936E-02    0.4043396666E+00
    0.3500000000E+06    0.6794420630E+00    0.2657686669E-01    0.2354648997E+00    0.2376266343E-02    0.4051572016E+00
    0.3700000000E+06    0.6794766383E+00    0.2593220214E-01    0.2357853731E+00    0.2312068659E-02    0.4059132894E+00
    0.3900000000E+06    0.6795076457E+00    0.2533458864E-01    0.2360803611E+00    0.2252733388E-02    0.4066154860E+00
    0.4100000000E+06    0.6795356107E+00    0.2477848734E-01    0.2363529757E+00    0.2197675106E-02    0.4072700931E+00
    0.4300000000E+06    0.6795609606E+00    0.2425923767E-01    0.2366058242E+00    0.2146402730E-02    0.4078824157E+00
    0.4500000000E+06    0.6795840461E+00    0.2377288528E-01    0.2368411095E+00    0.2098500805E-02    0.4084569567E+00
    0.4700000000E+06    0.6796051579E+00    0.2331604953E-01    0.2370607079E+00    0.2053615131E-02    0.4089975679E+00
    0.4900000000E+06    0.6796245389E+00    0.2288582031E-01    0.2372662279E+00    0.2011441609E-02    0.4095075665E+00
    0.1000000000E+06    0.6778126639E+00    0.4539571465E-01    0.2253615450E+00    0.4326759577E-02    0.3834386542E+00
    0.3000000000E+06    0.6793352903E+00    0.2844153749E-01    0.2345255489E+00    0.2563042292E-02    0.4029775791E+00
    0.5000000000E+06    0.6796336457E+00    0.2267988203E-01    0.2373641499E+00    0.1991288376E-02    0.4097519996E+00
    0.7000000000E+06    0.6797610031E+00    0.1949200826E-01    0.2388383950E+00    0.1682251499E-02    0.4135654675E+00
    0.9000000000E+06    0.6798316824E+00    0.1738872146E-01    0.2397609149E+00    0.1481578184E-02    0.4161193445E+00
    0.1100000000E+07    0.6798766597E+00    0.1586439080E-01    0.2403986011E+00    0.1337897668E-02    0.4179949180E+00
    0.1300000000E+07    0.6799078125E+00    0.1469266430E-01    0.2408677997E+00    0.1228532573E-02    0.4194540159E+00
    0.1500000000E+07    0.6799306743E+00    0.1375476292E-01    0.2412281794E+00    0.1141711583E-02    0.4206348428E+00
    0.1700000000E+07    0.6799481718E+00    0.1298147087E-01    0.2415138020E+00    0.1070636262E-02    0.4216183844E+00
    0.1900000000E+07    0.6799619985E+00    0.1232932179E-01    0.2417456565E+00    0.1011069628E-02    0.4224557683E+00
    0.2100000000E+07    0.6799732026E+00    0.1176943997E-01    0.2419374423E+00    0.9602155265E-03    0.4231811318E+00
    0.2300000000E+07    0.6799824673E+00    0.1128178111E-01    0.2420985118E+00    0.9161443341E-03    0.4238182855E+00
    0.2500000000E+07    0.6799902576E+00    0.1085193135E-01    0.2422354843E+00    0.8774757498E-03    0.4243844310E+00
    0.2700000000E+07    0.6799969006E+00    0.1046922063E-01    0.2423531862E+00    0.8431928602E-03    0.4248923586E+00
    0.2900000000E+07    0.6800026331E+00    0.1012555620E-01    0.2424552246E+00    0.8125277547E-03    0.4253518104E+00
    0.3100000000E+07    0.6800076310E+00    0.9814672246E-02    0.2425443533E+00    0.7848882737E-03    0.4257703603E+00
    0.3300000000E+07    0.6800120275E+00    0.9531630628E-02    0.2426227130E+00    0.7598094790E-03    0.4261540012E+00
    0.3500000000E+07    0.6800159254E+00    0.9272479103E-02    0.2426919943E+00    0.7369205549E-03    0.4265075479E+00
    0.3700000000E+07    0.6800194054E+00    0.9034011378E-02    0.2427535509E+00    0.7159216587E-03    0.4268349211E+00
    0.3900000000E+07    0.6800225315E+00    0.8813594988E-02    0.2428084801E+00    0.6965673679E-03    0.4271393514E+00
    0.4100000000E+07    0.6800253553E+00    0.8609045413E-02    0.2428576814E+00    0.6786546139E-03    0.4274235293E+00
    0.4300000000E+07    0.6800279189E+00    0.8418532418E-02    0.2429018992E+00    0.6620137302E-03    0.4276897163E+00
    0.4500000000E+07    0.6800302568E+00    0.8240509302E-02    0.2429417549E+00    0.6465017096E-03    0.4279398304E+00
    0.4700000000E+07    0.6800323978E+00    0.8073658707E-02    0.2429777717E+00    0.6319970534E-03    0.4281755102E+00
    0.4900000000E+07    0.6800343658E+00    0.7916850581E-02    0.2430103932E+00    0.6183957857E-03    0.4283981660E+00
    0.1000000000E+07    0.6798564183E+00    0.1657195737E-01    0.2401061672E+00    0.1404400041E-02    0.4171213973E+00
    0.3000000000E+07    0.6800052147E+00    0.9966351808E-02    0.2425012567E+00    0.7983614046E-03    0.4255657919E+00
    0.5000000000E+07    0.6800352914E+00    0.7841902258E-02    0.2430255512E+00    0.6119054400E-03    0.4285049979E+00
    0.7000000000E+07    0.6800483034E+00    0.6690801655E-02    0.2432186047E+00    0.5131251785E-03    0.4301836626E+00
    0.9000000000E+07    0.6800555929E+00    0.5940524454E-02    0.2432960981E+00    0.4497292106E-03    0.4313242100E+00
    0.1100000000E+08    0.6800602671E+00    0.5401248298E-02    0.2433217151E+00    0.4046986705E-03    0.4321731253E+00
    0.1300000000E+08    0.6800635259E+00    0.4989238623E-02    0.2433207349E+00    0.3706242921E-03    0.4328417071E+00
    0.1500000000E+08    0.6800659315E+00    0.4661011264E-02    0.2433050156E+00    0.3436978638E-03    0.4333889318E+00
    0.1700000000E+08    0.6800677825E+00    0.4391427207E-02    0.2432807531E+00    0.3217364808E-03    0.4338495125E+00
    0.1900000000E+08    0.6800692525E+00    0.4164799156E-02    0.2432514372E+00    0.3033878477E-03    0.4342454667E+00
    0.2100000000E+08    0.6800704492E+00    0.3970759815E-02    0.2432191429E+00    0.2877639399E-03    0.4345915649E+00
    0.2300000000E+08    0.6800714432E+00    0.3802144153E-02    0.2431851547E+00    0.2742544883E-03    0.4348981581E+00
    0.2500000000E+08    0.6800722826E+00    0.3653819172E-02    0.2431502913E+00    0.2624245185E-03    0.4351727588E+00
    0.2700000000E+08    0.6800730012E+00    0.3521997543E-02    0.2431150860E+00    0.2519545719E-03    0.4354209782E+00
