  Pressure (Pa) 22mC5-400 (mol/kg) 2mC6-400 (mol/kg) 3mC6-400 (mol/kg) 33mC5-400 (mol/kg) C7-400 (mol/kg)
    0.1000000000E+01    0.2120222327E-02    0.1578799809E-02    0.5231321467E-03    0.4499619670E-03    0.1018704276E-01
    0.3000000000E+01    0.6296516172E-02    0.4573383207E-02    0.1514600770E-02    0.1303751119E-02    0.2949903381E-01
    0.5000000000E+01    0.1038982416E-01    0.7368485414E-02    0.2439280166E-02    0.2101096603E-02    0.4751627978E-01
    0.7000000000E+01    0.1440307507E-01    0.9983085491E-02    0.3303818098E-02    0.2847379460E-02    0.6436745325E-01
    0.9000000000E+01    0.1833905767E-01    0.1243375087E-01    0.4114004532E-02    0.3547295164E-02    0.8016463623E-01
    0.1100000000E+02    0.2220042899E-01    0.1473501465E-01    0.4874905840E-02    0.4204961060E-02    0.9500591456E-01
    0.1300000000E+02    0.2598972199E-01    0.1689968381E-01    0.5590974562E-02    0.4824004124E-02    0.1089775000E+00
    0.1500000000E+02    0.2970935275E-01    0.1893909274E-01    0.6266139776E-02    0.5407633123E-02    0.1221554774E+00
    0.1700000000E+02    0.3336162713E-01    0.2086331307E-01    0.6903881947E-02    0.5958698317E-02    0.1346072522E+00
    0.1900000000E+02    0.3694874700E-01    0.2268132831E-01    0.7507295284E-02    0.6479741156E-02    0.1463927557E+00
    0.2100000000E+02    0.4047281606E-01    0.2440118007E-01    0.8079139977E-02    0.6973035863E-02    0.1575654561E+00
    0.2300000000E+02    0.4393584523E-01    0.2603009112E-01    0.8621886173E-02    0.7440624424E-02    0.1681732082E+00
    0.2500000000E+02    0.4733975774E-01    0.2757456944E-01    0.9137751173E-02    0.7884346170E-02    0.1782589733E+00
    0.2700000000E+02    0.5068639387E-01    0.2904049665E-01    0.9628731050E-02    0.8305862902E-02    0.1878614306E+00
    0.2900000000E+02    0.5397751539E-01    0.3043320346E-01    0.1009662763E-01    0.8706680331E-02    0.1970154991E+00
    0.3100000000E+02    0.5721480972E-01    0.3175753432E-01    0.1054307163E-01    0.9088166449E-02    0.2057527853E+00
    0.3300000000E+02    0.6039989379E-01    0.3301790315E-01    0.1096954253E-01    0.9451567333E-02    0.2141019677E+00
    0.3500000000E+02    0.6353431774E-01    0.3421834132E-01    0.1137738575E-01    0.9798020792E-02    0.2220891292E+00
    0.3700000000E+02    0.6661956834E-01    0.3536253943E-01    0.1176782760E-01    0.1012856820E-01    0.2297380457E+00
    0.3900000000E+02    0.6965707217E-01    0.3645388350E-01    0.1214198813E-01    0.1044416478E-01    0.2370704359E+00
    0.4100000000E+02    0.7264819872E-01    0.3749548670E-01    0.1250089248E-01    0.1074568859E-01    0.2441061802E+00
    0.4300000000E+02    0.7559426315E-01    0.3849021702E-01    0.1284548075E-01    0.1103394838E-01    0.2508635118E+00
    0.4500000000E+02    0.7849652904E-01    0.3944072164E-01    0.1317661667E-01    0.1130969050E-01    0.2573591844E+00
    0.4700000000E+02    0.8135621086E-01    0.4034944841E-01    0.1349509522E-01    0.1157360498E-01    0.2636086198E+00
    0.4900000000E+02    0.8417447638E-01    0.4121866478E-01    0.1380164934E-01    0.1182633090E-01    0.2696260387E+00
    0.1000000000E+02    0.2027890861E-01    0.1360222028E-01    0.4500324299E-02    0.3881172072E-02    0.8769911904E-01
    0.3000000000E+02    0.5560278829E-01    0.3110363052E-01    0.1032243541E-01    0.8899759236E-02    0.2014343831E+00
    0.5000000000E+02    0.8556843074E-01    0.4163912000E-01    0.1395066832E-01    0.1194868511E-01    0.2725518859E+00
    0.7000000000E+02    0.1115249118E+00    0.4841228785E-01    0.1644465733E-01    0.1393187383E-01    0.3215981253E+00
    0.9000000000E+02    0.1343880377E+00    0.5291018444E-01    0.1827344436E-01    0.1526825635E-01    0.3576784134E+00
    0.1100000000E+03    0.1548022080E+00    0.5593022200E-01    0.1967729220E-01    0.1618243211E-01    0.3854621479E+00
    0.1300000000E+03    0.1732347598E+00    0.5794269456E-01    0.2079234506E-01    0.1680698771E-01    0.4075981829E+00
    0.1500000000E+03    0.1900334884E+00    0.5924414060E-01    0.2170169415E-01    0.1722568163E-01    0.4257049444E+00
    0.1700000000E+03    0.2054630791E+00    0.6003097468E-01    0.2245902662E-01    0.1749414142E-01    0.4408292793E+00
    0.1900000000E+03    0.2197289496E+00    0.6043828449E-01    0.2310063501E-01    0.1765075627E-01    0.4536796228E+00
    0.2100000000E+03    0.2329933028E+00    0.6056177422E-01    0.2365197109E-01    0.1772283367E-01    0.4647533316E+00
    0.2300000000E+03    0.2453862077E+00    0.6047088492E-01    0.2413143601E-01    0.1773027989E-01    0.4744103683E+00
    0.2500000000E+03    0.2570134175E+00    0.6021699742E-01    0.2455267920E-01    0.1768790149E-01    0.4829180255E+00
    0.2700000000E+03    0.2679619961E+00    0.5983875225E-01    0.2492604971E-01    0.1760689892E-01    0.4904791785E+00
    0.2900000000E+03    0.2783044371E+00    0.5936560687E-01    0.2525954425E-01    0.1749586605E-01    0.4972507517E+00
    0.3100000000E+03    0.2881017294E+00    0.5882027674E-01    0.2555944473E-01    0.1736147697E-01    0.5033561473E+00
    0.3300000000E+03    0.2974056704E+00    0.5822044808E-01    0.2583075831E-01    0.1720896862E-01    0.5088938268E+00
    0.3500000000E+03    0.3062606344E+00    0.5758000330E-01    0.2607752786E-01    0.1704248669E-01    0.5139433712E+00
    0.3700000000E+03    0.3147049415E+00    0.5690991244E-01    0.2630305547E-01    0.1686533775E-01    0.5185698453E+00
    0.3900000000E+03    0.3227719287E+00    0.5621889181E-01    0.2651006622E-01    0.1668017596E-01    0.5228269987E+00
    0.4100000000E+03    0.3304907960E+00    0.5551389685E-01    0.2670083010E-01    0.1648914320E-01    0.5267596496E+00
    0.4300000000E+03    0.3378872819E+00    0.5480049567E-01    0.2687725415E-01    0.1629397546E-01    0.5304054873E+00
    0.4500000000E+03    0.3449842067E+00    0.5408315499E-01    0.2704095288E-01    0.1609608466E-01    0.5337964513E+00
    0.4700000000E+03    0.3518019138E+00    0.5336546135E-01    0.2719330285E-01    0.1589662202E-01    0.5369598009E+00
    0.4900000000E+03    0.3583586299E+00    0.5265029367E-01    0.2733548543E-01    0.1569652778E-01    0.5399189522E+00
    0.1000000000E+03    0.1448686889E+00    0.5457023474E-01    0.1901832984E-01    0.1576834160E-01    0.3724098214E+00
    0.3000000000E+03    0.2832677970E+00    0.5910075793E-01    0.2541335507E-01    0.1743123464E-01    0.5003800642E+00
    0.5000000000E+03    0.3615443077E+00    0.5229439724E-01    0.2740308820E-01    0.1559648977E-01    0.5413283861E+00
    0.7000000000E+03    0.4148073406E+00    0.4566583263E-01    0.2840848389E-01    0.1368702880E-01    0.5625161295E+00
    0.9000000000E+03    0.4538410666E+00    0.4021267089E-01    0.2902426215E-01    0.1206172115E-01    0.5757746288E+00
    0.1100000000E+04    0.4836753693E+00    0.3583567866E-01    0.2944338975E-01    0.1072615922E-01    0.5849811067E+00
    0.1300000000E+04    0.5071487706E+00    0.3231086353E-01    0.2974846701E-01    0.9631701136E-02    0.5918103361E+00
    0.1500000000E+04    0.5260327108E+00    0.2944148590E-01    0.2998111032E-01    0.8728839192E-02    0.5971132834E+00
    0.1700000000E+04    0.5415019883E+00    0.2707589780E-01    0.3016469599E-01    0.7976867809E-02    0.6013717782E+00
    0.1900000000E+04    0.5543686879E+00    0.2510084193E-01    0.3031342236E-01    0.7344124771E-02    0.6048807100E+00
    0.2100000000E+04    0.5652118692E+00    0.2343203919E-01    0.3043643814E-01    0.6806341567E-02    0.6078314814E+00
    0.2300000000E+04    0.5744548189E+00    0.2200637233E-01    0.3053991774E-01    0.6344918156E-02    0.6103541792E+00
    0.2500000000E+04    0.5824134485E+00    0.2077608639E-01    0.3062818669E-01    0.5945514175E-02    0.6125405573E+00
    0.2700000000E+04    0.5893277850E+00    0.1970462923E-01    0.3070436981E-01    0.5596979469E-02    0.6144573393E+00
    0.2900000000E+04    0.5953830817E+00    0.1876369151E-01    0.3077078346E-01    0.5290562294E-02    0.6161543047E+00
    0.3100000000E+04    0.6007243249E+00    0.1793109399E-01    0.3082918276E-01    0.5019326944E-02    0.6176694088E+00
    0.3300000000E+04    0.6054664168E+00    0.1718926801E-01    0.3088092291E-01    0.4777724670E-02    0.6190321393E+00
    0.3500000000E+04    0.6097014548E+00    0.1652415184E-01    0.3092706765E-01    0.4561275726E-02    0.6202657822E+00
    0.3700000000E+04    0.6135040226E+00    0.1592438042E-01    0.3096846411E-01    0.4366331967E-02    0.6213889914E+00
    0.3900000000E+04    0.6169350922E+00    0.1538068409E-01    0.3100579557E-01    0.4189898046E-02    0.6224169012E+00
    0.4100000000E+04    0.6200449410E+00    0.1488543759E-01    0.3103961951E-01    0.4029495572E-02    0.6233619301E+00
    0.4300000000E+04    0.6228753597E+00    0.1443231823E-01    0.3107039540E-01    0.3883058971E-02    0.6242343721E+00
    0.4500000000E+04    0.6254613411E+00    0.1401604428E-01    0.3109850551E-01    0.3748854966E-02    0.6250428386E+00
    0.4700000000E+04    0.6278323869E+00    0.1363217286E-01    0.3112427049E-01    0.3625419786E-02    0.6257945938E+00
    0.4900000000E+04    0.6300135274E+00    0.1327694227E-01    0.3114796141E-01    0.3511509816E-02    0.6264958119E+00
    0.1000000000E+04    0.4696975181E+00    0.3790368913E-01    0.2925184663E-01    0.1136049006E-01    0.5807516620E+00
    0.3000000000E+04    0.5981351703E+00    0.1833504171E-01    0.3080089231E-01    0.5150922011E-02    0.6169325786E+00
    0.5000000000E+04    0.6310396839E+00    0.1310904698E-01    0.3115910257E-01    0.3457788561E-02    0.6268291512E+00
    0.7000000000E+04    0.6454291073E+00    0.1068084458E-01    0.3131441427E-01    0.2692361559E-02    0.6317996654E+00
    0.9000000000E+04    0.6533841187E+00    0.9241256169E-02    0.3139791426E-01    0.2253391847E-02    0.6348868016E+00
    0.1100000000E+05    0.6584012888E+00    0.8268236460E-02    0.3144791863E-01    0.1965760875E-02    0.6370305202E+00
    0.1300000000E+05    0.6618438326E+00    0.7555532280E-02    0.3147974149E-01    0.1760769142E-02    0.6386258043E+00
    0.1500000000E+05    0.6643481796E+00    0.7004668068E-02    0.3150069354E-01    0.1606050573E-02    0.6398703560E+00
    0.1700000000E+05    0.6662498821E+00    0.6562288500E-02    0.3151469520E-01    0.1484342127E-02    0.6408751521E+00
    0.1900000000E+05    0.6677421113E+00    0.6196753684E-02    0.3152402968E-01    0.1385572553E-02    0.6417077750E+00
    0.2100000000E+05    0.6689437284E+00    0.5887989746E-02    0.3153011138E-01    0.1303454264E-02    0.6424119727E+00
    0.2300000000E+05    0.6699317920E+00    0.5622576160E-02    0.3153385950E-01    0.1233848244E-02    0.6430174440E+00
    0.2500000000E+05    0.6707584066E+00    0.5391158236E-02    0.3153589475E-01    0.1173911476E-02    0.6435451339E+00
    0.2700000000E+05    0.6714600450E+00    0.5186989867E-02    0.3153664956E-01    0.1121621868E-02    0.6440102828E+00
    0.2900000000E+05    0.6720629895E+00    0.5005066936E-02    0.3153643315E-01    0.1075498787E-02    0.6444242738E+00
    0.3100000000E+05    0.6725866517E+00    0.4841588214E-02    0.3153547147E-01    0.1034431074E-02    0.6447957994E+00
    0.3300000000E+05    0.6730456760E+00    0.4693607029E-02    0.3153393276E-01    0.9975670857E-03    0.6451316249E+00
    0.3500000000E+05    0.6734513160E+00    0.4558798783E-02    0.3153194427E-01    0.9642420661E-03    0.6454371034E+00
    0.3700000000E+05    0.6738123605E+00    0.4435301407E-02    0.3152960363E-01    0.9339287939E-03    0.6457165323E+00
    0.3900000000E+05    0.6741357725E+00    0.4321603161E-02    0.3152698659E-01    0.9062032113E-03    0.6459734060E+00
    0.4100000000E+05    0.6744271392E+00    0.4216462035E-02    0.3152415260E-01    0.8807199585E-03    0.6462105985E+00
    0.4300000000E+05    0.6746909954E+00    0.4118846729E-02    0.3152114870E-01    0.8571946176E-03    0.6464304978E+00
    0.4500000000E+05    0.6749310596E+00    0.4027892708E-02    0.3151801245E-01    0.8353906037E-03    0.6466351064E+00
    0.4700000000E+05    0.6751504101E+00    0.3942868978E-02    0.3151477402E-01    0.8151093329E-03    0.6468261173E+00
    0.4900000000E+05    0.6753516164E+00    0.3863152616E-02    0.3151145779E-01    0.7961827458E-03    0.6470049733E+00
    0.1000000000E+05    0.6561492654E+00    0.8713082718E-02    0.3142586806E-01    0.2096224603E-02    0.6360451328E+00
    0.3000000000E+05    0.6723337227E+00    0.4921223083E-02    0.3153603383E-01    0.1054391328E-02    0.6446148837E+00
    0.5000000000E+05    0.6754461047E+00    0.3825114631E-02    0.3150977686E-01    0.7871818417E-03    0.6470902369E+00
    0.7000000000E+05    0.6767637516E+00    0.3245631225E-02    0.3147532114E-01    0.6524700312E-03    0.6483825090E+00
    0.9000000000E+05    0.6774918580E+00    0.2872143658E-02    0.3144259748E-01    0.5680419404E-03    0.6492088600E+00
    0.1100000000E+06    0.6779540148E+00    0.2605446514E-02    0.3141284635E-01    0.5089089839E-03    0.6497962345E+00
    0.1300000000E+06    0.6782736055E+00    0.2402577517E-02    0.3138592853E-01    0.4645797542E-03    0.6502419338E+00
    0.1500000000E+06    0.6785078945E+00    0.2241473124E-02    0.3136147511E-01    0.4297837151E-03    0.6505955010E+00
    0.1700000000E+06    0.6786870863E+00    0.2109473626E-02    0.3133912342E-01    0.4015471812E-03    0.6508851630E+00
    0.1900000000E+06    0.6788286223E+00    0.1998722111E-02    0.3131856363E-01    0.3780493179E-03    0.6511283369E+00
    0.2100000000E+06    0.6789432796E+00    0.1904047748E-02    0.3129954062E-01    0.3581050882E-03    0.6513364305E+00
    0.2300000000E+06    0.6790380770E+00    0.1821888643E-02    0.3128184589E-01    0.3409058875E-03    0.6515172714E+00
    0.2500000000E+06    0.6791177830E+00    0.1749699918E-02    0.3126530854E-01    0.3258787109E-03    0.6516764338E+00
    0.2700000000E+06    0.6791857505E+00    0.1685608062E-02    0.3124978754E-01    0.3126047520E-03    0.6518180100E+00
    0.2900000000E+06    0.6792444066E+00    0.1628198905E-02    0.3123516553E-01    0.3007699115E-03    0.6519450823E+00
    0.3100000000E+06    0.6792955514E+00    0.1576382131E-02    0.3122134401E-01    0.2901334176E-03    0.6520600224E+00
    0.3300000000E+06    0.6793405483E+00    0.1529301671E-02    0.3120823963E-01    0.2805072175E-03    0.6521646898E+00
    0.3500000000E+06    0.6793804491E+00    0.1486274666E-02    0.3119578128E-01    0.2717420270E-03    0.6522605656E+00
    0.3700000000E+06    0.6794160782E+00    0.1446748824E-02    0.3118390788E-01    0.2637176386E-03    0.6523488466E+00
    0.3900000000E+06    0.6794480907E+00    0.1410271947E-02    0.3117256657E-01    0.2563360333E-03    0.6524305118E+00
    0.4100000000E+06    0.6794770144E+00    0.1376469731E-02    0.3116171133E-01    0.2495163859E-03    0.6525063710E+00
    0.4300000000E+06    0.6795032785E+00    0.1345029306E-02    0.3115130184E-01    0.2431913771E-03    0.6525771008E+00
    0.4500000000E+06    0.6795272364E+00    0.1315686839E-02    0.3114130262E-01    0.2373044288E-03    0.6526432713E+00
    0.4700000000E+06    0.6795491813E+00    0.1288218066E-02    0.3113168224E-01    0.2318075993E-03    0.6527053674E+00
    0.4900000000E+06    0.6795693584E+00    0.1262430966E-02    0.3112241276E-01    0.2266599624E-03    0.6527638037E+00
    0.1000000000E+06    0.6777461385E+00    0.2728842337E-02    0.3142734816E-01    0.5361484710E-03    0.6495247085E+00
    0.3000000000E+06    0.6792708242E+00    0.1601649640E-02    0.3122816024E-01    0.2953146713E-03    0.6520039425E+00
    0.5000000000E+06    0.6795788500E+00    0.1250115417E-02    0.3111790171E-01    0.2242059028E-03    0.6527917632E+00
    0.7000000000E+06    0.6797124488E+00    0.1061754207E-02    0.3104124224E-01    0.1870400108E-03    0.6532243717E+00
    0.9000000000E+06    0.6797874955E+00    0.9397809656E-03    0.3098232123E-01    0.1633676828E-03    0.6535110533E+00
    0.1100000000E+07    0.6798357413E+00    0.8525032755E-03    0.3093440665E-01    0.1466384291E-03    0.6537205930E+00
    0.1300000000E+07    0.6798694595E+00    0.7860466750E-03    0.3089400262E-01    0.1340268210E-03    0.6538832976E+00
    0.1500000000E+07    0.6798944058E+00    0.7332445933E-03    0.3085905692E-01    0.1240898899E-03    0.6540149362E+00
    0.1700000000E+07    0.6799136422E+00    0.6899708479E-03    0.3082826046E-01    0.1160044535E-03    0.6541246569E+00
    0.1900000000E+07    0.6799289493E+00    0.6536590501E-03    0.3080072632E-01    0.1092624732E-03    0.6542181932E+00
    0.2100000000E+07    0.6799414344E+00    0.6226177490E-03    0.3077582548E-01    0.1035313562E-03    0.6542993524E+00
    0.2300000000E+07    0.6799518227E+00    0.5956806436E-03    0.3075309540E-01    0.9858312763E-04    0.6543707791E+00
    0.2500000000E+07    0.6799606093E+00    0.5720138640E-03    0.3073218598E-01    0.9425565632E-04    0.6544343779E+00
    0.2700000000E+07    0.6799681441E+00    0.5510032223E-03    0.3071282573E-01    0.9043009734E-04    0.6544915614E+00
    0.2900000000E+07    0.6799746813E+00    0.5321849524E-03    0.3069479984E-01    0.8701710594E-04    0.6545434035E+00
    0.3100000000E+07    0.6799804104E+00    0.5152014044E-03    0.3067793544E-01    0.8394805908E-04    0.6545907380E+00
    0.3300000000E+07    0.6799854754E+00    0.4997717179E-03    0.3066209125E-01    0.8116926927E-04    0.6546342239E+00
    0.3500000000E+07    0.6799899877E+00    0.4856718330E-03    0.3064715039E-01    0.7863805609E-04    0.6546743902E+00
    0.3700000000E+07    0.6799940351E+00    0.4727205161E-03    0.3063301502E-01    0.7632000983E-04    0.6547116676E+00
    0.3900000000E+07    0.6799976873E+00    0.4607693726E-03    0.3061960241E-01    0.7418704225E-04    0.6547464105E+00
    0.4100000000E+07    0.6800010010E+00    0.4496955670E-03    0.3060684198E-01    0.7221597037E-04    0.6547789144E+00
    0.4300000000E+07    0.6800040222E+00    0.4393964241E-03    0.3059467305E-01    0.7038746927E-04    0.6548094275E+00
    0.4500000000E+07    0.6800067889E+00    0.4297853617E-03    0.3058304303E-01    0.6868528550E-04    0.6548381603E+00
    0.4700000000E+07    0.6800093328E+00    0.4207887847E-03    0.3057190607E-01    0.6709563776E-04    0.6548652926E+00
    0.4900000000E+07    0.6800116805E+00    0.4123436809E-03    0.3056122194E-01    0.6560675449E-04    0.6548909794E+00
    0.1000000000E+07    0.6798139726E+00    0.8928997882E-03    0.3095725311E-01    0.1543588386E-03    0.6536230795E+00
    0.3000000000E+07    0.6799776370E+00    0.5234829217E-03    0.3068623193E-01    0.8544324184E-04    0.6545675895E+00
    0.5000000000E+07    0.6800127879E+00    0.4083106627E-03    0.3055603844E-01    0.6489687994E-04    0.6549033233E+00
    0.7000000000E+07    0.6800286216E+00    0.3466483041E-03    0.3046936809E-01    0.5414131794E-04    0.6550991329E+00
    0.9000000000E+07    0.6800377832E+00    0.3067418141E-03    0.3040427334E-01    0.4728726797E-04    0.6552345190E+00
    0.1100000000E+08    0.6800438213E+00    0.2781988982E-03    0.3035211715E-01    0.4244258128E-04    0.6553367861E+00
    0.1300000000E+08    0.6800481338E+00    0.2564723151E-03    0.3030859655E-01    0.3879008545E-04    0.6554183593E+00
    0.1500000000E+08    0.6800513868E+00    0.2392142947E-03    0.3027125325E-01    0.3591217093E-04    0.6554858732E+00
    0.1700000000E+08    0.6800539396E+00    0.2250735861E-03    0.3023854954E-01    0.3357051109E-04    0.6555432617E+00
    0.1900000000E+08    0.6800560038E+00    0.2132099985E-03    0.3020945908E-01    0.3161798568E-04    0.6555930373E+00
    0.2100000000E+08    0.6800577126E+00    0.2030699247E-03    0.3018326255E-01    0.2995826720E-04    0.6556368965E+00
    0.2300000000E+08    0.6800591542E+00    0.1942717238E-03    0.3015943617E-01    0.2852532237E-04    0.6556760357E+00
    0.2500000000E+08    0.6800603894E+00    0.1865425881E-03    0.3013758668E-01    0.2727218695E-04    0.6557113278E+00
    0.2700000000E+08    0.6800614616E+00    0.1796816162E-03    0.3011741126E-01    0.2616443428E-04    0.6557434289E+00
