  Pressure (Pa) 22mC5-400 (mol/kg) 2mC6-400 (mol/kg) 3mC6-400 (mol/kg) 33mC5-400 (mol/kg) C7-400 (mol/kg)
    0.1000000000E+01    0.2121455604E-02    0.7955632531E-03    0.1583835843E-02    0.6477661922E-03    0.3426772586E-02
    0.3000000000E+01    0.6307337158E-02    0.2339066350E-02    0.4666882879E-02    0.1904664009E-02    0.1009805574E-01
    0.5000000000E+01    0.1041913629E-01    0.3821836864E-02    0.7642171431E-02    0.3112292232E-02    0.1653723591E-01
    0.7000000000E+01    0.1445911574E-01    0.5246995335E-02    0.1051541165E-01    0.4273181963E-02    0.2275659403E-01
    0.9000000000E+01    0.1842944473E-01    0.6617453465E-02    0.1329191457E-01    0.5389694677E-02    0.2876755330E-01
    0.1100000000E+02    0.2233220372E-01    0.7935931496E-02    0.1597662642E-01    0.6464036356E-02    0.3458075290E-01
    0.1300000000E+02    0.2616938894E-01    0.9204973858E-02    0.1857415950E-01    0.7498270215E-02    0.4020611430E-01
    0.1500000000E+02    0.2994291656E-01    0.1042696329E-01    0.2108881994E-01    0.8494328188E-02    0.4565290089E-01
    0.1700000000E+02    0.3365462669E-01    0.1160413363E-01    0.2352463275E-01    0.9454021310E-02    0.5092977180E-01
    0.1900000000E+02    0.3730628709E-01    0.1273858132E-01    0.2588536443E-01    0.1037904911E-01    0.5604483051E-01
    0.2100000000E+02    0.4089959671E-01    0.1383227598E-01    0.2817454347E-01    0.1127100816E-01    0.6100566880E-01
    0.2300000000E+02    0.4443618899E-01    0.1488706985E-01    0.3039547887E-01    0.1213139978E-01    0.6581940666E-01
    0.2500000000E+02    0.4791763502E-01    0.1590470655E-01    0.3255127701E-01    0.1296163715E-01    0.7049272844E-01
    0.2700000000E+02    0.5134544642E-01    0.1688682893E-01    0.3464485695E-01    0.1376305168E-01    0.7503191578E-01
    0.2900000000E+02    0.5472107821E-01    0.1783498632E-01    0.3667896439E-01    0.1453689891E-01    0.7944287760E-01
    0.3100000000E+02    0.5804593139E-01    0.1875064112E-01    0.3865618438E-01    0.1528436386E-01    0.8373117738E-01
    0.3300000000E+02    0.6132135542E-01    0.1963517485E-01    0.4057895293E-01    0.1600656597E-01    0.8790205815E-01
    0.3500000000E+02    0.6454865060E-01    0.2048989370E-01    0.4244956764E-01    0.1670456355E-01    0.9196046529E-01
    0.3700000000E+02    0.6772907030E-01    0.2131603360E-01    0.4427019740E-01    0.1737935797E-01    0.9591106746E-01
    0.3900000000E+02    0.7086382301E-01    0.2211476492E-01    0.4604289135E-01    0.1803189740E-01    0.9975827571E-01
    0.4100000000E+02    0.7395407438E-01    0.2288719676E-01    0.4776958700E-01    0.1866308035E-01    0.1035062611E+00
    0.4300000000E+02    0.7700094912E-01    0.2363438090E-01    0.4945211780E-01    0.1927375890E-01    0.1071589708E+00
    0.4500000000E+02    0.8000553273E-01    0.2435731553E-01    0.5109222004E-01    0.1986474161E-01    0.1107201432E+00
    0.4700000000E+02    0.8296887326E-01    0.2505694853E-01    0.5269153923E-01    0.2043679634E-01    0.1141933211E+00
    0.4900000000E+02    0.8589198286E-01    0.2573418068E-01    0.5425163596E-01    0.2099065272E-01    0.1175818650E+00
    0.1000000000E+02    0.2038914378E-01    0.7283027018E-02    0.1464544862E-01    0.5932004739E-02    0.3169823688E-01
    0.3000000000E+02    0.5638976660E-01    0.1829678837E-01    0.3767452970E-01    0.1491385772E-01    0.8160202532E-01
    0.5000000000E+02    0.8733875794E-01    0.2606466576E-01    0.5501744172E-01    0.2126097468E-01    0.1192454022E+00
    0.7000000000E+02    0.1143833417E+00    0.3168562709E-01    0.6859700785E-01    0.2586371234E-01    0.1487676848E+00
    0.9000000000E+02    0.1383368157E+00    0.3582294698E-01    0.7955150162E-01    0.2925930884E-01    0.1726206341E+00
    0.1100000000E+03    0.1597922613E+00    0.3890030236E-01    0.8859861937E-01    0.3179096857E-01    0.1923509637E+00
    0.1300000000E+03    0.1791928138E+00    0.4120041928E-01    0.9621385287E-01    0.3368781367E-01    0.2089839618E+00
    0.1500000000E+03    0.1968766572E+00    0.4291863781E-01    0.1027250713E+00    0.3510826196E-01    0.2232269791E+00
    0.1700000000E+03    0.2131067321E+00    0.4419379541E-01    0.1083659247E+00    0.3616502014E-01    0.2355843611E+00
    0.1900000000E+03    0.2280908829E+00    0.4512691489E-01    0.1133075847E+00    0.3694019979E-01    0.2464257839E+00
    0.2100000000E+03    0.2419958471E+00    0.4579297243E-01    0.1176784354E+00    0.3749483254E-01    0.2560286593E+00
    0.2300000000E+03    0.2549571739E+00    0.4624855982E-01    0.1215767392E+00    0.3787506409E-01    0.2646054215E+00
    0.2500000000E+03    0.2670863907E+00    0.4653701737E-01    0.1250790420E+00    0.3811630327E-01    0.2723216396E+00
    0.2700000000E+03    0.2784762679E+00    0.4669195801E-01    0.1282459026E+00    0.3824607067E-01    0.2793083699E+00
    0.2900000000E+03    0.2892047464E+00    0.4673973904E-01    0.1311258935E+00    0.3828599716E-01    0.2856707813E+00
    0.3100000000E+03    0.2993379091E+00    0.4670122886E-01    0.1337584518E+00    0.3825325272E-01    0.2914943058E+00
    0.3300000000E+03    0.3089322567E+00    0.4659309097E-01    0.1361759503E+00    0.3816158533E-01    0.2968491072E+00
    0.3500000000E+03    0.3180364719E+00    0.4642873125E-01    0.1384052266E+00    0.3802208790E-01    0.3017933817E+00
    0.3700000000E+03    0.3266928010E+00    0.4621900622E-01    0.1404687301E+00    0.3784377205E-01    0.3063758334E+00
    0.3900000000E+03    0.3349381476E+00    0.4597275908E-01    0.1423853929E+00    0.3763400272E-01    0.3106375562E+00
    0.4100000000E+03    0.3428049457E+00    0.4569722985E-01    0.1441713006E+00    0.3739883103E-01    0.3146134821E+00
    0.4300000000E+03    0.3503218631E+00    0.4539837242E-01    0.1458402139E+00    0.3714325185E-01    0.3183335094E+00
    0.4500000000E+03    0.3575143721E+00    0.4508110181E-01    0.1474039791E+00    0.3687140495E-01    0.3218233890E+00
    0.4700000000E+03    0.3644052166E+00    0.4474948873E-01    0.1488728541E+00    0.3658673342E-01    0.3251054299E+00
    0.4900000000E+03    0.3710147974E+00    0.4440691376E-01    0.1502557691E+00    0.3629210941E-01    0.3281990631E+00
    0.1000000000E+03    0.1493462021E+00    0.3747392128E-01    0.8427946559E-01    0.3061676459E-01    0.1829277893E+00
    0.3000000000E+03    0.2943420091E+00    0.4673014280E-01    0.1324709330E+00    0.3827777945E-01    0.2886452047E+00
    0.5000000000E+03    0.3742199280E+00    0.4423241412E-01    0.1509174720E+00    0.3614183185E-01    0.3296806262E+00
    0.7000000000E+03    0.4271960796E+00    0.4064166059E-01    0.1611041635E+00    0.3302299303E-01    0.3526137218E+00
    0.9000000000E+03    0.4652945661E+00    0.3736830770E-01    0.1677130496E+00    0.3014254833E-01    0.3676517562E+00
    0.1100000000E+04    0.4940274615E+00    0.3459161144E-01    0.1724115165E+00    0.2767654190E-01    0.3784476649E+00
    0.1300000000E+04    0.5164228416E+00    0.3226441935E-01    0.1759553070E+00    0.2559720731E-01    0.3866646641E+00
    0.1500000000E+04    0.5343215804E+00    0.3030566847E-01    0.1787412391E+00    0.2384083842E-01    0.3931797801E+00
    0.1700000000E+04    0.5489173288E+00    0.2864171706E-01    0.1809995702E+00    0.2234639350E-01    0.3985039665E+00
    0.1900000000E+04    0.5610200825E+00    0.2721327727E-01    0.1828739719E+00    0.2106331594E-01    0.4029572605E+00
    0.2100000000E+04    0.5711988638E+00    0.2597423174E-01    0.1844591821E+00    0.1995151150E-01    0.4067514708E+00
    0.2300000000E+04    0.5798646876E+00    0.2488896445E-01    0.1858204491E+00    0.1897956243E-01    0.4100329898E+00
    0.2500000000E+04    0.5873213966E+00    0.2392987569E-01    0.1870043200E+00    0.1812284348E-01    0.4129066055E+00
    0.2700000000E+04    0.5937980975E+00    0.2307540986E-01    0.1880449787E+00    0.1736194617E-01    0.4154495267E+00
    0.2900000000E+04    0.5994705439E+00    0.2230856940E-01    0.1889681496E+00    0.1668145321E-01    0.4177200401E+00
    0.3100000000E+04    0.6044756222E+00    0.2161581417E-01    0.1897935973E+00    0.1606901026E-01    0.4197630672E+00
    0.3300000000E+04    0.6089213973E+00    0.2098624867E-01    0.1905367818E+00    0.1551462853E-01    0.4216138521E+00
    0.3500000000E+04    0.6128942215E+00    0.2041101947E-01    0.1912099867E+00    0.1501016050E-01    0.4233004795E+00
    0.3700000000E+04    0.6164638567E+00    0.1988286537E-01    0.1918231063E+00    0.1454890406E-01    0.4248456364E+00
    0.3900000000E+04    0.6196872257E+00    0.1939577867E-01    0.1923842081E+00    0.1412530152E-01    0.4262678731E+00
    0.4100000000E+04    0.6226111985E+00    0.1894474782E-01    0.1928999420E+00    0.1373470898E-01    0.4275825219E+00
    0.4300000000E+04    0.6252746904E+00    0.1852555999E-01    0.1933758426E+00    0.1337321826E-01    0.4288023791E+00
    0.4500000000E+04    0.6277102604E+00    0.1813464829E-01    0.1938165579E+00    0.1303751808E-01    0.4299382179E+00
    0.4700000000E+04    0.6299453426E+00    0.1776897235E-01    0.1942260216E+00    0.1272478514E-01    0.4309991812E+00
    0.4900000000E+04    0.6320032045E+00    0.1742592437E-01    0.1946075880E+00    0.1243259796E-01    0.4319930842E+00
    0.1000000000E+04    0.4806051531E+00    0.3591905490E-01    0.1702418104E+00    0.2885775148E-01    0.3734496829E+00
    0.3000000000E+04    0.6020491693E+00    0.2195366615E-01    0.1893920369E+00    0.1636739836E-01    0.4187675938E+00
    0.5000000000E+04    0.6329719984E+00    0.1726217050E-01    0.1947888256E+00    0.1229354494E-01    0.4324670268E+00
    0.7000000000E+04    0.6466097679E+00    0.1476277122E-01    0.1974726625E+00    0.1020906992E-01    0.4396540693E+00
    0.9000000000E+04    0.6542038292E+00    0.1314567043E-01    0.1991087054E+00    0.8903645073E-02    0.4442431816E+00
    0.1100000000E+05    0.6590197035E+00    0.1198586687E-01    0.2002202090E+00    0.7990977647E-02    0.4474948843E+00
    0.1300000000E+05    0.6623379788E+00    0.1109955123E-01    0.2010283926E+00    0.7307582340E-02    0.4499534299E+00
    0.1500000000E+05    0.6647597719E+00    0.1039250918E-01    0.2016440938E+00    0.6771408701E-02    0.4518967401E+00
    0.1700000000E+05    0.6666035096E+00    0.9810718286E-02    0.2021294146E+00    0.6336299940E-02    0.4534832983E+00
    0.1900000000E+05    0.6680532388E+00    0.9320635261E-02    0.2025220380E+00    0.5974080102E-02    0.4548108737E+00
    0.2100000000E+05    0.6692225931E+00    0.8900156495E-02    0.2028462421E+00    0.5666460356E-02    0.4559434511E+00
    0.2300000000E+05    0.6701854572E+00    0.8534029070E-02    0.2031184178E+00    0.5400988186E-02    0.4569248800E+00
    0.2500000000E+05    0.6709919159E+00    0.8211332514E-02    0.2033500548E+00    0.5168854048E-02    0.4577863431E+00
    0.2700000000E+05    0.6716771050E+00    0.7924009224E-02    0.2035494598E+00    0.4963627225E-02    0.4585506998E+00
    0.2900000000E+05    0.6722663918E+00    0.7665962970E-02    0.2037227955E+00    0.4780489218E-02    0.4592351379E+00
    0.3100000000E+05    0.6727785442E+00    0.7432482571E-02    0.2038747353E+00    0.4615748828E-02    0.4598528631E+00
    0.3300000000E+05    0.6732277417E+00    0.7219860401E-02    0.2040088910E+00    0.4466524300E-02    0.4604142106E+00
    0.3500000000E+05    0.6736248955E+00    0.7025132253E-02    0.2041280996E+00    0.4330528545E-02    0.4609274008E+00
    0.3700000000E+05    0.6739785371E+00    0.6845895350E-02    0.2042346224E+00    0.4205920131E-02    0.4613990647E+00
    0.3900000000E+05    0.6742954328E+00    0.6680178137E-02    0.2043302845E+00    0.4091197507E-02    0.4618346184E+00
    0.4100000000E+05    0.6745810174E+00    0.6526345272E-02    0.2044165761E+00    0.3985122378E-02    0.4622385352E+00
    0.4300000000E+05    0.6748397055E+00    0.6383027067E-02    0.2044947261E+00    0.3886663184E-02    0.4626145466E+00
    0.4500000000E+05    0.6750751205E+00    0.6249066275E-02    0.2045657576E+00    0.3794952742E-02    0.4629657936E+00
    0.4700000000E+05    0.6752902634E+00    0.6123477372E-02    0.2046305290E+00    0.3709256032E-02    0.4632949416E+00
    0.4900000000E+05    0.6754876415E+00    0.6005415018E-02    0.2046897664E+00    0.3628945380E-02    0.4636042692E+00
    0.1000000000E+05    0.6568552343E+00    0.1252314560E-01    0.1997124191E+00    0.8411224717E-02    0.4459931262E+00
    0.3000000000E+05    0.6725311341E+00    0.7546403774E-02    0.2038011932E+00    0.4696015493E-02    0.4595516366E+00
    0.5000000000E+05    0.6755803416E+00    0.5948974265E-02    0.2047175068E+00    0.3590638177E-02    0.4637521240E+00
    0.7000000000E+05    0.6768734417E+00    0.5081114389E-02    0.2050927132E+00    0.3008730785E-02    0.4660273628E+00
    0.9000000000E+05    0.6775878913E+00    0.4514341696E-02    0.2052781266E+00    0.2636149369E-02    0.4675216709E+00
    0.1100000000E+06    0.6780410404E+00    0.4106388638E-02    0.2053764080E+00    0.2371799627E-02    0.4686068369E+00
    0.1300000000E+06    0.6783540878E+00    0.3794382922E-02    0.2054283974E+00    0.2171889610E-02    0.4694452877E+00
    0.1500000000E+06    0.6785833243E+00    0.3545622071E-02    0.2054534378E+00    0.2013972585E-02    0.4701209762E+00
    0.1700000000E+06    0.6787584480E+00    0.3341174882E-02    0.2054617939E+00    0.1885203264E-02    0.4706823433E+00
    0.1900000000E+06    0.6788966082E+00    0.3169214673E-02    0.2054593674E+00    0.1777632735E-02    0.4711596106E+00
    0.2100000000E+06    0.6790083993E+00    0.3021918162E-02    0.2054497597E+00    0.1686045008E-02    0.4715727689E+00
    0.2300000000E+06    0.6791007197E+00    0.2893874195E-02    0.2054352712E+00    0.1606857456E-02    0.4719356574E+00
    0.2500000000E+06    0.6791782540E+00    0.2781203567E-02    0.2054174253E+00    0.1537517526E-02    0.4722582127E+00
    0.2700000000E+06    0.6792442952E+00    0.2681042326E-02    0.2053972604E+00    0.1476151094E-02    0.4725477856E+00
    0.2900000000E+06    0.6793012258E+00    0.2591223434E-02    0.2053755008E+00    0.1421347150E-02    0.4728099513E+00
    0.3100000000E+06    0.6793508122E+00    0.2510072595E-02    0.2053526617E+00    0.1372020483E-02    0.4730490288E+00
    0.3300000000E+06    0.6793943916E+00    0.2436272793E-02    0.2053291149E+00    0.1327321029E-02    0.4732684251E+00
    0.3500000000E+06    0.6794329949E+00    0.2368771763E-02    0.2053051324E+00    0.1286572238E-02    0.4734708706E+00
    0.3700000000E+06    0.6794674300E+00    0.2306717188E-02    0.2052809147E+00    0.1249228092E-02    0.4736585837E+00
    0.3900000000E+06    0.6794983387E+00    0.2249410301E-02    0.2052566109E+00    0.1214842453E-02    0.4738333889E+00
    0.4100000000E+06    0.6795262374E+00    0.2196272007E-02    0.2052323323E+00    0.1183046759E-02    0.4739968032E+00
    0.4300000000E+06    0.6795515462E+00    0.2146817729E-02    0.2052081621E+00    0.1153533525E-02    0.4741501004E+00
    0.4500000000E+06    0.6795746106E+00    0.2100638431E-02    0.2051841626E+00    0.1126043931E-02    0.4742943590E+00
    0.4700000000E+06    0.6795957171E+00    0.2057386098E-02    0.2051603800E+00    0.1100358362E-02    0.4744304999E+00
    0.4900000000E+06    0.6796151055E+00    0.2016762500E-02    0.2051368484E+00    0.1076289095E-02    0.4745593150E+00
    0.1000000000E+06    0.6778372671E+00    0.4295462421E-02    0.2053348586E+00    0.2493908518E-02    0.4681025816E+00
    0.3000000000E+06    0.6793268451E+00    0.2549653947E-02    0.2053641902E+00    0.1396056964E-02    0.4729321449E+00
    0.5000000000E+06    0.6796242199E+00    0.1997354683E-02    0.2051251848E+00    0.1064809201E-02    0.4746211931E+00
    0.7000000000E+06    0.6797519882E+00    0.1699989875E-02    0.2049081380E+00    0.8905413610E-03    0.4756007308E+00
    0.9000000000E+06    0.6798231847E+00    0.1506895532E-02    0.2047209585E+00    0.7791471195E-03    0.4762759962E+00
    0.1100000000E+07    0.6798686295E+00    0.1368463116E-02    0.2045582258E+00    0.7002385844E-03    0.4767851586E+00
    0.1300000000E+07    0.6799001849E+00    0.1262903798E-02    0.2044147446E+00    0.6406491991E-03    0.4771908132E+00
    0.1500000000E+07    0.6799233919E+00    0.1178937429E-02    0.2042865732E+00    0.5936342743E-03    0.4775262809E+00
    0.1700000000E+07    0.6799411876E+00    0.1110058247E-02    0.2041707942E+00    0.5553375062E-03    0.4778112738E+00
    0.1900000000E+07    0.6799552743E+00    0.1052214268E-02    0.2040652257E+00    0.5233747703E-03    0.4780583591E+00
    0.2100000000E+07    0.6799667072E+00    0.1002731896E-02    0.2039682051E+00    0.4961830661E-03    0.4782760106E+00
    0.2300000000E+07    0.6799761754E+00    0.9597658386E-03    0.2038784412E+00    0.4726897741E-03    0.4784701964E+00
    0.2500000000E+07    0.6799841478E+00    0.9219956731E-03    0.2037949133E+00    0.4521312981E-03    0.4786452688E+00
    0.2700000000E+07    0.6799909551E+00    0.8884481296E-03    0.2037168013E+00    0.4339474196E-03    0.4788044939E+00
    0.2900000000E+07    0.6799968367E+00    0.8583878258E-03    0.2036434370E+00    0.4177166548E-03    0.4789503817E+00
    0.3100000000E+07    0.6800019708E+00    0.8312473144E-03    0.2035742687E+00    0.4031150522E-03    0.4790849004E+00
    0.3300000000E+07    0.6800064924E+00    0.8065807459E-03    0.2035088358E+00    0.3898890104E-03    0.4792096203E+00
    0.3500000000E+07    0.6800105056E+00    0.7840322662E-03    0.2034467501E+00    0.3778368086E-03    0.4793258134E+00
    0.3700000000E+07    0.6800140923E+00    0.7633139105E-03    0.2033876808E+00    0.3667957326E-03    0.4794345235E+00
    0.3900000000E+07    0.6800173177E+00    0.7441897953E-03    0.2033313443E+00    0.3566328983E-03    0.4795366173E+00
    0.4100000000E+07    0.6800202341E+00    0.7264645904E-03    0.2032774953E+00    0.3472385803E-03    0.4796328217E+00
    0.4300000000E+07    0.6800228843E+00    0.7099749658E-03    0.2032259202E+00    0.3385212765E-03    0.4797237523E+00
    0.4500000000E+07    0.6800253035E+00    0.6945831458E-03    0.2031764321E+00    0.3304039991E-03    0.4798099346E+00
    0.4700000000E+07    0.6800275210E+00    0.6801719832E-03    0.2031288662E+00    0.3228214471E-03    0.4798918207E+00
    0.4900000000E+07    0.6800295611E+00    0.6666411473E-03    0.2030830767E+00    0.3157178239E-03    0.4799698022E+00
    0.1000000000E+07    0.6798481625E+00    0.1432564384E-02    0.2046368907E+00    0.7366734491E-03    0.4765464447E+00
    0.3000000000E+07    0.6799994880E+00    0.8444828849E-03    0.2036083590E+00    0.4102294575E-03    0.4790189560E+00
    0.5000000000E+07    0.6800305213E+00    0.6601783489E-03    0.2030608070E+00    0.3123303456E-03    0.4800074371E+00
    0.7000000000E+07    0.6800440709E+00    0.5612778801E-03    0.2026835484E+00    0.2609568536E-03    0.4806189574E+00
    0.9000000000E+07    0.6800517173E+00    0.4971775578E-03    0.2023947629E+00    0.2281678665E-03    0.4810587116E+00
    0.1100000000E+08    0.6800566511E+00    0.4512804752E-03    0.2021604561E+00    0.2049651149E-03    0.4814007112E+00
    0.1300000000E+08    0.6800601099E+00    0.4163142081E-03    0.2019631582E+00    0.1874565308E-03    0.4816798379E+00
    0.1500000000E+08    0.6800626759E+00    0.3885199666E-03    0.2017926774E+00    0.1736508512E-03    0.4819152375E+00
    0.1700000000E+08    0.6800646592E+00    0.3657325533E-03    0.2016425397E+00    0.1624106560E-03    0.4821185219E+00
    0.1900000000E+08    0.6800662410E+00    0.3466047231E-03    0.2015083719E+00    0.1530332873E-03    0.4822972512E+00
    0.2100000000E+08    0.6800675337E+00    0.3302482304E-03    0.2013870797E+00    0.1450583855E-03    0.4824566157E+00
    0.2300000000E+08    0.6800686113E+00    0.3160504203E-03    0.2012763916E+00    0.1381701958E-03    0.4826003291E+00
    0.2500000000E+08    0.6800695243E+00    0.3035731446E-03    0.2011745906E+00    0.1321440371E-03    0.4827311382E+00
    0.2700000000E+08    0.6800703086E+00    0.2924936055E-03    0.2010803471E+00    0.1268151372E-03    0.4828511301E+00
