  Pressure (Pa) 22mC5-400 (mol/kg) 2mC6-400 (mol/kg) 3mC6-400 (mol/kg) 33mC5-400 (mol/kg) C7-400 (mol/kg)
    0.1000000000E+01    0.2114259677E-02    0.4743292734E-02    0.2624494202E-02    0.1931073555E-03    0.3407079185E-02
    0.3000000000E+01    0.6244651954E-02    0.1377694189E-01    0.7647817124E-02    0.5609378810E-03    0.9929553585E-02
    0.5000000000E+01    0.1025050631E-01    0.2225024592E-01    0.1239237286E-01    0.9060248109E-03    0.1609166895E-01
    0.7000000000E+01    0.1413886428E-01    0.3021036464E-01    0.1688201890E-01    0.1230282364E-02    0.2192422328E-01
    0.9000000000E+01    0.1791622862E-01    0.3769932432E-01    0.2113793220E-01    0.1535416240E-02    0.2745455667E-01
    0.1100000000E+02    0.2158861424E-01    0.4475470200E-01    0.2517897679E-01    0.1822951429E-02    0.3270702541E-01
    0.1300000000E+02    0.2516159352E-01    0.5141020228E-01    0.2902201256E-01    0.2094255662E-02    0.3770340006E-01
    0.1500000000E+02    0.2864033664E-01    0.5769614620E-01    0.3268215568E-01    0.2350559276E-02    0.4246320131E-01
    0.1700000000E+02    0.3202964750E-01    0.6363988730E-01    0.3617299941E-01    0.2592972119E-02    0.4700398475E-01
    0.1900000000E+02    0.3533399596E-01    0.6926616743E-01    0.3950680207E-01    0.2822498009E-02    0.5134158333E-01
    0.2100000000E+02    0.3855754661E-01    0.7459742221E-01    0.4269464791E-01    0.3040047146E-02    0.5549031475E-01
    0.2300000000E+02    0.4170418470E-01    0.7965404444E-01    0.4574658504E-01    0.3246446808E-02    0.5946315950E-01
    0.2500000000E+02    0.4477753938E-01    0.8445461193E-01    0.4867174449E-01    0.3442450606E-02    0.6327191429E-01
    0.2700000000E+02    0.4778100473E-01    0.8901608539E-01    0.5147844302E-01    0.3628746525E-02    0.6692732488E-01
    0.2900000000E+02    0.5071775866E-01    0.9335398086E-01    0.5417427256E-01    0.3805963923E-02    0.7043920122E-01
    0.3100000000E+02    0.5359078007E-01    0.9748252044E-01    0.5676617787E-01    0.3974679651E-02    0.7381651787E-01
    0.3300000000E+02    0.5640286438E-01    0.1014147644E+00    0.5926052459E-01    0.4135423422E-02    0.7706750165E-01
    0.3500000000E+02    0.5915663761E-01    0.1051627275E+00    0.6166315873E-01    0.4288682525E-02    0.8019970847E-01
    0.3700000000E+02    0.6185456914E-01    0.1087374812E+00    0.6397945900E-01    0.4434905990E-02    0.8322009085E-01
    0.3900000000E+02    0.6449898346E-01    0.1121492449E+00    0.6621438296E-01    0.4574508265E-02    0.8613505743E-01
    0.4100000000E+02    0.6709207069E-01    0.1154074654E+00    0.6837250768E-01    0.4707872478E-02    0.8895052553E-01
    0.4300000000E+02    0.6963589633E-01    0.1185208892E+00    0.7045806589E-01    0.4835353333E-02    0.9167196773E-01
    0.4500000000E+02    0.7213241014E-01    0.1214976254E+00    0.7247497800E-01    0.4957279693E-02    0.9430445321E-01
    0.4700000000E+02    0.7458345419E-01    0.1243452029E+00    0.7442688062E-01    0.5073956883E-02    0.9685268457E-01
    0.4900000000E+02    0.7699077036E-01    0.1270706209E+00    0.7631715195E-01    0.5185668753E-02    0.9932103064E-01
    0.1000000000E+02    0.1976518562E-01    0.4127901973E-01    0.2318421563E-01    0.1681294750E-02    0.3011410707E-01
    0.3000000000E+02    0.5216205709E-01    0.9544357807E-01    0.5548280505E-01    0.3891350342E-02    0.7214414875E-01
    0.5000000000E+02    0.7817854911E-01    0.1283895740E+00    0.7724016659E-01    0.5239745982E-02    0.1005265280E+00
    0.7000000000E+02    0.9999549650E-01    0.1497197010E+00    0.9312242721E-01    0.6115945275E-02    0.1212931584E+00
    0.9000000000E+02    0.1188664159E+00    0.1640700944E+00    0.1053652324E+00    0.6707974853E-02    0.1373364991E+00
    0.1100000000E+03    0.1355672903E+00    0.1739449636E+00    0.1151803221E+00    0.7117426812E-02    0.1502255504E+00
    0.1300000000E+03    0.1506067771E+00    0.1808093253E+00    0.1232848216E+00    0.7403767888E-02    0.1608895914E+00
    0.1500000000E+03    0.1643338403E+00    0.1855731872E+00    0.1301321084E+00    0.7603966029E-02    0.1699165704E+00
    0.1700000000E+03    0.1769969508E+00    0.1888288822E+00    0.1360239617E+00    0.7742108995E-02    0.1776981293E+00
    0.1900000000E+03    0.1887785855E+00    0.1909767249E+00    0.1411697258E+00    0.7834496617E-02    0.1845061471E+00
    0.2100000000E+03    0.1998163105E+00    0.1922957280E+00    0.1457196289E+00    0.7892506696E-02    0.1905358655E+00
    0.2300000000E+03    0.2102161926E+00    0.1929854261E+00    0.1497845707E+00    0.7924290217E-02    0.1959315148E+00
    0.2500000000E+03    0.2200616256E+00    0.1931916546E+00    0.1534484065E+00    0.7935816416E-02    0.2008022270E+00
    0.2700000000E+03    0.2294193118E+00    0.1930230025E+00    0.1567758605E+00    0.7931539999E-02    0.2052322937E+00
    0.2900000000E+03    0.2383434207E+00    0.1925616326E+00    0.1598177912E+00    0.7914840078E-02    0.2092879926E+00
    0.3100000000E+03    0.2468785462E+00    0.1918705844E+00    0.1626147909E+00    0.7888316559E-02    0.2130222574E+00
    0.3300000000E+03    0.2550618519E+00    0.1909988158E+00    0.1651997085E+00    0.7853994868E-02    0.2164779518E+00
    0.3500000000E+03    0.2629246540E+00    0.1899847550E+00    0.1675994541E+00    0.7813470269E-02    0.2196902126E+00
    0.3700000000E+03    0.2704936100E+00    0.1888588479E+00    0.1698363162E+00    0.7768011414E-02    0.2226881599E+00
    0.3900000000E+03    0.2777916222E+00    0.1876454139E+00    0.1719289380E+00    0.7718635869E-02    0.2254961666E+00
    0.4100000000E+03    0.2848385346E+00    0.1863640182E+00    0.1738930534E+00    0.7666165982E-02    0.2281348146E+00
    0.4300000000E+03    0.2916516770E+00    0.1850304996E+00    0.1757420489E+00    0.7611270779E-02    0.2306216257E+00
    0.4500000000E+03    0.2982462934E+00    0.1836577495E+00    0.1774873984E+00    0.7554497736E-02    0.2329716268E+00
    0.4700000000E+03    0.3046358835E+00    0.1822563085E+00    0.1791390027E+00    0.7496297165E-02    0.2351977927E+00
    0.4900000000E+03    0.3108324773E+00    0.1808348286E+00    0.1807054592E+00    0.7437041094E-02    0.2373113960E+00
    0.1000000000E+03    0.1274516346E+00    0.1694584386E+00    0.1105233634E+00    0.6931118573E-02    0.1441068052E+00
    0.3000000000E+03    0.2426571303E+00    0.1922414759E+00    0.1612446969E+00    0.7902668144E-02    0.2111924204E+00
    0.5000000000E+03    0.3138618137E+00    0.1801188517E+00    0.1814591406E+00    0.7407115801E-02    0.2383291137E+00
    0.7000000000E+03    0.3664450399E+00    0.1659299829E+00    0.1934690481E+00    0.6805219206E-02    0.2546212000E+00
    0.9000000000E+03    0.4075175144E+00    0.1532022759E+00    0.2017872533E+00    0.6253567688E-02    0.2659990011E+00
    0.1100000000E+04    0.4404948341E+00    0.1423024286E+00    0.2080413765E+00    0.5773648835E-02    0.2746130713E+00
    0.1300000000E+04    0.4674474188E+00    0.1330417346E+00    0.2129912752E+00    0.5361053283E-02    0.2814720734E+00
    0.1500000000E+04    0.4897771246E+00    0.1251497595E+00    0.2170494134E+00    0.5006324703E-02    0.2871257646E+00
    0.1700000000E+04    0.5084886577E+00    0.1183786886E+00    0.2204631676E+00    0.4700017614E-02    0.2919050663E+00
    0.1900000000E+04    0.5243259876E+00    0.1125229600E+00    0.2233918404E+00    0.4433928705E-02    0.2960237856E+00
    0.2100000000E+04    0.5378519127E+00    0.1074174044E+00    0.2259436441E+00    0.4201255525E-02    0.2996275966E+00
    0.2300000000E+04    0.5494989679E+00    0.1029305517E+00    0.2281952084E+00    0.3996451862E-02    0.3028199445E+00
    0.2500000000E+04    0.5596038813E+00    0.9895777677E-01    0.2302026387E+00    0.3815018076E-02    0.3056767630E+00
    0.2700000000E+04    0.5684317360E+00    0.9541548393E-01    0.2320081524E+00    0.3653301244E-02    0.3082553281E+00
    0.2900000000E+04    0.5761933174E+00    0.9223647652E-01    0.2336442515E+00    0.3508325534E-02    0.3105998343E+00
    0.3100000000E+04    0.5830577881E+00    0.8936636362E-01    0.2351364478E+00    0.3377654738E-02    0.3127450461E+00
    0.3300000000E+04    0.5891620747E+00    0.8676079683E-01    0.2365051027E+00    0.3259283120E-02    0.3147187663E+00
    0.3500000000E+04    0.5946179031E+00    0.8438334914E-01    0.2377667044E+00    0.3151549463E-02    0.3165435524E+00
    0.3700000000E+04    0.5995171253E+00    0.8220388292E-01    0.2389347745E+00    0.3053069532E-02    0.3182379380E+00
    0.3900000000E+04    0.6039357911E+00    0.8019728869E-01    0.2400205277E+00    0.2962682956E-02    0.3198173217E+00
    0.4100000000E+04    0.6079372880E+00    0.7834250492E-01    0.2410333583E+00    0.2879411310E-02    0.3212946252E+00
    0.4300000000E+04    0.6115747828E+00    0.7662175139E-01    0.2419812067E+00    0.2802424895E-02    0.3226807886E+00
    0.4500000000E+04    0.6148931350E+00    0.7501992582E-01    0.2428708393E+00    0.2731016290E-02    0.3239851489E+00
    0.4700000000E+04    0.6179304075E+00    0.7352412564E-01    0.2437080640E+00    0.2664579174E-02    0.3252157335E+00
    0.4900000000E+04    0.6207190678E+00    0.7212326658E-01    0.2444978997E+00    0.2602591275E-02    0.3263794893E+00
    0.1000000000E+04    0.4248682270E+00    0.1475313366E+00    0.2051132710E+00    0.6004687475E-02    0.2705732063E+00
    0.3000000000E+04    0.5797284703E+00    0.9076578782E-01    0.2344069613E+00    0.3441336361E-02    0.3116954742E+00
    0.5000000000E+04    0.6220290251E+00    0.7145539672E-01    0.2448764327E+00    0.2573122105E-02    0.3269382276E+00
    0.7000000000E+04    0.6402010400E+00    0.6132873945E-01    0.2507707156E+00    0.2134308313E-02    0.3357324786E+00
    0.9000000000E+04    0.6500088540E+00    0.5483584535E-01    0.2546883386E+00    0.1862757370E-02    0.3416943825E+00
    0.1100000000E+05    0.6560628427E+00    0.5019626482E-01    0.2575357502E+00    0.1674404888E-02    0.3461021640E+00
    0.1300000000E+05    0.6601417856E+00    0.4665329275E-01    0.2597255799E+00    0.1534050093E-02    0.3495439518E+00
    0.1500000000E+05    0.6630639185E+00    0.4382452644E-01    0.2614768279E+00    0.1424238591E-02    0.3523347928E+00
    0.1700000000E+05    0.6652542046E+00    0.4149294094E-01    0.2629181484E+00    0.1335255290E-02    0.3546613025E+00
    0.1900000000E+05    0.6669538542E+00    0.3952474422E-01    0.2641308166E+00    0.1261221142E-02    0.3566422652E+00
    0.2100000000E+05    0.6683093829E+00    0.3783219927E-01    0.2651690665E+00    0.1198346587E-02    0.3583574996E+00
    0.2300000000E+05    0.6694146721E+00    0.3635495311E-01    0.2660706725E+00    0.1144065566E-02    0.3598629637E+00
    0.2500000000E+05    0.6703325324E+00    0.3504987954E-01    0.2668628677E+00    0.1096570574E-02    0.3611992487E+00
    0.2700000000E+05    0.6711065112E+00    0.3388519199E-01    0.2675658508E+00    0.1054546655E-02    0.3623966365E+00
    0.2900000000E+05    0.6717677168E+00    0.3283685147E-01    0.2681949636E+00    0.1017011119E-02    0.3634782557E+00
    0.3100000000E+05    0.6723389431E+00    0.3188627970E-01    0.2687620971E+00    0.9832127179E-03    0.3644621275E+00
    0.3300000000E+05    0.6728372621E+00    0.3101885009E-01    0.2692766293E+00    0.9525658579E-03    0.3653625375E+00
    0.3500000000E+05    0.6732757057E+00    0.3022286127E-01    0.2697460695E+00    0.9246063295E-03    0.3661909806E+00
    0.3700000000E+05    0.6736643893E+00    0.2948882026E-01    0.2701765114E+00    0.8989606979E-03    0.3669568287E+00
    0.3900000000E+05    0.6740112818E+00    0.2880893027E-01    0.2705729582E+00    0.8753246372E-03    0.3676678123E+00
    0.4100000000E+05    0.6743227440E+00    0.2817671722E-01    0.2709395614E+00    0.8534472740E-03    0.3683303742E+00
    0.4300000000E+05    0.6746039133E+00    0.2758675259E-01    0.2712797988E+00    0.8331196648E-03    0.3689499346E+00
    0.4500000000E+05    0.6748589837E+00    0.2703444448E-01    0.2715966080E+00    0.8141661738E-03    0.3695310915E+00
    0.4700000000E+05    0.6750914119E+00    0.2651587763E-01    0.2718924903E+00    0.7964379274E-03    0.3700777757E+00
    0.4900000000E+05    0.6753040721E+00    0.2602768966E-01    0.2721695902E+00    0.7798077769E-03    0.3705933707E+00
    0.1000000000E+05    0.6533601349E+00    0.5234450417E-01    0.2562135424E+00    0.1760991538E-02    0.3440466561E+00
    0.3000000000E+05    0.6720633993E+00    0.3235033741E-01    0.2684856414E+00    0.9996846584E-03    0.3639814423E+00
    0.5000000000E+05    0.6754037576E+00    0.2579406383E-01    0.2723016851E+00    0.7718697104E-03    0.3708404412E+00
    0.7000000000E+05    0.6767811335E+00    0.2218080867E-01    0.2742972319E+00    0.6507816164E-03    0.3746915432E+00
    0.9000000000E+05    0.6775311700E+00    0.1979835141E-01    0.2755553931E+00    0.5726792416E-03    0.3772674179E+00
    0.1100000000E+06    0.6780026326E+00    0.1807146459E-01    0.2764318974E+00    0.5169487707E-03    0.3791579049E+00
    0.1300000000E+06    0.6783263364E+00    0.1674358040E-01    0.2770819716E+00    0.4746115988E-03    0.3806280957E+00
    0.1500000000E+06    0.6785623174E+00    0.1568026454E-01    0.2775853395E+00    0.4410426329E-03    0.3818177048E+00
    0.1700000000E+06    0.6787419793E+00    0.1480322620E-01    0.2779875894E+00    0.4135836127E-03    0.3828085124E+00
    0.1900000000E+06    0.6788833389E+00    0.1406330976E-01    0.2783168656E+00    0.3905832894E-03    0.3836521044E+00
    0.2100000000E+06    0.6789974701E+00    0.1342785966E-01    0.2785915739E+00    0.3709544981E-03    0.3843829014E+00
    0.2300000000E+06    0.6790915534E+00    0.1287420505E-01    0.2788243052E+00    0.3539482916E-03    0.3850249000E+00
    0.2500000000E+06    0.6791704488E+00    0.1238604040E-01    0.2790239900E+00    0.3390296394E-03    0.3855954286E+00
    0.2700000000E+06    0.6792375628E+00    0.1195129282E-01    0.2791971533E+00    0.3258047711E-03    0.3861073675E+00
    0.2900000000E+06    0.6792953538E+00    0.1156080353E-01    0.2793486828E+00    0.3139765768E-03    0.3865705251E+00
    0.3100000000E+06    0.6793456407E+00    0.1120747974E-01    0.2794823179E+00    0.3033160947E-03    0.3869925250E+00
    0.3300000000E+06    0.6793897980E+00    0.1088573034E-01    0.2796009718E+00    0.2936436486E-03    0.3873793982E+00
    0.3500000000E+06    0.6794288836E+00    0.1059107945E-01    0.2797069503E+00    0.2848159982E-03    0.3877359898E+00
    0.3700000000E+06    0.6794637254E+00    0.1031989522E-01    0.2798021041E+00    0.2767173604E-03    0.3880662444E+00
    0.3900000000E+06    0.6794949800E+00    0.1006919518E-01    0.2798879367E+00    0.2692529943E-03    0.3883734122E+00
    0.4100000000E+06    0.6795231754E+00    0.9836503852E-02    0.2799656830E+00    0.2623445283E-03    0.3886601996E+00
    0.4300000000E+06    0.6795487406E+00    0.9619746839E-02    0.2800363676E+00    0.2559264959E-03    0.3889288818E+00
    0.4500000000E+06    0.6795720281E+00    0.9417170786E-02    0.2801008477E+00    0.2499437267E-03    0.3891813878E+00
    0.4700000000E+06    0.6795933299E+00    0.9227282056E-02    0.2801598468E+00    0.2443493551E-03    0.3894193658E+00
    0.4900000000E+06    0.6796128901E+00    0.9048799168E-02    0.2802139795E+00    0.2391032794E-03    0.3896442345E+00
    0.1000000000E+06    0.6777910417E+00    0.1887311591E-01    0.2760290890E+00    0.5427265168E-03    0.3782775472E+00
    0.3000000000E+06    0.6793213407E+00    0.1137987538E-01    0.2794175386E+00    0.3085125831E-03    0.3867862610E+00
    0.5000000000E+06    0.6796220828E+00    0.8963483112E-02    0.2802393883E+00    0.2365998685E-03    0.3897521431E+00
    0.7000000000E+06    0.6797507794E+00    0.7652479898E-02    0.2805871498E+00    0.1984931034E-03    0.3914491810E+00
    0.9000000000E+06    0.6798223542E+00    0.6797278288E-02    0.2807622990E+00    0.1740283433E-03    0.3926040865E+00
    0.1100000000E+07    0.6798679875E+00    0.6182227831E-02    0.2808562159E+00    0.1566454761E-03    0.3934649007E+00
    0.1300000000E+07    0.6798996489E+00    0.5712117535E-02    0.2809061602E+00    0.1434883884E-03    0.3941436916E+00
    0.1500000000E+07    0.6799229205E+00    0.5337471307E-02    0.2809301132E+00    0.1330888793E-03    0.3946998814E+00
    0.1700000000E+07    0.6799407580E+00    0.5029671495E-02    0.2809377625E+00    0.1246052159E-03    0.3951684681E+00
    0.1900000000E+07    0.6799548728E+00    0.4770852611E-02    0.2809347501E+00    0.1175158590E-03    0.3955716636E+00
    0.2100000000E+07    0.6799663251E+00    0.4549203722E-02    0.2809245580E+00    0.1114782673E-03    0.3959243777E+00
    0.2300000000E+07    0.6799758071E+00    0.4356559627E-02    0.2809094328E+00    0.1062570022E-03    0.3962370649E+00
    0.2500000000E+07    0.6799837894E+00    0.4187069278E-02    0.2808908761E+00    0.1016842279E-03    0.3965173169E+00
    0.2700000000E+07    0.6799906038E+00    0.4036414548E-02    0.2808699204E+00    0.9763666393E-04    0.3967708072E+00
    0.2900000000E+07    0.6799964907E+00    0.3901329131E-02    0.2808472921E+00    0.9402146108E-04    0.3970018783E+00
    0.3100000000E+07    0.6800016286E+00    0.3779290127E-02    0.2808235118E+00    0.9076718794E-04    0.3972139225E+00
    0.3300000000E+07    0.6800061529E+00    0.3668313487E-02    0.2807989585E+00    0.8781787723E-04    0.3974096364E+00
    0.3500000000E+07    0.6800101680E+00    0.3566814350E-02    0.2807739115E+00    0.8512897637E-04    0.3975911962E+00
    0.3700000000E+07    0.6800137560E+00    0.3473509256E-02    0.2807485785E+00    0.8266452208E-04    0.3977603819E+00
    0.3900000000E+07    0.6800169821E+00    0.3387346149E-02    0.2807231154E+00    0.8039512470E-04    0.3979186662E+00
    0.4100000000E+07    0.6800198989E+00    0.3307453286E-02    0.2806976397E+00    0.7829650176E-04    0.3980672810E+00
    0.4300000000E+07    0.6800225492E+00    0.3233101310E-02    0.2806722400E+00    0.7634839209E-04    0.3982072657E+00
    0.4500000000E+07    0.6800249682E+00    0.3163674638E-02    0.2806469835E+00    0.7453373934E-04    0.3983395053E+00
    0.4700000000E+07    0.6800271853E+00    0.3098649587E-02    0.2806219208E+00    0.7283806916E-04    0.3984647588E+00
    0.4900000000E+07    0.6800292250E+00    0.3037577430E-02    0.2805970898E+00    0.7124900813E-04    0.3985836818E+00
    0.1000000000E+07    0.6798474408E+00    0.6467231835E-02    0.2808164168E+00    0.1646773154E-03    0.3930624813E+00
    0.3000000000E+07    0.6799991440E+00    0.3838813575E-02    0.2808355195E+00    0.9235301397E-04    0.3971100963E+00
    0.5000000000E+07    0.6800301848E+00    0.3008400630E-02    0.2805847704E+00    0.7049106959E-04    0.3986409505E+00
    0.7000000000E+07    0.6800437252E+00    0.2561364782E-02    0.2803542224E+00    0.5898269115E-04    0.3995600194E+00
    0.9000000000E+07    0.6800513611E+00    0.2271069326E-02    0.2801536820E+00    0.5162352497E-04    0.4002075667E+00
    0.1100000000E+08    0.6800562849E+00    0.2062931913E-02    0.2799782413E+00    0.4640894957E-04    0.4007035116E+00
    0.1300000000E+08    0.6800597346E+00    0.1904202404E-02    0.2798228115E+00    0.4247009630E-04    0.4011034001E+00
    0.1500000000E+08    0.6800622923E+00    0.1777927662E-02    0.2796834316E+00    0.3936176666E-04    0.4014372973E+00
    0.1700000000E+08    0.6800642682E+00    0.1674330433E-02    0.2795571277E+00    0.3682936479E-04    0.4017232265E+00
    0.1900000000E+08    0.6800658430E+00    0.1587321170E-02    0.2794416527E+00    0.3471546197E-04    0.4019728053E+00
    0.2100000000E+08    0.6800671293E+00    0.1512881766E-02    0.2793352819E+00    0.3291683442E-04    0.4021939403E+00
    0.2300000000E+08    0.6800682010E+00    0.1448238884E-02    0.2792366681E+00    0.3136263457E-04    0.4023922454E+00
    0.2500000000E+08    0.6800691085E+00    0.1391407947E-02    0.2791447407E+00    0.3000241995E-04    0.4025718436E+00
    0.2700000000E+08    0.6800698876E+00    0.1340926085E-02    0.2790586363E+00    0.2879917888E-04    0.4027358486E+00
