  Pressure (Pa) 22mC5-400 (mol/kg) 2mC6-400 (mol/kg) 3mC6-400 (mol/kg) 33mC5-400 (mol/kg) C7-400 (mol/kg)
    0.1000000000E+01    0.2116144564E-02    0.3922904335E-02    0.1559403976E-02    0.6389039387E-04    0.1180954946E-01
    0.3000000000E+01    0.6260967368E-02    0.1123411558E-01    0.4461306549E-02    0.1830250564E-03    0.3379351599E-01
    0.5000000000E+01    0.1029412759E-01    0.1791037224E-01    0.7106870961E-02    0.2918929871E-03    0.5384472805E-01
    0.7000000000E+01    0.1422121685E-01    0.2403097138E-01    0.9529499750E-02    0.3917786735E-03    0.7221465702E-01
    0.9000000000E+01    0.1804744758E-01    0.2966212806E-01    0.1175699685E-01    0.4837541973E-03    0.8911265710E-01
    0.1100000000E+02    0.2177768480E-01    0.3485960710E-01    0.1381269562E-01    0.5687220353E-03    0.1047144473E+00
    0.1300000000E+02    0.2541647481E-01    0.3967074052E-01    0.1571632457E-01    0.6474478593E-03    0.1191686216E+00
    0.1500000000E+02    0.2896807103E-01    0.4413599191E-01    0.1748467921E-01    0.7205859607E-03    0.1326017019E+00
    0.1700000000E+02    0.3243645739E-01    0.4829018236E-01    0.1913214899E-01    0.7886991686E-03    0.1451221014E+00
    0.1900000000E+02    0.3582536948E-01    0.5216346070E-01    0.2067113445E-01    0.8522746076E-03    0.1568232622E+00
    0.2100000000E+02    0.3913831379E-01    0.5578207824E-01    0.2211238036E-01    0.9117362773E-03    0.1677861619E+00
    0.2300000000E+02    0.4237858512E-01    0.5916901282E-01    0.2346524406E-01    0.9674551801E-03    0.1780813321E+00
    0.2500000000E+02    0.4554928246E-01    0.6234447525E-01    0.2473791315E-01    0.1019757538E-02    0.1877704966E+00
    0.2700000000E+02    0.4865332345E-01    0.6532632352E-01    0.2593758342E-01    0.1068931512E-02    0.1969079103E+00
    0.2900000000E+02    0.5169345761E-01    0.6813040368E-01    0.2707060514E-01    0.1115232726E-02    0.2055414601E+00
    0.3100000000E+02    0.5467227832E-01    0.7077083248E-01    0.2814260426E-01    0.1158888850E-02    0.2137135770E+00
    0.3300000000E+02    0.5759223393E-01    0.7326023285E-01    0.2915858324E-01    0.1200103416E-02    0.2214619953E+00
    0.3500000000E+02    0.6045563780E-01    0.7560993139E-01    0.3012300547E-01    0.1239059013E-02    0.2288203879E+00
    0.3700000000E+02    0.6326467762E-01    0.7783012488E-01    0.3103986632E-01    0.1275919987E-02    0.2358189011E+00
    0.3900000000E+02    0.6602142390E-01    0.7993002129E-01    0.3191275326E-01    0.1310834720E-02    0.2424846076E+00
    0.4100000000E+02    0.6872783780E-01    0.8191795985E-01    0.3274489681E-01    0.1343937577E-02    0.2488418898E+00
    0.4300000000E+02    0.7138577832E-01    0.8380151377E-01    0.3353921417E-01    0.1375350560E-02    0.2549127687E+00
    0.4500000000E+02    0.7399700898E-01    0.8558757841E-01    0.3429834646E-01    0.1405184742E-02    0.2607171840E+00
    0.4700000000E+02    0.7656320393E-01    0.8728244734E-01    0.3502469085E-01    0.1433541492E-02    0.2662732362E+00
    0.4900000000E+02    0.7908595358E-01    0.8889187823E-01    0.3572042824E-01    0.1460513538E-02    0.2715973953E+00
    0.1000000000E+02    0.1992427408E-01    0.3231194162E-01    0.1280501219E-01    0.5270633448E-03    0.9706572088E-01
    0.3000000000E+02    0.5319037585E-01    0.6947025304E-01    0.2761390632E-01    0.1137378178E-02    0.2096827372E+00
    0.5000000000E+02    0.8033151184E-01    0.8966622138E-01    0.3605744768E-01    0.1473507143E-02    0.2741772610E+00
    0.7000000000E+02    0.1032923470E+00    0.1017427824E+00    0.4159157069E-01    0.1677997079E-02    0.3166268330E+00
    0.9000000000E+02    0.1232439245E+00    0.1092828832E+00    0.4553906285E-01    0.1808556287E-02    0.3470281315E+00
    0.1100000000E+03    0.1409365607E+00    0.1140450136E+00    0.4851930709E-01    0.1893532275E-02    0.3700689189E+00
    0.1300000000E+03    0.1568751675E+00    0.1170002501E+00    0.5086270461E-01    0.1948612327E-02    0.3882534187E+00
    0.1500000000E+03    0.1714133118E+00    0.1187294448E+00    0.5276245293E-01    0.1983208867E-02    0.4030480075E+00
    0.1700000000E+03    0.1848068853E+00    0.1196007229E+00    0.5433951524E-01    0.2003310520E-02    0.4153720748E+00
    0.1900000000E+03    0.1972463138E+00    0.1198578577E+00    0.5567374649E-01    0.2012901416E-02    0.4258333916E+00
    0.2100000000E+03    0.2088767229E+00    0.1196679391E+00    0.5682013835E-01    0.2014727038E-02    0.4348510587E+00
    0.2300000000E+03    0.2198110227E+00    0.1191487223E+00    0.5781788962E-01    0.2010733959E-02    0.4427242122E+00
    0.2500000000E+03    0.2301386649E+00    0.1183851081E+00    0.5869575522E-01    0.2002335168E-02    0.4496725744E+00
    0.2700000000E+03    0.2399316615E+00    0.1174394823E+00    0.5947534652E-01    0.1990576766E-02    0.4558614946E+00
    0.2900000000E+03    0.2492488200E+00    0.1163584226E+00    0.6017324664E-01    0.1976246292E-02    0.4614180118E+00
    0.3100000000E+03    0.2581387871E+00    0.1151771748E+00    0.6080241102E-01    0.1959945177E-02    0.4664414983E+00
    0.3300000000E+03    0.2666422745E+00    0.1139227138E+00    0.6137312117E-01    0.1942138406E-02    0.4710109141E+00
    0.3500000000E+03    0.2747937167E+00    0.1126158828E+00    0.6189365019E-01    0.1923189299E-02    0.4751898723E+00
    0.3700000000E+03    0.2826225217E+00    0.1112729151E+00    0.6237073742E-01    0.1903384347E-02    0.4790302552E+00
    0.3900000000E+03    0.2901540292E+00    0.1099065367E+00    0.6280993333E-01    0.1882951229E-02    0.4825748432E+00
    0.4100000000E+03    0.2974102525E+00    0.1085267745E+00    0.6321585460E-01    0.1862072096E-02    0.4858592615E+00
    0.4300000000E+03    0.3044104608E+00    0.1071415594E+00    0.6359237560E-01    0.1840893491E-02    0.4889134419E+00
    0.4500000000E+03    0.3111716390E+00    0.1057571796E+00    0.6394277420E-01    0.1819533848E-02    0.4917627367E+00
    0.4700000000E+03    0.3177088566E+00    0.1043786262E+00    0.6426984412E-01    0.1798089230E-02    0.4944287783E+00
    0.4900000000E+03    0.3240355640E+00    0.1030098590E+00    0.6457598264E-01    0.1776637758E-02    0.4969301503E+00
    0.1000000000E+03    0.1323366673E+00    0.1119382935E+00    0.4712508336E-01    0.1855565449E-02    0.3592791273E+00
    0.3000000000E+03    0.2537444938E+00    0.1157784711E+00    0.6049572446E-01    0.1968310271E-02    0.4639910383E+00
    0.5000000000E+03    0.3271237975E+00    0.1023301523E+00    0.6472186066E-01    0.1765929825E-02    0.4981241912E+00
    0.7000000000E+03    0.3802248697E+00    0.8972258168E-01    0.6692066224E-01    0.1561691158E-02    0.5163160053E+00
    0.9000000000E+03    0.4210208503E+00    0.7926649286E-01    0.6830260354E-01    0.1385476527E-02    0.5279887932E+00
    0.1100000000E+04    0.4533359793E+00    0.7074416845E-01    0.6926445547E-01    0.1237792447E-02    0.5362654502E+00
    0.1300000000E+04    0.4794570868E+00    0.6377741193E-01    0.6997842441E-01    0.1114474381E-02    0.5425147151E+00
    0.1500000000E+04    0.5009039105E+00    0.5803348981E-01    0.7053248061E-01    0.1011089340E-02    0.5474420645E+00
    0.1700000000E+04    0.5187445272E+00    0.5324978749E-01    0.7097668598E-01    0.9238312682E-03    0.5514522953E+00
    0.1900000000E+04    0.5337553365E+00    0.4922475023E-01    0.7134181773E-01    0.8496205427E-03    0.5547961927E+00
    0.2100000000E+04    0.5465139616E+00    0.4580442373E-01    0.7164793121E-01    0.7860131283E-03    0.5576383624E+00
    0.2300000000E+04    0.5574578634E+00    0.4287076743E-01    0.7190870364E-01    0.7310785104E-03    0.5600918314E+00
    0.2500000000E+04    0.5669232814E+00    0.4033261423E-01    0.7213381039E-01    0.6832892155E-03    0.5622370778E+00
    0.2700000000E+04    0.5751720022E+00    0.3811893449E-01    0.7233030515E-01    0.6414309319E-03    0.5641331382E+00
    0.2900000000E+04    0.5824102096E+00    0.3617387499E-01    0.7250346164E-01    0.6045322932E-03    0.5658244154E+00
    0.3100000000E+04    0.5888020125E+00    0.3445310838E-01    0.7265730819E-01    0.5718109066E-03    0.5673450222E+00
    0.3300000000E+04    0.5944793021E+00    0.3292113575E-01    0.7279497919E-01    0.5426320872E-03    0.5687216486E+00
    0.3500000000E+04    0.5995490332E+00    0.3154928050E-01    0.7291895289E-01    0.5164772976E-03    0.5699755115E+00
    0.3700000000E+04    0.6040986661E+00    0.3031418456E-01    0.7303121660E-01    0.4929199328E-03    0.5711237140E+00
    0.3900000000E+04    0.6082002789E+00    0.2919667194E-01    0.7313338393E-01    0.4716066488E-03    0.5721802140E+00
    0.4100000000E+04    0.6119137070E+00    0.2818088244E-01    0.7322677973E-01    0.4522428819E-03    0.5731565289E+00
    0.4300000000E+04    0.6152889624E+00    0.2725360589E-01    0.7331250271E-01    0.4345815480E-03    0.5740622566E+00
    0.4500000000E+04    0.6183681140E+00    0.2640376623E-01    0.7339147221E-01    0.4184141647E-03    0.5749054668E+00
    0.4700000000E+04    0.6211867624E+00    0.2562201843E-01    0.7346446387E-01    0.4035638335E-03    0.5756929994E+00
    0.4900000000E+04    0.6237752047E+00    0.2490043136E-01    0.7353213693E-01    0.3898796539E-03    0.5764306951E+00
    0.1000000000E+04    0.4380721107E+00    0.7478749323E-01    0.6882241518E-01    0.1308300397E-02    0.5324436122E+00
    0.3000000000E+04    0.5857030091E+00    0.3528785431E-01    0.7258258503E-01    0.5876921623E-03    0.5666042369E+00
    0.5000000000E+04    0.6249913484E+00    0.2456004323E-01    0.7356415852E-01    0.3834337043E-03    0.5767824510E+00
    0.7000000000E+04    0.6418954034E+00    0.1969625665E-01    0.7402745745E-01    0.2923711563E-03    0.5821171828E+00
    0.9000000000E+04    0.6510698734E+00    0.1687913787E-01    0.7429669051E-01    0.2411448759E-03    0.5855266288E+00
    0.1100000000E+05    0.6567660536E+00    0.1500942579E-01    0.7447118258E-01    0.2081663897E-03    0.5879453858E+00
    0.1300000000E+05    0.6606244819E+00    0.1365881205E-01    0.7459212089E-01    0.1850138052E-03    0.5897762638E+00
    0.1500000000E+05    0.6634017860E+00    0.1262595716E-01    0.7467979976E-01    0.1677585996E-03    0.5912248857E+00
    0.1700000000E+05    0.6654922568E+00    0.1180335791E-01    0.7474541778E-01    0.1543282100E-03    0.5924085437E+00
    0.1900000000E+05    0.6671204815E+00    0.1112809293E-01    0.7479567285E-01    0.1435264548E-03    0.5933996419E+00
    0.2100000000E+05    0.6684233455E+00    0.1056069721E-01    0.7483482073E-01    0.1346141055E-03    0.5942456026E+00
    0.2300000000E+05    0.6694888445E+00    0.1007504864E-01    0.7486569589E-01    0.1271091142E-03    0.5949789524E+00
    0.2500000000E+05    0.6703760306E+00    0.9653096867E-02    0.7489025889E-01    0.1206832360E-03    0.5956228426E+00
    0.2700000000E+05    0.6711259618E+00    0.9281923489E-02    0.7490990853E-01    0.1151048610E-03    0.5961942594E+00
    0.2900000000E+05    0.6717680450E+00    0.8952009456E-02    0.7492566898E-01    0.1102056319E-03    0.5967059853E+00
    0.3100000000E+05    0.6723238811E+00    0.8656166065E-02    0.7493830676E-01    0.1058600457E-03    0.5971678492E+00
    0.3300000000E+05    0.6728096852E+00    0.8388849380E-02    0.7494840648E-01    0.1019724999E-03    0.5975875496E+00
    0.3500000000E+05    0.6732378617E+00    0.8145705802E-02    0.7495642135E-01    0.9846879114E-04    0.5979712140E+00
    0.3700000000E+05    0.6736180586E+00    0.7923262118E-02    0.7496270776E-01    0.9529037308E-04    0.5983237884E+00
    0.3900000000E+05    0.6739578902E+00    0.7718708792E-02    0.7496754959E-01    0.9239038042E-04    0.5986493156E+00
    0.4100000000E+05    0.6742634453E+00    0.7529745070E-02    0.7497117543E-01    0.8973081376E-04    0.5989511363E+00
    0.4300000000E+05    0.6745396499E+00    0.7354466113E-02    0.7497377129E-01    0.8728050697E-04    0.5992320391E+00
    0.4500000000E+05    0.6747905315E+00    0.7191279319E-02    0.7497548984E-01    0.8501363372E-04    0.5994943723E+00
    0.4700000000E+05    0.6750194146E+00    0.7038841301E-02    0.7497645745E-01    0.8290859242E-04    0.5997401298E+00
    0.4900000000E+05    0.6752290674E+00    0.6896009770E-02    0.7497677948E-01    0.8094716191E-04    0.5999710169E+00
    0.1000000000E+05    0.6542191464E+00    0.1586058933E-01    0.7439248592E-01    0.2230585765E-03    0.5868279507E+00
    0.3000000000E+05    0.6720556258E+00    0.8800207782E-02    0.7493233809E-01    0.1079701931E-03    0.5969426265E+00
    0.5000000000E+05    0.6753274233E+00    0.6827885124E-02    0.7497672661E-01    0.8001536836E-04    0.6000813510E+00
    0.7000000000E+05    0.6766922883E+00    0.5792090224E-02    0.7495721518E-01    0.6614240572E-04    0.6017760992E+00
    0.9000000000E+05    0.6774410003E+00    0.5126049892E-02    0.7492216015E-01    0.5751024473E-04    0.6028843206E+00
    0.1100000000E+06    0.6779141897E+00    0.4650914206E-02    0.7488332841E-01    0.5148844546E-04    0.6036853664E+00
    0.1300000000E+06    0.6782404922E+00    0.4289648599E-02    0.7484446145E-01    0.4698532170E-04    0.6043014086E+00
    0.1500000000E+06    0.6784792380E+00    0.4002807533E-02    0.7480687010E-01    0.4345640149E-04    0.6047956038E+00
    0.1700000000E+06    0.6786615841E+00    0.3767797451E-02    0.7477099161E-01    0.4059599627E-04    0.6052043795E+00
    0.1900000000E+06    0.6788054634E+00    0.3570611822E-02    0.7473691877E-01    0.3821758818E-04    0.6055504458E+00
    0.2100000000E+06    0.6789219284E+00    0.3402039322E-02    0.7470460388E-01    0.3620010743E-04    0.6058488106E+00
    0.2300000000E+06    0.6790181636E+00    0.3255737910E-02    0.7467394413E-01    0.3446111026E-04    0.6061098521E+00
    0.2500000000E+06    0.6790990417E+00    0.3127177869E-02    0.7464481903E-01    0.3294226772E-04    0.6063410127E+00
    0.2700000000E+06    0.6791679846E+00    0.3013025229E-02    0.7461710705E-01    0.3160100229E-04    0.6065477911E+00
    0.2900000000E+06    0.6792274666E+00    0.2910763809E-02    0.7459069293E-01    0.3040541494E-04    0.6067343521E+00
    0.3100000000E+06    0.6792793209E+00    0.2818453838E-02    0.7456547043E-01    0.2933107483E-04    0.6069039177E+00
    0.3300000000E+06    0.6793249351E+00    0.2734572380E-02    0.7454134308E-01    0.2835891430E-04    0.6070590261E+00
    0.3500000000E+06    0.6793653788E+00    0.2657904673E-02    0.7451822392E-01    0.2747380597E-04    0.6072017084E+00
    0.3700000000E+06    0.6794014899E+00    0.2587468231E-02    0.7449603476E-01    0.2666357525E-04    0.6073336127E+00
    0.3900000000E+06    0.6794339340E+00    0.2522458620E-02    0.7447470544E-01    0.2591829928E-04    0.6074560924E+00
    0.4100000000E+06    0.6794632469E+00    0.2462209963E-02    0.7445417288E-01    0.2522979893E-04    0.6075702713E+00
    0.4300000000E+06    0.6794898644E+00    0.2406165652E-02    0.7443438037E-01    0.2459126415E-04    0.6076770917E+00
    0.4500000000E+06    0.6795141450E+00    0.2353856303E-02    0.7441527676E-01    0.2399697313E-04    0.6077773503E+00
    0.4700000000E+06    0.6795363859E+00    0.2304882909E-02    0.7439681585E-01    0.2344207874E-04    0.6078717265E+00
    0.4900000000E+06    0.6795568361E+00    0.2258903818E-02    0.7437895582E-01    0.2292244406E-04    0.6079608037E+00
    0.1000000000E+06    0.6777015469E+00    0.4870714329E-02    0.7490289371E-01    0.5426012404E-04    0.6033136026E+00
    0.3000000000E+06    0.6792542518E+00    0.2863468378E-02    0.7457793898E-01    0.2985438714E-04    0.6068210870E+00
    0.5000000000E+06    0.6795664566E+00    0.2236943495E-02    0.7437023913E-01    0.2267471838E-04    0.6080035153E+00
    0.7000000000E+06    0.6797019154E+00    0.1900950226E-02    0.7421986070E-01    0.1892298497E-04    0.6086724435E+00
    0.9000000000E+06    0.6797780823E+00    0.1683245347E-02    0.7410180416E-01    0.1653306007E-04    0.6091249083E+00
    0.1100000000E+07    0.6798271033E+00    0.1527394964E-02    0.7400449203E-01    0.1484377594E-04    0.6094608553E+00
    0.1300000000E+07    0.6798614021E+00    0.1408680693E-02    0.7392164181E-01    0.1357003492E-04    0.6097250581E+00
    0.1500000000E+07    0.6798868061E+00    0.1314329375E-02    0.7384946180E-01    0.1256624521E-04    0.6099411181E+00
    0.1700000000E+07    0.6799064161E+00    0.1236984199E-02    0.7378548577E-01    0.1174934773E-04    0.6101228760E+00
    0.1900000000E+07    0.6799220364E+00    0.1172068007E-02    0.7372801817E-01    0.1106807795E-04    0.6102790865E+00
    0.2100000000E+07    0.6799347893E+00    0.1116563291E-02    0.7367584253E-01    0.1048887215E-04    0.6104156103E+00
    0.2300000000E+07    0.6799454102E+00    0.1068388912E-02    0.7362805600E-01    0.9988722016E-05    0.6105365478E+00
    0.2500000000E+07    0.6799544016E+00    0.1026056607E-02    0.7358396979E-01    0.9551262877E-05    0.6106448711E+00
    0.2700000000E+07    0.6799621186E+00    0.9884699885E-03    0.7354304625E-01    0.9164498024E-05    0.6107427976E+00
    0.2900000000E+07    0.6799688194E+00    0.9548010461E-03    0.7350485754E-01    0.8819407767E-05    0.6108320225E+00
    0.3100000000E+07    0.6799746965E+00    0.9244111297E-03    0.7346905756E-01    0.8509063719E-05    0.6109138683E+00
    0.3300000000E+07    0.6799798963E+00    0.8967986391E-03    0.7343536231E-01    0.8228044954E-05    0.6109893852E+00
    0.3500000000E+07    0.6799845321E+00    0.8715633635E-03    0.7340353584E-01    0.7972041586E-05    0.6110594201E+00
    0.3700000000E+07    0.6799886931E+00    0.8483815478E-03    0.7337337993E-01    0.7737578625E-05    0.6111246649E+00
    0.3900000000E+07    0.6799924506E+00    0.8269880698E-03    0.7334472646E-01    0.7521819258E-05    0.6111856919E+00
    0.4100000000E+07    0.6799958619E+00    0.8071634475E-03    0.7331743161E-01    0.7322421909E-05    0.6112429792E+00
    0.4300000000E+07    0.6799989742E+00    0.7887242029E-03    0.7329137131E-01    0.7137434542E-05    0.6112969302E+00
    0.4500000000E+07    0.6800018261E+00    0.7715156012E-03    0.7326643784E-01    0.6965215261E-05    0.6113478882E+00
    0.4700000000E+07    0.6800044499E+00    0.7554061054E-03    0.7324253706E-01    0.6804371812E-05    0.6113961472E+00
    0.4900000000E+07    0.6800068728E+00    0.7402830840E-03    0.7321958617E-01    0.6653714895E-05    0.6114419613E+00
    0.1000000000E+07    0.6798049780E+00    0.1599538234E-02    0.7405102671E-01    0.1562340759E-04    0.6093039348E+00
    0.3000000000E+07    0.6799718509E+00    0.9392302902E-03    0.7348667798E-01    0.8660261245E-05    0.6108737967E+00
    0.5000000000E+07    0.6800080162E+00    0.7330606316E-03    0.7320844374E-01    0.6581881089E-05    0.6114640217E+00
    0.7000000000E+07    0.6800244047E+00    0.6226046505E-03    0.7302145160E-01    0.5493239705E-05    0.6118179121E+00
    0.9000000000E+07    0.6800339311E+00    0.5510890083E-03    0.7288024029E-01    0.4799215330E-05    0.6120671372E+00
    0.1100000000E+08    0.6800402335E+00    0.4999215374E-03    0.7276667969E-01    0.4308505590E-05    0.6122579793E+00
    0.1300000000E+08    0.6800447490E+00    0.4609636393E-03    0.7267166464E-01    0.3938461592E-05    0.6124118482E+00
    0.1500000000E+08    0.6800481646E+00    0.4300119710E-03    0.7258996428E-01    0.3646834299E-05    0.6125403233E+00
    0.1700000000E+08    0.6800508514E+00    0.4046466989E-03    0.7251829284E-01    0.3409506921E-05    0.6126503429E+00
    0.1900000000E+08    0.6800530287E+00    0.3833628838E-03    0.7245444993E-01    0.3211589134E-05    0.6127463781E+00
    0.2100000000E+08    0.6800548346E+00    0.3651687326E-03    0.7239688923E-01    0.3043329800E-05    0.6128314710E+00
    0.2300000000E+08    0.6800563608E+00    0.3493804246E-03    0.7234448223E-01    0.2898043442E-05    0.6129077814E+00
    0.2500000000E+08    0.6800576706E+00    0.3355090774E-03    0.7229637994E-01    0.2770974583E-05    0.6129768954E+00
    0.2700000000E+08    0.6800588092E+00    0.3231946227E-03    0.7225192753E-01    0.2658636854E-05    0.6130400105E+00
