  Pressure (Pa) 22mC5-400 (mol/kg) 2mC6-400 (mol/kg) 3mC6-400 (mol/kg) 33mC5-400 (mol/kg) C7-400 (mol/kg)
    0.1000000000E+01    0.2122534909E-02    0.7876925734E-03    0.3649937607E-02    0.1282888038E-03    0.1015387232E-01
    0.3000000000E+01    0.6316838721E-02    0.2272711946E-02    0.1050213634E-01    0.3702790439E-03    0.2922210263E-01
    0.5000000000E+01    0.1044495825E-01    0.3648811939E-02    0.1681638040E-01    0.5946937427E-03    0.4680060779E-01
    0.7000000000E+01    0.1450864118E-01    0.4928011966E-02    0.2265398455E-01    0.8034792820E-03    0.6305891318E-01
    0.9000000000E+01    0.1850957287E-01    0.6120558600E-02    0.2806727262E-01    0.9982939767E-03    0.7814170532E-01
    0.1100000000E+02    0.2244937911E-01    0.7235243176E-02    0.3310116787E-01    0.1180559782E-02    0.9217322330E-01
    0.1300000000E+02    0.2632962870E-01    0.8279653569E-02    0.3779445723E-01    0.1351503270E-02    0.1052607503E+00
    0.1500000000E+02    0.3015183595E-01    0.9260375489E-02    0.4218080500E-01    0.1512188388E-02    0.1174974128E+00
    0.1700000000E+02    0.3391746299E-01    0.1018315470E-01    0.4628957193E-01    0.1663542838E-02    0.1289644437E+00
    0.1900000000E+02    0.3762792199E-01    0.1105302869E-01    0.5014648205E-01    0.1806379495E-02    0.1397330233E+00
    0.2100000000E+02    0.4128457728E-01    0.1187443434E-01    0.5377416918E-01    0.1941413904E-02    0.1498657896E+00
    0.2300000000E+02    0.4488874736E-01    0.1265129648E-01    0.5719262776E-01    0.2069278675E-02    0.1594180839E+00
    0.2500000000E+02    0.4844170677E-01    0.1338710119E-01    0.6041958700E-01    0.2190535384E-02    0.1684389842E+00
    0.2700000000E+02    0.5194468797E-01    0.1408495680E-01    0.6347082305E-01    0.2305684490E-02    0.1769721679E+00
    0.2900000000E+02    0.5539888297E-01    0.1474764501E-01    0.6636042101E-01    0.2415173621E-02    0.1850566360E+00
    0.3100000000E+02    0.5880544504E-01    0.1537766382E-01    0.6910099579E-01    0.2519404548E-02    0.1927273232E+00
    0.3300000000E+02    0.6216549027E-01    0.1597726385E-01    0.7170387923E-01    0.2618739077E-02    0.2000156152E+00
    0.3500000000E+02    0.6548009899E-01    0.1654847920E-01    0.7417927937E-01    0.2713504044E-02    0.2069497892E+00
    0.3700000000E+02    0.6875031726E-01    0.1709315372E-01    0.7653641652E-01    0.2803995585E-02    0.2135553894E+00
    0.3900000000E+02    0.7197715819E-01    0.1761296356E-01    0.7878364008E-01    0.2890482780E-02    0.2198555506E+00
    0.4100000000E+02    0.7516160323E-01    0.1810943650E-01    0.8092852907E-01    0.2973210789E-02    0.2258712755E+00
    0.4300000000E+02    0.7830460338E-01    0.1858396871E-01    0.8297797912E-01    0.3052403562E-02    0.2316216761E+00
    0.4500000000E+02    0.8140708039E-01    0.1903783917E-01    0.8493827787E-01    0.3128266175E-02    0.2371241812E+00
    0.4700000000E+02    0.8446992786E-01    0.1947222230E-01    0.8681517068E-01    0.3200986867E-02    0.2423947189E+00
    0.4900000000E+02    0.8749401231E-01    0.1988819887E-01    0.8861391785E-01    0.3270738813E-02    0.2474478742E+00
    0.1000000000E+02    0.2048701731E-01    0.6687133771E-02    0.3062908929E-01    0.1090914669E-02    0.8528180673E-01
    0.3000000000E+02    0.5710804751E-01    0.1506659201E-01    0.6774859998E-01    0.2467922873E-02    0.1889416629E+00
    0.5000000000E+02    0.8899178205E-01    0.2008959923E-01    0.8948551054E-01    0.3304551889E-02    0.2498971589E+00
    0.7000000000E+02    0.1171039199E+00    0.2335676447E-01    0.1037975094E+00    0.3857854213E-02    0.2901964019E+00
    0.9000000000E+02    0.1421569288E+00    0.2556111462E-01    0.1139529238E+00    0.4238753015E-02    0.3189077062E+00
    0.1100000000E+03    0.1646881322E+00    0.2706440968E-01    0.1215434750E+00    0.4505096767E-02    0.3404536629E+00
    0.1300000000E+03    0.1851106709E+00    0.2807956973E-01    0.1274381336E+00    0.4690974808E-02    0.3572520700E+00
    0.1500000000E+03    0.2037476922E+00    0.2874246247E-01    0.1321520086E+00    0.4818203494E-02    0.3707381403E+00
    0.1700000000E+03    0.2208558517E+00    0.2914483051E-01    0.1360100879E+00    0.4901575910E-02    0.3818186194E+00
    0.1900000000E+03    0.2366418186E+00    0.2935120910E-01    0.1392276906E+00    0.4951552164E-02    0.3910950945E+00
    0.2100000000E+03    0.2512740948E+00    0.2940840253E-01    0.1419532149E+00    0.4975763949E-02    0.3989827514E+00
    0.2300000000E+03    0.2648916249E+00    0.2935115970E-01    0.1442923161E+00    0.4979915092E-02    0.4057775952E+00
    0.2500000000E+03    0.2776101679E+00    0.2920575699E-01    0.1463222960E+00    0.4968350156E-02    0.4116964911E+00
    0.2700000000E+03    0.2895270801E+00    0.2899235690E-01    0.1481010383E+00    0.4944429125E-02    0.4169020492E+00
    0.2900000000E+03    0.3007249529E+00    0.2872661453E-01    0.1496727607E+00    0.4910782969E-02    0.4215186562E+00
    0.3100000000E+03    0.3112744125E+00    0.2842080253E-01    0.1510718333E+00    0.4869492991E-02    0.4256431282E+00
    0.3300000000E+03    0.3212362991E+00    0.2808461735E-01    0.1523253830E+00    0.4822219682E-02    0.4293519802E+00
    0.3500000000E+03    0.3306633795E+00    0.2772576854E-01    0.1534551108E+00    0.4770297165E-02    0.4327065054E+00
    0.3700000000E+03    0.3396017076E+00    0.2735041658E-01    0.1544785879E+00    0.4714803605E-02    0.4357563985E+00
    0.3900000000E+03    0.3480917128E+00    0.2696350299E-01    0.1554101962E+00    0.4656614478E-02    0.4385423882E+00
    0.4100000000E+03    0.3561690797E+00    0.2656900238E-01    0.1562618223E+00    0.4596443391E-02    0.4410981817E+00
    0.4300000000E+03    0.3638654635E+00    0.2617011686E-01    0.1570433782E+00    0.4534873715E-02    0.4434519231E+00
    0.4500000000E+03    0.3712090764E+00    0.2576942765E-01    0.1577631955E+00    0.4472383350E-02    0.4456273011E+00
    0.4700000000E+03    0.3782251720E+00    0.2536901423E-01    0.1584283299E+00    0.4409364283E-02    0.4476444025E+00
    0.4900000000E+03    0.3849364474E+00    0.2497054874E-01    0.1590447967E+00    0.4346138159E-02    0.4495203746E+00
    0.1000000000E+03    0.1537094888E+00    0.2638471944E-01    0.1180033632E+00    0.4383736445E-02    0.3303943383E+00
    0.3000000000E+03    0.3060767245E+00    0.2857805860E-01    0.1503920374E+00    0.4890981059E-02    0.4236372192E+00
    0.5000000000E+03    0.3881842552E+00    0.2477247648E-01    0.1593364216E+00    0.4314531856E-02    0.4504101228E+00
    0.7000000000E+03    0.4411983536E+00    0.2111893629E-01    0.1635503855E+00    0.3714294364E-02    0.4634753968E+00
    0.9000000000E+03    0.4784991944E+00    0.1817994482E-01    0.1660004641E+00    0.3211864500E-02    0.4713301236E+00
    0.1100000000E+04    0.5061620955E+00    0.1587553610E-01    0.1675989247E+00    0.2807120270E-02    0.4766233777E+00
    0.1300000000E+04    0.5274514428E+00    0.1405990606E-01    0.1687209112E+00    0.2481733261E-02    0.4804585403E+00
    0.1500000000E+04    0.5443042937E+00    0.1261073735E-01    0.1695493647E+00    0.2217943594E-02    0.4833802892E+00
    0.1700000000E+04    0.5579487172E+00    0.1143686047E-01    0.1701842352E+00    0.2001632417E-02    0.4856897336E+00
    0.1900000000E+04    0.5692018187E+00    0.1047209172E-01    0.1706847771E+00    0.1822124373E-02    0.4875674377E+00
    0.2100000000E+04    0.5786280604E+00    0.9668379106E-02    0.1710883556E+00    0.1671435398E-02    0.4891285424E+00
    0.2300000000E+04    0.5866294322E+00    0.8990502415E-02    0.1714197006E+00    0.1543575847E-02    0.4904500914E+00
    0.2500000000E+04    0.5934995932E+00    0.8412313147E-02    0.1716958293E+00    0.1434013466E-02    0.4915856760E+00
    0.2700000000E+04    0.5994577741E+00    0.7914128857E-02    0.1719288342E+00    0.1339281801E-02    0.4925737840E+00
    0.2900000000E+04    0.6046707499E+00    0.7480930694E-02    0.1721275418E+00    0.1256699332E-02    0.4934428060E+00
    0.3100000000E+04    0.6092675030E+00    0.7101107642E-02    0.1722985444E+00    0.1184168268E-02    0.4942141671E+00
    0.3300000000E+04    0.6133492572E+00    0.6765572092E-02    0.1724468631E+00    0.1120029618E-02    0.4949043559E+00
    0.3500000000E+04    0.6169964952E+00    0.6467129190E-02    0.1725763888E+00    0.1062957864E-02    0.4955262801E+00
    0.3700000000E+04    0.6202739642E+00    0.6200021379E-02    0.1726901820E+00    0.1011883670E-02    0.4960901973E+00
    0.3900000000E+04    0.6232343079E+00    0.5959595297E-02    0.1727906827E+00    0.9659365360E-03    0.4966043674E+00
    0.4100000000E+04    0.6259207435E+00    0.5742055197E-02    0.1728798589E+00    0.9244018306E-03    0.4970755212E+00
    0.4300000000E+04    0.6283690632E+00    0.5544278270E-02    0.1729593155E+00    0.8866882392E-03    0.4975092021E+00
    0.4500000000E+04    0.6306091496E+00    0.5363674817E-02    0.1730303737E+00    0.8523028767E-03    0.4979100191E+00
    0.4700000000E+04    0.6326661374E+00    0.5198081274E-02    0.1730941305E+00    0.8208320715E-03    0.4982818382E+00
    0.4900000000E+04    0.6345613126E+00    0.5045677563E-02    0.1731515043E+00    0.7919263987E-03    0.4986279275E+00
    0.1000000000E+04    0.4932893635E+00    0.1695775703E-01    0.1668760684E+00    0.2998355118E-02    0.4742087609E+00
    0.3000000000E+04    0.6070392712E+00    0.7284965992E-02    0.1722161616E+00    0.1219289951E-02    0.4938395664E+00
    0.5000000000E+04    0.6354539963E+00    0.4973930886E-02    0.1731780444E+00    0.7783409125E-03    0.4987922097E+00
    0.7000000000E+04    0.6480661755E+00    0.3958182739E-02    0.1735103092E+00    0.5883706577E-03    0.5012268756E+00
    0.9000000000E+04    0.6551445072E+00    0.3377108282E-02    0.1736441101E+00    0.4829541011E-03    0.5027312754E+00
    0.1100000000E+05    0.6596646324E+00    0.2994073931E-02    0.1736946725E+00    0.4155774415E-03    0.5037779718E+00
    0.1300000000E+05    0.6627975525E+00    0.2718642190E-02    0.1737046942E+00    0.3684921141E-03    0.5045612353E+00
    0.1500000000E+05    0.6650955398E+00    0.2508729053E-02    0.1736931676E+00    0.3335154602E-03    0.5051769312E+00
    0.1700000000E+05    0.6668525400E+00    0.2342003660E-02    0.1736695921E+00    0.3063611576E-03    0.5056783582E+00
    0.1900000000E+05    0.6682392096E+00    0.2205451777E-02    0.1736391200E+00    0.2845671004E-03    0.5060977629E+00
    0.2100000000E+05    0.6693613460E+00    0.2090937010E-02    0.1736047135E+00    0.2666169552E-03    0.5064559286E+00
    0.2300000000E+05    0.6702879955E+00    0.1993087733E-02    0.1735681503E+00    0.2515245298E-03    0.5067669249E+00
    0.2500000000E+05    0.6710661212E+00    0.1908200193E-02    0.1735305301E+00    0.2386197099E-03    0.5070406584E+00
    0.2700000000E+05    0.6717287706E+00    0.1833628639E-02    0.1734925486E+00    0.2274304977E-03    0.5072843330E+00
    0.2900000000E+05    0.6722998707E+00    0.1767426769E-02    0.1734546511E+00    0.2176143188E-03    0.5075033292E+00
    0.3100000000E+05    0.6727971691E+00    0.1708126967E-02    0.1734171239E+00    0.2089161400E-03    0.5077017585E+00
    0.3300000000E+05    0.6732341068E+00    0.1654598957E-02    0.1733801502E+00    0.2011419207E-03    0.5078828244E+00
    0.3500000000E+05    0.6736210489E+00    0.1605956269E-02    0.1733438445E+00    0.1941412170E-03    0.5080490652E+00
    0.3700000000E+05    0.6739661165E+00    0.1561492526E-02    0.1733082755E+00    0.1877954471E-03    0.5082025224E+00
    0.3900000000E+05    0.6742757628E+00    0.1520636955E-02    0.1732734810E+00    0.1820097763E-03    0.5083448594E+00
    0.4100000000E+05    0.6745551798E+00    0.1482922626E-02    0.1732394773E+00    0.1767073763E-03    0.5084774472E+00
    0.4300000000E+05    0.6748085924E+00    0.1447963331E-02    0.1732062667E+00    0.1718252858E-03    0.5086014280E+00
    0.4500000000E+05    0.6750394730E+00    0.1415436462E-02    0.1731738413E+00    0.1673113704E-03    0.5087177617E+00
    0.4700000000E+05    0.6752507024E+00    0.1385070130E-02    0.1731421870E+00    0.1631220555E-03    0.5088272624E+00
    0.4900000000E+05    0.6754446900E+00    0.1356633333E-02    0.1731112851E+00    0.1592206104E-03    0.5089306256E+00
    0.1000000000E+05    0.6576295369E+00    0.3168193638E-02    0.1736762872E+00    0.4459574429E-03    0.5032962964E+00
    0.3000000000E+05    0.6725568210E+00    0.1736991383E-02    0.1734358278E+00    0.2131387984E-03    0.5076048965E+00
    0.5000000000E+05    0.6755358657E+00    0.1343075598E-02    0.1730961098E+00    0.1573679020E-03    0.5089801959E+00
    0.7000000000E+05    0.6768127040E+00    0.1137371880E-02    0.1728265095E+00    0.1298393537E-03    0.5097588502E+00
    0.9000000000E+05    0.6775228659E+00    0.1005529732E-02    0.1726073435E+00    0.1127647051E-03    0.5102906917E+00
    0.1100000000E+06    0.6779754842E+00    0.9116808937E-03    0.1724234083E+00    0.1008790112E-03    0.5106902321E+00
    0.1300000000E+06    0.6782893706E+00    0.8404355651E-03    0.1722651064E+00    0.9200476508E-04    0.5110081873E+00
    0.1500000000E+06    0.6785199621E+00    0.7839351802E-03    0.1721262059E+00    0.8505871280E-04    0.5112711725E+00
    0.1700000000E+06    0.6786966122E+00    0.7376880212E-03    0.1720024755E+00    0.7943387596E-04    0.5114947824E+00
    0.1900000000E+06    0.6788363213E+00    0.6989141918E-03    0.1718909231E+00    0.7476049352E-04    0.5116888928E+00
    0.2100000000E+06    0.6789496182E+00    0.6657880217E-03    0.1717893595E+00    0.7079886817E-04    0.5118601311E+00
    0.2300000000E+06    0.6790433735E+00    0.6370539753E-03    0.1716961360E+00    0.6738595716E-04    0.5120131487E+00
    0.2500000000E+06    0.6791222621E+00    0.6118161846E-03    0.1716099807E+00    0.6440651771E-04    0.5121513294E+00
    0.2700000000E+06    0.6791895759E+00    0.5894158308E-03    0.1715298922E+00    0.6177649751E-04    0.5122772078E+00
    0.2900000000E+06    0.6792477001E+00    0.5693560659E-03    0.1714550679E+00    0.5943297037E-04    0.5123927293E+00
    0.3100000000E+06    0.6792984059E+00    0.5512541123E-03    0.1713848547E+00    0.5732777342E-04    0.5124994180E+00
    0.3300000000E+06    0.6793430358E+00    0.5348096227E-03    0.1713187144E+00    0.5542333842E-04    0.5125984892E+00
    0.3500000000E+06    0.6793826265E+00    0.5197831529E-03    0.1712561976E+00    0.5368987582E-04    0.5126909271E+00
    0.3700000000E+06    0.6794179907E+00    0.5059811345E-03    0.1711969258E+00    0.5210342216E-04    0.5127775391E+00
    0.3900000000E+06    0.6794497753E+00    0.4932451477E-03    0.1711405769E+00    0.5064445436E-04    0.5128589956E+00
    0.4100000000E+06    0.6794785010E+00    0.4814441105E-03    0.1710868747E+00    0.4929688640E-04    0.5129358592E+00
    0.4300000000E+06    0.6795045922E+00    0.4704684915E-03    0.1710355802E+00    0.4804732961E-04    0.5130086062E+00
    0.4500000000E+06    0.6795283979E+00    0.4602259537E-03    0.1709864857E+00    0.4688453852E-04    0.5130776435E+00
    0.4700000000E+06    0.6795502080E+00    0.4506380293E-03    0.1709394093E+00    0.4579898969E-04    0.5131433212E+00
    0.4900000000E+06    0.6795702652E+00    0.4416375485E-03    0.1708941907E+00    0.4478255731E-04    0.5132059428E+00
    0.1000000000E+06    0.6777717137E+00    0.9550748965E-03    0.1725116726E+00    0.1063470514E-03    0.5105030146E+00
    0.3000000000E+06    0.6792738880E+00    0.5600807755E-03    0.1714194209E+00    0.5835313881E-04    0.5124470956E+00
    0.5000000000E+06    0.6795797018E+00    0.4373391941E-03    0.1708722330E+00    0.4429803930E-04    0.5132361916E+00
    0.7000000000E+06    0.6797126157E+00    0.3716062481E-03    0.1705033928E+00    0.3696366403E-04    0.5137302417E+00
    0.9000000000E+06    0.6797873516E+00    0.3290446385E-03    0.1702245409E+00    0.3229472089E-04    0.5140886300E+00
    0.1100000000E+07    0.6798354248E+00    0.2985883191E-03    0.1700001673E+00    0.2899586978E-04    0.5143692183E+00
    0.1300000000E+07    0.6798690343E+00    0.2753954124E-03    0.1698123773E+00    0.2650913491E-04    0.5145994487E+00
    0.1500000000E+07    0.6798939060E+00    0.2569656462E-03    0.1696508709E+00    0.2454976767E-04    0.5147944672E+00
    0.1700000000E+07    0.6799130877E+00    0.2418596927E-03    0.1695091710E+00    0.2295540032E-04    0.5149635050E+00
    0.1900000000E+07    0.6799283528E+00    0.2291823917E-03    0.1693829367E+00    0.2162585525E-04    0.5151125982E+00
    0.2100000000E+07    0.6799408044E+00    0.2183437816E-03    0.1692691157E+00    0.2049556316E-04    0.5152459071E+00
    0.2300000000E+07    0.6799511650E+00    0.2089370696E-03    0.1691654797E+00    0.1951958575E-04    0.5153664186E+00
    0.2500000000E+07    0.6799599284E+00    0.2006714073E-03    0.1690703518E+00    0.1866596651E-04    0.5154763487E+00
    0.2700000000E+07    0.6799674431E+00    0.1933325643E-03    0.1689824384E+00    0.1791128211E-04    0.5155773862E+00
    0.2900000000E+07    0.6799739629E+00    0.1867587720E-03    0.1689007205E+00    0.1723792402E-04    0.5156708474E+00
    0.3100000000E+07    0.6799796765E+00    0.1808252718E-03    0.1688243809E+00    0.1663236787E-04    0.5157577775E+00
    0.3300000000E+07    0.6799847275E+00    0.1754340872E-03    0.1687527543E+00    0.1608403283E-04    0.5158390205E+00
    0.3500000000E+07    0.6799892272E+00    0.1705070523E-03    0.1686852919E+00    0.1558450732E-04    0.5159152673E+00
    0.3700000000E+07    0.6799932630E+00    0.1659809387E-03    0.1686215354E+00    0.1512700965E-04    0.5159870907E+00
    0.3900000000E+07    0.6799969046E+00    0.1618039721E-03    0.1685610984E+00    0.1470600393E-04    0.5160549708E+00
    0.4100000000E+07    0.6800002084E+00    0.1579332937E-03    0.1685036520E+00    0.1431692090E-04    0.5161193138E+00
    0.4300000000E+07    0.6800032204E+00    0.1543330767E-03    0.1684489139E+00    0.1395595161E-04    0.5161804665E+00
    0.4500000000E+07    0.6800059784E+00    0.1509731085E-03    0.1683966400E+00    0.1361989239E-04    0.5162387274E+00
    0.4700000000E+07    0.6800085142E+00    0.1478277066E-03    0.1683466178E+00    0.1330602678E-04    0.5162943551E+00
    0.4900000000E+07    0.6800108542E+00    0.1448748809E-03    0.1682986612E+00    0.1301203434E-04    0.5163475749E+00
    0.1000000000E+07    0.6798137314E+00    0.3126853496E-03    0.1701069098E+00    0.3051821532E-04    0.5142365265E+00
    0.3000000000E+07    0.6799769106E+00    0.1837186425E-03    0.1688619231E+00    0.1692739052E-04    0.5157150720E+00
    0.5000000000E+07    0.6800119579E+00    0.1434646572E-03    0.1682754055E+00    0.1287185590E-04    0.5163733448E+00
    0.7000000000E+07    0.6800277324E+00    0.1218960130E-03    0.1678875199E+00    0.1074727105E-04    0.5167997518E+00
    0.9000000000E+07    0.6800368510E+00    0.1079289736E-03    0.1675972230E+00    0.9392565164E-05    0.5171151237E+00
    0.1100000000E+08    0.6800428550E+00    0.9793433079E-04    0.1673651502E+00    0.8434547428E-05    0.5173652511E+00
    0.1300000000E+08    0.6800471388E+00    0.9032344736E-04    0.1671718059E+00    0.7711985087E-05    0.5175724328E+00
    0.1500000000E+08    0.6800503669E+00    0.8427581565E-04    0.1670060974E+00    0.7142453850E-05    0.5177492079E+00
    0.1700000000E+08    0.6800528976E+00    0.7931905246E-04    0.1668611065E+00    0.6678900771E-05    0.5179033271E+00
    0.1900000000E+08    0.6800549419E+00    0.7515935698E-04    0.1667322263E+00    0.6292272042E-05    0.5180399155E+00
    0.2100000000E+08    0.6800566326E+00    0.7160309503E-04    0.1666162339E+00    0.5963539943E-05    0.5181625379E+00
    0.2300000000E+08    0.6800580575E+00    0.6851675137E-04    0.1665107862E+00    0.5679657910E-05    0.5182737734E+00
    0.2500000000E+08    0.6800592772E+00    0.6580486621E-04    0.1664141262E+00    0.5431345046E-05    0.5183755481E+00
    0.2700000000E+08    0.6800603350E+00    0.6339712775E-04    0.1663249024E+00    0.5211796788E-05    0.5184693383E+00
