  Pressure (Pa) 22mC5-400 (mol/kg) 2mC6-400 (mol/kg) 3mC6-400 (mol/kg) 33mC5-400 (mol/kg) C7-400 (mol/kg)
    0.1000000000E+01    0.2121031756E-02    0.1569366515E-02    0.2595968135E-02    0.6390155861E-04    0.1348096833E-01
    0.3000000000E+01    0.6303618197E-02    0.4496098016E-02    0.7410261528E-02    0.1831500561E-03    0.3849101812E-01
    0.5000000000E+01    0.1040906249E-01    0.7172316832E-02    0.1177977180E-01    0.2922946647E-03    0.6120169867E-01
    0.7000000000E+01    0.1443985703E-01    0.9630526404E-02    0.1576396353E-01    0.3926509442E-03    0.8191993504E-01
    0.9000000000E+01    0.1839838519E-01    0.1189763363E-01    0.1941212864E-01    0.4853071837E-03    0.1009001875E+00
    0.1100000000E+02    0.2228692718E-01    0.1399611206E-01    0.2276547386E-01    0.5711717298E-03    0.1183552127E+00
    0.1300000000E+02    0.2610766558E-01    0.1594488689E-01    0.2585871445E-01    0.6510089815E-03    0.1344642792E+00
    0.1500000000E+02    0.2986269051E-01    0.1776001616E-01    0.2872130504E-01    0.7254670898E-03    0.1493795149E+00
    0.1700000000E+02    0.3355400445E-01    0.1945522090E-01    0.3137840070E-01    0.7950995018E-03    0.1632308617E+00
    0.1900000000E+02    0.3718352681E-01    0.2104230168E-01    0.3385161462E-01    0.8603818868E-03    0.1761299838E+00
    0.2100000000E+02    0.4075309817E-01    0.2253146904E-01    0.3615962101E-01    0.9217255542E-03    0.1881733763E+00
    0.2300000000E+02    0.4426448430E-01    0.2393160780E-01    0.3831863880E-01    0.9794881833E-03    0.1994448610E+00
    0.2500000000E+02    0.4771937993E-01    0.2525049018E-01    0.4034282289E-01    0.1033982471E-02    0.2100176040E+00
    0.2700000000E+02    0.5111941227E-01    0.2649494885E-01    0.4224458281E-01    0.1085483151E-02    0.2199557599E+00
    0.2900000000E+02    0.5446614435E-01    0.2767101859E-01    0.4403484410E-01    0.1134232737E-02    0.2293158208E+00
    0.3100000000E+02    0.5776107817E-01    0.2878405284E-01    0.4572326402E-01    0.1180446244E-02    0.2381477286E+00
    0.3300000000E+02    0.6100565764E-01    0.2983882020E-01    0.4731841077E-01    0.1224315098E-02    0.2464958004E+00
    0.3500000000E+02    0.6420127137E-01    0.3083958497E-01    0.4882791299E-01    0.1266010397E-02    0.2543995002E+00
    0.3700000000E+02    0.6734925530E-01    0.3179017444E-01    0.5025858543E-01    0.1305685633E-02    0.2618940870E+00
    0.3900000000E+02    0.7045089519E-01    0.3269403570E-01    0.5161653481E-01    0.1343478989E-02    0.2690111617E+00
    0.4100000000E+02    0.7350742893E-01    0.3355428359E-01    0.5290724969E-01    0.1379515281E-02    0.2757791310E+00
    0.4300000000E+02    0.7652004879E-01    0.3437374155E-01    0.5413567690E-01    0.1413907601E-02    0.2822236018E+00
    0.4500000000E+02    0.7948990349E-01    0.3515497645E-01    0.5530628691E-01    0.1446758732E-02    0.2883677188E+00
    0.4700000000E+02    0.8241810017E-01    0.3590032843E-01    0.5642312996E-01    0.1478162348E-02    0.2942324547E+00
    0.4900000000E+02    0.8530570629E-01    0.3661193668E-01    0.5748988443E-01    0.1508204052E-02    0.2998368594E+00
    0.1000000000E+02    0.2035126582E-01    0.1296669429E-01    0.2112334782E-01    0.5290376288E-03    0.1098064465E+00
    0.3000000000E+02    0.5611999447E-01    0.2823510442E-01    0.4489122508E-01    0.1157644024E-02    0.2337949018E+00
    0.5000000000E+02    0.8673461105E-01    0.3695570596E-01    0.5800553666E-01    0.1522738955E-02    0.3025469188E+00
    0.7000000000E+02    0.1134137625E+00    0.4245908494E-01    0.6636115854E-01    0.1757915077E-02    0.3465638540E+00
    0.9000000000E+02    0.1370071108E+00    0.4608199370E-01    0.7217169099E-01    0.1916631676E-02    0.3773188514E+00
    0.1100000000E+03    0.1581257101E+00    0.4849390110E-01    0.7645773557E-01    0.2025665759E-02    0.4001105436E+00
    0.1300000000E+03    0.1772208114E+00    0.5007826476E-01    0.7975632289E-01    0.2100393098E-02    0.4177316231E+00
    0.1500000000E+03    0.1946333836E+00    0.5107472741E-01    0.8237753364E-01    0.2150463011E-02    0.4317972274E+00
    0.1700000000E+03    0.2106262866E+00    0.5164227858E-01    0.8451321331E-01    0.2182311658E-02    0.4433082606E+00
    0.1900000000E+03    0.2254057892E+00    0.5189102661E-01    0.8628857770E-01    0.2200424297E-02    0.4529190591E+00
    0.2100000000E+03    0.2391363282E+00    0.5189971362E-01    0.8778891810E-01    0.2208030876E-02    0.4610760427E+00
    0.2300000000E+03    0.2519508624E+00    0.5172606269E-01    0.8907439288E-01    0.2207517193E-02    0.4680945860E+00
    0.2500000000E+03    0.2639582814E+00    0.5141322627E-01    0.9018868367E-01    0.2200681494E-02    0.4742040488E+00
    0.2700000000E+03    0.2752488034E+00    0.5099397850E-01    0.9116429681E-01    0.2188901613E-02    0.4795753815E+00
    0.2900000000E+03    0.2858979713E+00    0.5049353501E-01    0.9202593691E-01    0.2173247684E-02    0.4843387084E+00
    0.3100000000E+03    0.2959696544E+00    0.4993150369E-01    0.9279272487E-01    0.2154560322E-02    0.4885948999E+00
    0.3300000000E+03    0.3055183337E+00    0.4932326611E-01    0.9347969797E-01    0.2133506175E-02    0.4924234062E+00
    0.3500000000E+03    0.3145908634E+00    0.4868097555E-01    0.9409884972E-01    0.2110618186E-02    0.4958876932E+00
    0.3700000000E+03    0.3232278428E+00    0.4801429042E-01    0.9465986644E-01    0.2086325306E-02    0.4990390959E+00
    0.3900000000E+03    0.3314646972E+00    0.4733092146E-01    0.9517065919E-01    0.2060974734E-02    0.5019196048E+00
    0.4100000000E+03    0.3393325369E+00    0.4663704522E-01    0.9563775464E-01    0.2034848810E-02    0.5045639145E+00
    0.4300000000E+03    0.3468588465E+00    0.4593762039E-01    0.9606658662E-01    0.2008177982E-02    0.5070009539E+00
    0.4500000000E+03    0.3540680419E+00    0.4523663211E-01    0.9646171682E-01    0.1981150883E-02    0.5092550448E+00
    0.4700000000E+03    0.3609819247E+00    0.4453728260E-01    0.9682700385E-01    0.1953922219E-02    0.5113467911E+00
    0.4900000000E+03    0.3676200557E+00    0.4384214104E-01    0.9716573437E-01    0.1926619016E-02    0.5132937687E+00
    0.1000000000E+03    0.1478444922E+00    0.4741089706E-01    0.7446447196E-01    0.1976220466E-02    0.3894980305E+00
    0.3000000000E+03    0.2910023961E+00    0.5021917065E-01    0.9242016584E-01    0.2164237972E-02    0.4865248014E+00
    0.5000000000E+03    0.3708412910E+00    0.4349680777E-01    0.9732603735E-01    0.1912972834E-02    0.5142177692E+00
    0.7000000000E+03    0.4242866354E+00    0.3712547121E-01    0.9964866809E-01    0.1653134225E-02    0.5278404365E+00
    0.9000000000E+03    0.4629254457E+00    0.3196548608E-01    0.1010070061E+00    0.1433408036E-02    0.5360971126E+00
    0.1100000000E+04    0.4921412422E+00    0.2788418650E-01    0.1018979670E+00    0.1254396106E-02    0.5417009999E+00
    0.1300000000E+04    0.5149345053E+00    0.2464415239E-01    0.1025263001E+00    0.1109079422E-02    0.5457860912E+00
    0.1500000000E+04    0.5331505505E+00    0.2204292372E-01    0.1029921572E+00    0.9903538780E-03    0.5489145924E+00
    0.1700000000E+04    0.5479959501E+00    0.1992692321E-01    0.1033504379E+00    0.8924115377E-03    0.5513986748E+00
    0.1900000000E+04    0.5602941712E+00    0.1818288821E-01    0.1036337965E+00    0.8107645155E-03    0.5534263326E+00
    0.2100000000E+04    0.5706258801E+00    0.1672746661E-01    0.1038628901E+00    0.7419969495E-03    0.5551179253E+00
    0.2300000000E+04    0.5794114846E+00    0.1549886797E-01    0.1040514319E+00    0.6835092387E-03    0.5565542900E+00
    0.2500000000E+04    0.5869621831E+00    0.1445078301E-01    0.1042088854E+00    0.6333109382E-03    0.5577918526E+00
    0.2700000000E+04    0.5935127705E+00    0.1354808134E-01    0.1043419936E+00    0.5898647137E-03    0.5588712679E+00
    0.2900000000E+04    0.5992433810E+00    0.1276378382E-01    0.1044556911E+00    0.5519716341E-03    0.5598226160E+00
    0.3100000000E+04    0.6042942759E+00    0.1207692280E-01    0.1045536721E+00    0.5186873802E-03    0.5606686607E+00
    0.3300000000E+04    0.6087761274E+00    0.1147101665E-01    0.1046387570E+00    0.4892609117E-03    0.5614269672E+00
    0.3500000000E+04    0.6127773104E+00    0.1093297072E-01    0.1047131358E+00    0.4630893009E-03    0.5621113200E+00
    0.3700000000E+04    0.6163691637E+00    0.1045227660E-01    0.1047785350E+00    0.4396842067E-03    0.5627326988E+00
    0.3900000000E+04    0.6196098455E+00    0.1002042203E-01    0.1048363334E+00    0.4186467659E-03    0.5632999646E+00
    0.4100000000E+04    0.6225471991E+00    0.9630451258E-02    0.1048876454E+00    0.3996486183E-03    0.5638203528E+00
    0.4300000000E+04    0.6252209103E+00    0.9276633936E-02    0.1049333813E+00    0.3824174329E-03    0.5642998337E+00
    0.4500000000E+04    0.6276641509E+00    0.8954213177E-02    0.1049742918E+00    0.3667257712E-03    0.5647433809E+00
    0.4700000000E+04    0.6299048451E+00    0.8659212036E-02    0.1050110010E+00    0.3523824425E-03    0.5651551733E+00
    0.4900000000E+04    0.6319666540E+00    0.8388283452E-02    0.1050440326E+00    0.3392257387E-03    0.5655387494E+00
    0.1000000000E+04    0.4784876024E+00    0.2980512693E-01    0.1014945048E+00    0.1339213442E-02    0.5391401363E+00
    0.3000000000E+04    0.6018462797E+00    0.1240929439E-01    0.1045064527E+00    0.5348042784E-03    0.5602576009E+00
    0.5000000000E+04    0.6329368986E+00    0.8260943229E-02    0.1050593101E+00    0.3330485621E-03    0.5657209171E+00
    0.7000000000E+04    0.6465674854E+00    0.6475437062E-02    0.1052499257E+00    0.2472547305E-03    0.5684263919E+00
    0.9000000000E+04    0.6541366786E+00    0.5472797025E-02    0.1053250518E+00    0.2003386242E-03    0.5701010270E+00
    0.1100000000E+05    0.6589309138E+00    0.4821523165E-02    0.1053514337E+00    0.1707454968E-03    0.5712651843E+00
    0.1300000000E+05    0.6622328449E+00    0.4358563848E-02    0.1053540041E+00    0.1502993302E-03    0.5721344305E+00
    0.1500000000E+05    0.6646427118E+00    0.4008919202E-02    0.1053439164E+00    0.1352590433E-03    0.5728156926E+00
    0.1700000000E+05    0.6664778331E+00    0.3733218523E-02    0.1053267720E+00    0.1236801339E-03    0.5733686344E+00
    0.1900000000E+05    0.6679213674E+00    0.3508738244E-02    0.1053056176E+00    0.1144540588E-03    0.5738294451E+00
    0.2100000000E+05    0.6690862980E+00    0.3321393788E-02    0.1052822078E+00    0.1069029595E-03    0.5742214898E+00
    0.2300000000E+05    0.6700460437E+00    0.3161957384E-02    0.1052575962E+00    0.1005889071E-03    0.5745606042E+00
    0.2500000000E+05    0.6708503545E+00    0.3024109424E-02    0.1052324342E+00    0.9521617525E-04    0.5748579464E+00
    0.2700000000E+05    0.6715341248E+00    0.2903362619E-02    0.1052071330E+00    0.9057766761E-04    0.5751216328E+00
    0.2900000000E+05    0.6721225450E+00    0.2796433604E-02    0.1051819551E+00    0.8652387800E-04    0.5753577265E+00
    0.3100000000E+05    0.6726342522E+00    0.2700858353E-02    0.1051570682E+00    0.8294405730E-04    0.5755708593E+00
    0.3300000000E+05    0.6730833281E+00    0.2614747329E-02    0.1051325784E+00    0.7975433154E-04    0.5757646388E+00
    0.3500000000E+05    0.6734806098E+00    0.2536624274E-02    0.1051085512E+00    0.7688995028E-04    0.5759419224E+00
    0.3700000000E+05    0.6738345723E+00    0.2465316924E-02    0.1050850248E+00    0.7430008061E-04    0.5761050065E+00
    0.3900000000E+05    0.6741519385E+00    0.2399881029E-02    0.1050620189E+00    0.7194422085E-04    0.5762557608E+00
    0.4100000000E+05    0.6744381091E+00    0.2339546335E-02    0.1050395408E+00    0.6978967396E-04    0.5763957253E+00
    0.4300000000E+05    0.6746974724E+00    0.2283677403E-02    0.1050175891E+00    0.6780973173E-04    0.5765261814E+00
    0.4500000000E+05    0.6749336310E+00    0.2231744698E-02    0.1049961570E+00    0.6598234640E-04    0.5766482055E+00
    0.4700000000E+05    0.6751495694E+00    0.2183302905E-02    0.1049752338E+00    0.6428914295E-04    0.5767627091E+00
    0.4900000000E+05    0.6753477816E+00    0.2137974433E-02    0.1049548061E+00    0.6271467425E-04    0.5768704704E+00
    0.1000000000E+05    0.6567765954E+00    0.5116544970E-02    0.1053422902E+00    0.1840443586E-03    0.5707296992E+00
    0.3000000000E+05    0.6723870188E+00    0.2747356116E-02    0.1051694675E+00    0.8468048733E-04    0.5754669173E+00
    0.5000000000E+05    0.6754409099E+00    0.2116375026E-02    0.1049447736E+00    0.6196779583E-04    0.5769220353E+00
    0.7000000000E+05    0.6767429470E+00    0.1789513519E-02    0.1047663699E+00    0.5092951368E-04    0.5777214191E+00
    0.9000000000E+05    0.6774655273E+00    0.1580753798E-02    0.1046210232E+00    0.4413598571E-04    0.5782546452E+00
    0.1100000000E+06    0.6779255827E+00    0.1432442158E-02    0.1044987928E+00    0.3942893133E-04    0.5786475796E+00
    0.1300000000E+06    0.6782444764E+00    0.1319989770E-02    0.1043934141E+00    0.3592531945E-04    0.5789552718E+00
    0.1500000000E+06    0.6784787091E+00    0.1230885931E-02    0.1043008149E+00    0.3318898339E-04    0.5792062780E+00
    0.1700000000E+06    0.6786581536E+00    0.1157996987E-02    0.1042182256E+00    0.3097675944E-04    0.5794171526E+00
    0.1900000000E+06    0.6788000932E+00    0.1096915436E-02    0.1041436846E+00    0.2914107475E-04    0.5795982771E+00
    0.2100000000E+06    0.6789152246E+00    0.1044750336E-02    0.1040757542E+00    0.2758654490E-04    0.5797565552E+00
    0.2300000000E+06    0.6790105242E+00    0.9995154813E-03    0.1040133501E+00    0.2624844032E-04    0.5798967922E+00
    0.2500000000E+06    0.6790907372E+00    0.9597947331E-03    0.1039556349E+00    0.2508109542E-04    0.5800224565E+00
    0.2700000000E+06    0.6791592039E+00    0.9245473179E-03    0.1039019481E+00    0.2405125657E-04    0.5801361274E+00
    0.2900000000E+06    0.6792183445E+00    0.8929887419E-03    0.1038517601E+00    0.2313406141E-04    0.5802397709E+00
    0.3100000000E+06    0.6792699558E+00    0.8645148839E-03    0.1038046394E+00    0.2231050232E-04    0.5803349178E+00
    0.3300000000E+06    0.6793153996E+00    0.8386518946E-03    0.1037602299E+00    0.2156576742E-04    0.5804227812E+00
    0.3500000000E+06    0.6793557274E+00    0.8150221303E-03    0.1037182343E+00    0.2088812181E-04    0.5805043381E+00
    0.3700000000E+06    0.6793917639E+00    0.7933203864E-03    0.1036784018E+00    0.2026813278E-04    0.5805803855E+00
    0.3900000000E+06    0.6794241649E+00    0.7732969389E-03    0.1036405189E+00    0.1969812063E-04    0.5806515821E+00
    0.4100000000E+06    0.6794534590E+00    0.7547452029E-03    0.1036044022E+00    0.1917176146E-04    0.5807184776E+00
    0.4300000000E+06    0.6794800765E+00    0.7374925906E-03    0.1035698932E+00    0.1868379465E-04    0.5807815357E+00
    0.4500000000E+06    0.6795043716E+00    0.7213936328E-03    0.1035368539E+00    0.1822980378E-04    0.5808411504E+00
    0.4700000000E+06    0.6795266385E+00    0.7063247297E-03    0.1035051634E+00    0.1780605041E-04    0.5808976594E+00
    0.4900000000E+06    0.6795471234E+00    0.6921800931E-03    0.1034747150E+00    0.1740934600E-04    0.5809513544E+00
    0.1000000000E+06    0.6777185023E+00    0.1500991466E-02    0.1045574756E+00    0.4159228946E-04    0.5784643091E+00
    0.3000000000E+06    0.6792449977E+00    0.8783984315E-03    0.1038278402E+00    0.2271158628E-04    0.5802883242E+00
    0.5000000000E+06    0.6795567639E+00    0.6854253908E-03    0.1034599268E+00    0.1722026614E-04    0.5809772270E+00
    0.7000000000E+06    0.6796927810E+00    0.5821561924E-03    0.1032112481E+00    0.1435983943E-04    0.5813940138E+00
    0.9000000000E+06    0.6797695252E+00    0.5153182692E-03    0.1030229393E+00    0.1254058812E-04    0.5816897917E+00
    0.1100000000E+07    0.6798190441E+00    0.4675045053E-03    0.1028712563E+00    0.1125593477E-04    0.5819177327E+00
    0.1300000000E+07    0.6798537630E+00    0.4311021188E-03    0.1027442054E+00    0.1028794038E-04    0.5821025071E+00
    0.1500000000E+07    0.6798795234E+00    0.4021812407E-03    0.1026348719E+00    0.9525474141E-05    0.5822575032E+00
    0.1700000000E+07    0.6798994391E+00    0.3784801141E-03    0.1025389012E+00    0.8905203566E-05    0.5823907707E+00
    0.1900000000E+07    0.6799153248E+00    0.3585923579E-03    0.1024533722E+00    0.8388070622E-05    0.5825075133E+00
    0.2100000000E+07    0.6799283106E+00    0.3415912370E-03    0.1023762293E+00    0.7948519364E-05    0.5826112830E+00
    0.2300000000E+07    0.6799391381E+00    0.3268378341E-03    0.1023059704E+00    0.7569039793E-05    0.5827046084E+00
    0.2500000000E+07    0.6799483141E+00    0.3138753925E-03    0.1022414647E+00    0.7237183158E-05    0.5827893517E+00
    0.2700000000E+07    0.6799561974E+00    0.3023675157E-03    0.1021818393E+00    0.6943826693E-05    0.5828669228E+00
    0.2900000000E+07    0.6799630491E+00    0.2920602108E-03    0.1021264062E+00    0.6682113561E-05    0.5829384135E+00
    0.3100000000E+07    0.6799690638E+00    0.2827576121E-03    0.1020746136E+00    0.6446778144E-05    0.5830046868E+00
    0.3300000000E+07    0.6799743899E+00    0.2743059134E-03    0.1020260119E+00    0.6233701461E-05    0.5830664356E+00
    0.3500000000E+07    0.6799791421E+00    0.2665824176E-03    0.1019802303E+00    0.6039609402E-05    0.5831242248E+00
    0.3700000000E+07    0.6799834108E+00    0.2594878819E-03    0.1019369590E+00    0.5861862594E-05    0.5831785207E+00
    0.3900000000E+07    0.6799872684E+00    0.2529410475E-03    0.1018959366E+00    0.5698306732E-05    0.5832297125E+00
    0.4100000000E+07    0.6799907731E+00    0.2468746525E-03    0.1018569407E+00    0.5547163868E-05    0.5832781287E+00
    0.4300000000E+07    0.6799939726E+00    0.2412324744E-03    0.1018197802E+00    0.5406952029E-05    0.5833240483E+00
    0.4500000000E+07    0.6799969065E+00    0.2359671037E-03    0.1017842901E+00    0.5276424852E-05    0.5833677111E+00
    0.4700000000E+07    0.6799996074E+00    0.2310382418E-03    0.1017503264E+00    0.5154525596E-05    0.5834093238E+00
    0.4900000000E+07    0.6800021029E+00    0.2264113855E-03    0.1017177632E+00    0.5040351663E-05    0.5834490666E+00
    0.1000000000E+07    0.6797966803E+00    0.4896340878E-03    0.1029434342E+00    0.1184869783E-04    0.5818103236E+00
    0.3000000000E+07    0.6799661509E+00    0.2872937739E-03    0.1021000850E+00    0.6561428868E-05    0.5829721556E+00
    0.5000000000E+07    0.6800032811E+00    0.2242017536E-03    0.1017019716E+00    0.4985914834E-05    0.5834682868E+00
    0.7000000000E+07    0.6800202111E+00    0.1904136946E-03    0.1014385242E+00    0.4161055986E-05    0.5837841653E+00
    0.9000000000E+07    0.6800300971E+00    0.1685417286E-03    0.1012413033E+00    0.3635314608E-05    0.5840153704E+00
    0.1100000000E+08    0.6800366609E+00    0.1528947925E-03    0.1010836160E+00    0.3263637404E-05    0.5841974225E+00
    0.1300000000E+08    0.6800413781E+00    0.1409824337E-03    0.1009522337E+00    0.2983378744E-05    0.5843474014E+00
    0.1500000000E+08    0.6800449554E+00    0.1315186708E-03    0.1008396264E+00    0.2762522301E-05    0.5844748227E+00
    0.1700000000E+08    0.6800477758E+00    0.1237632818E-03    0.1007410962E+00    0.2582795291E-05    0.5845855262E+00
    0.1900000000E+08    0.6800500659E+00    0.1172559594E-03    0.1006535142E+00    0.2432916968E-05    0.5846833507E+00
    0.2100000000E+08    0.6800519687E+00    0.1116933754E-03    0.1005746910E+00    0.2305500651E-05    0.5847709534E+00
    0.2300000000E+08    0.6800535794E+00    0.1068664053E-03    0.1005030347E+00    0.2195482326E-05    0.5848502488E+00
    0.2500000000E+08    0.6800549638E+00    0.1026255488E-03    0.1004373513E+00    0.2099260094E-05    0.5849226616E+00
    0.2700000000E+08    0.6800561688E+00    0.9886070181E-04    0.1003767224E+00    0.2014193433E-05    0.5849892801E+00
