  Pressure (Pa) 22mC5-400 (mol/kg) 2mC6-400 (mol/kg) 3mC6-400 (mol/kg) 33mC5-400 (mol/kg) C7-400 (mol/kg)
    0.1000000000E+01    0.2114528278E-02    0.4738182629E-02    0.3669194970E-02    0.6430079854E-04    0.3402376527E-02
    0.3000000000E+01    0.6246973393E-02    0.1373394408E-01    0.1066383367E-01    0.1864047672E-03    0.9889774847E-02
    0.5000000000E+01    0.1025670403E-01    0.2213834083E-01    0.1723655181E-01    0.3005138892E-03    0.1598760570E-01
    0.7000000000E+01    0.1415054903E-01    0.3000445016E-01    0.2342628357E-01    0.4073459232E-03    0.2173176748E-01
    0.9000000000E+01    0.1793482291E-01    0.3737915504E-01    0.2926726201E-01    0.5075347785E-03    0.2715382716E-01
    0.1100000000E+02    0.2161537378E-01    0.4430403138E-01    0.3478971040E-01    0.6016425373E-03    0.3228165697E-01
    0.1300000000E+02    0.2519762594E-01    0.5081608575E-01    0.4002041479E-01    0.6901694478E-03    0.3713996171E-01
    0.1500000000E+02    0.2868661792E-01    0.5694837223E-01    0.4498320112E-01    0.7735622797E-03    0.4175071826E-01
    0.1700000000E+02    0.3208703651E-01    0.6273051113E-01    0.4969933489E-01    0.8522213490E-03    0.4613354363E-01
    0.1900000000E+02    0.3540324718E-01    0.6818912732E-01    0.5418785760E-01    0.9265064541E-03    0.5030600495E-01
    0.2100000000E+02    0.3863932141E-01    0.7334822260E-01    0.5846587146E-01    0.9967419167E-03    0.5428388173E-01
    0.2300000000E+02    0.4179906130E-01    0.7822949335E-01    0.6254878140E-01    0.1063220882E-02    0.5808138882E-01
    0.2500000000E+02    0.4488602168E-01    0.8285260275E-01    0.6645050153E-01    0.1126209004E-02    0.6171136665E-01
    0.2700000000E+02    0.4790353013E-01    0.8723541500E-01    0.7018363226E-01    0.1185947614E-02    0.6518544441E-01
    0.2900000000E+02    0.5085470504E-01    0.9139419763E-01    0.7375961260E-01    0.1242656460E-02    0.6851418041E-01
    0.3100000000E+02    0.5374247198E-01    0.9534379692E-01    0.7718885176E-01    0.1296536079E-02    0.7170718333E-01
    0.3300000000E+02    0.5656957854E-01    0.9909779051E-01    0.8048084314E-01    0.1347769862E-02    0.7477321732E-01
    0.3500000000E+02    0.5933860785E-01    0.1026686206E+00    0.8364426356E-01    0.1396525855E-02    0.7772029338E-01
    0.3700000000E+02    0.6205199081E-01    0.1060677108E+00    0.8668705977E-01    0.1442958339E-02    0.8055574915E-01
    0.3900000000E+02    0.6471201734E-01    0.1093055681E+00    0.8961652413E-01    0.1487209214E-02    0.8328631868E-01
    0.4100000000E+02    0.6732084653E-01    0.1123918738E+00    0.9243936114E-01    0.1529409221E-02    0.8591819371E-01
    0.4300000000E+02    0.6988051601E-01    0.1153355628E+00    0.9516174587E-01    0.1569679020E-02    0.8845707756E-01
    0.4500000000E+02    0.7239295050E-01    0.1181448944E+00    0.9778937565E-01    0.1608130142E-02    0.9090823281E-01
    0.4700000000E+02    0.7485996958E-01    0.1208275149E+00    0.1003275157E+00    0.1644865843E-02    0.9327652331E-01
    0.4900000000E+02    0.7728329494E-01    0.1233905135E+00    0.1027810397E+00    0.1679981851E-02    0.9556645165E-01
    0.1000000000E+02    0.1978771524E-01    0.4089540953E-01    0.3206655379E-01    0.5553161853E-03    0.2975290805E-01
    0.3000000000E+02    0.5230633878E-01    0.9339426850E-01    0.7549196125E-01    0.1269938082E-02    0.7012708209E-01
    0.5000000000E+02    0.7847908535E-01    0.1246292301E+00    0.1039774956E+00    0.1696960496E-02    0.9668334651E-01
    0.7000000000E+02    0.1004545622E+00    0.1444949787E+00    0.1244034015E+00    0.1970020369E-02    0.1157750942E+00
    0.9000000000E+02    0.1194754916E+00    0.1576334051E+00    0.1399445888E+00    0.2151802813E-02    0.1303368620E+00
    0.1100000000E+03    0.1363146786E+00    0.1665067260E+00    0.1522783730E+00    0.2275568625E-02    0.1419203634E+00
    0.1300000000E+03    0.1514804326E+00    0.1725373276E+00    0.1623790829E+00    0.2360545210E-02    0.1514277477E+00
    0.1500000000E+03    0.1653224004E+00    0.1766004204E+00    0.1708540174E+00    0.2418575395E-02    0.1594217986E+00
    0.1700000000E+03    0.1780900572E+00    0.1792614087E+00    0.1781029081E+00    0.2457320022E-02    0.1662732529E+00
    0.1900000000E+03    0.1899669221E+00    0.1808999980E+00    0.1844005439E+00    0.2481932217E-02    0.1722371738E+00
    0.2100000000E+03    0.2010915341E+00    0.1817793742E+00    0.1899426392E+00    0.2495990678E-02    0.1774953705E+00
    0.2300000000E+03    0.2115708292E+00    0.1820868087E+00    0.1948727584E+00    0.2502047562E-02    0.1821813114E+00
    0.2500000000E+03    0.2214889625E+00    0.1819585305E+00    0.1992988652E+00    0.2501964183E-02    0.1863954452E+00
    0.2700000000E+03    0.2309132982E+00    0.1814955183E+00    0.2033038982E+00    0.2497124236E-02    0.1902149958E+00
    0.2900000000E+03    0.2398985800E+00    0.1807738391E+00    0.2069527563E+00    0.2488573449E-02    0.1937004350E+00
    0.3100000000E+03    0.2484899008E+00    0.1798515980E+00    0.2102970455E+00    0.2477113525E-02    0.1968998842E+00
    0.3300000000E+03    0.2567248590E+00    0.1787737192E+00    0.2133783874E+00    0.2463366806E-02    0.1998521822E+00
    0.3500000000E+03    0.2646351520E+00    0.1775753036E+00    0.2162307752E+00    0.2447821722E-02    0.2025890725E+00
    0.3700000000E+03    0.2722477723E+00    0.1762840285E+00    0.2188822853E+00    0.2430865301E-02    0.2051367915E+00
    0.3900000000E+03    0.2795859187E+00    0.1749218917E+00    0.2213563418E+00    0.2412806825E-02    0.2075172434E+00
    0.4100000000E+03    0.2866696992E+00    0.1735064976E+00    0.2236726663E+00    0.2393895283E-02    0.2097488827E+00
    0.4300000000E+03    0.2935166793E+00    0.1720520171E+00    0.2258480005E+00    0.2374332427E-02    0.2118473859E+00
    0.4500000000E+03    0.3001423151E+00    0.1705699143E+00    0.2278966636E+00    0.2354282657E-02    0.2138261703E+00
    0.4700000000E+03    0.3065602976E+00    0.1690695014E+00    0.2298309876E+00    0.2333880583E-02    0.2156967986E+00
    0.4900000000E+03    0.3127828306E+00    0.1675583669E+00    0.2316616604E+00    0.2313236876E-02    0.2174692982E+00
    0.1000000000E+03    0.1281313879E+00    0.1624974935E+00    0.1464402156E+00    0.2219509217E-02    0.1364340706E+00
    0.3000000000E+03    0.2442409809E+00    0.1803347170E+00    0.2086601680E+00    0.2483164637E-02    0.1953332924E+00
    0.5000000000E+03    0.3158242666E+00    0.1668007629E+00    0.2325410861E+00    0.2302853593E-02    0.2183215272E+00
    0.7000000000E+03    0.3685528070E+00    0.1520968219E+00    0.2464278603E+00    0.2097721898E-02    0.2318497981E+00
    0.9000000000E+03    0.4096456934E+00    0.1392046298E+00    0.2558959473E+00    0.1913255613E-02    0.2411620063E+00
    0.1100000000E+04    0.4425737685E+00    0.1283064886E+00    0.2629265934E+00    0.1754459685E-02    0.2481330663E+00
    0.1300000000E+04    0.4694394592E+00    0.1191339431E+00    0.2684342863E+00    0.1618966287E-02    0.2536329429E+00
    0.1500000000E+04    0.4916638388E+00    0.1113768026E+00    0.2729106619E+00    0.1503188625E-02    0.2581315074E+00
    0.1700000000E+04    0.5102631502E+00    0.1047656297E+00    0.2766480860E+00    0.1403747768E-02    0.2619093460E+00
    0.1900000000E+04    0.5259881609E+00    0.9908244170E-01    0.2798334035E+00    0.1317780433E-02    0.2651464541E+00
    0.2100000000E+04    0.5394055314E+00    0.9415468925E-01    0.2825926609E+00    0.1242945142E-02    0.2679646789E+00
    0.2300000000E+04    0.5509498470E+00    0.8984643580E-01    0.2850145546E+00    0.1177350455E-02    0.2704500366E+00
    0.2500000000E+04    0.5609587811E+00    0.8605033964E-01    0.2871636481E+00    0.1119472331E-02    0.2726653269E+00
    0.2700000000E+04    0.5696976988E+00    0.8268116835E-01    0.2890882628E+00    0.1068080214E-02    0.2746576831E+00
    0.2900000000E+04    0.5773772813E+00    0.7967076891E-01    0.2908254147E+00    0.1022176167E-02    0.2764633061E+00
    0.3100000000E+04    0.5841663713E+00    0.7696422799E-01    0.2924040238E+00    0.9809464004E-03    0.2781105503E+00
    0.3300000000E+04    0.5902014667E+00    0.7451695364E-01    0.2938470722E+00    0.9437232448E-03    0.2796220016E+00
    0.3500000000E+04    0.5955938199E+00    0.7229245472E-01    0.2951730936E+00    0.9099554509E-03    0.2810159162E+00
    0.3700000000E+04    0.6004348025E+00    0.7026064414E-01    0.2963972297E+00    0.8791850126E-03    0.2823072412E+00
    0.3900000000E+04    0.6047999996E+00    0.6839653506E-01    0.2975319932E+00    0.8510290314E-03    0.2835083547E+00
    0.4100000000E+04    0.6087523613E+00    0.6667923236E-01    0.2985878299E+00    0.8251654685E-03    0.2846296112E+00
    0.4300000000E+04    0.6123446498E+00    0.6509114731E-01    0.2995735409E+00    0.8013218976E-03    0.2856797516E+00
    0.4500000000E+04    0.6156213548E+00    0.6361738159E-01    0.3004966026E+00    0.7792665776E-03    0.2866662157E+00
    0.4700000000E+04    0.6186202037E+00    0.6224524075E-01    0.3013634137E+00    0.7588013263E-03    0.2875953824E+00
    0.4900000000E+04    0.6213733613E+00    0.6096384740E-01    0.3021794886E+00    0.7397558003E-03    0.2884727588E+00
    0.1000000000E+04    0.4269781078E+00    0.1335201073E+00    0.2596446752E+00    0.1830736110E-02    0.2448724667E+00
    0.3000000000E+04    0.5808739417E+00    0.7828251609E-01    0.2916329816E+00    0.1001021769E-02    0.2773051981E+00
    0.5000000000E+04    0.6226665762E+00    0.6035420119E-01    0.3025700192E+00    0.7307186588E-03    0.2888935453E+00
    0.7000000000E+04    0.6406044751E+00    0.5121644684E-01    0.3086021889E+00    0.5975908947E-03    0.2954786872E+00
    0.9000000000E+04    0.6502880970E+00    0.4546897615E-01    0.3125595476E+00    0.5167470793E-03    0.2999048312E+00
    0.1100000000E+05    0.6562684936E+00    0.4141769363E-01    0.3154090718E+00    0.4614661572E-03    0.3031593323E+00
    0.1300000000E+05    0.6603001650E+00    0.3835519294E-01    0.3175848079E+00    0.4207270619E-03    0.3056911465E+00
    0.1500000000E+05    0.6631900538E+00    0.3592910573E-01    0.3193147157E+00    0.3891346087E-03    0.3077387241E+00
    0.1700000000E+05    0.6653573083E+00    0.3394183216E-01    0.3207316047E+00    0.3637188209E-03    0.3094423908E+00
    0.1900000000E+05    0.6670398974E+00    0.3227277331E-01    0.3219188052E+00    0.3426995894E-03    0.3108910059E+00
    0.2100000000E+05    0.6683824118E+00    0.3084351528E-01    0.3229316039E+00    0.3249390735E-03    0.3121440294E+00
    0.2300000000E+05    0.6694775301E+00    0.2960051111E-01    0.3238083189E+00    0.3096724776E-03    0.3132430015E+00
    0.2500000000E+05    0.6703872790E+00    0.2850573923E-01    0.3245764563E+00    0.2963646105E-03    0.3142179663E+00
    0.2700000000E+05    0.6711546768E+00    0.2753132989E-01    0.3252563400E+00    0.2846283937E-03    0.3150912817E+00
    0.2900000000E+05    0.6718104632E+00    0.2665630849E-01    0.3258633541E+00    0.2741760714E-03    0.3158799871E+00
    0.3100000000E+05    0.6723771694E+00    0.2586453480E-01    0.3264093860E+00    0.2647886971E-03    0.3165973345E+00
    0.3300000000E+05    0.6728716756E+00    0.2514335053E-01    0.3269037846E+00    0.2562963335E-03    0.3172538116E+00
    0.3500000000E+05    0.6733068708E+00    0.2448266396E-01    0.3273540171E+00    0.2485647926E-03    0.3178578452E+00
    0.3700000000E+05    0.6736927624E+00    0.2387431355E-01    0.3277661283E+00    0.2414865099E-03    0.3184162972E+00
    0.3900000000E+05    0.6740372358E+00    0.2331161503E-01    0.3281450710E+00    0.2349741133E-03    0.3189348209E+00
    0.4100000000E+05    0.6743465871E+00    0.2278903247E-01    0.3284949463E+00    0.2289557927E-03    0.3194181237E+00
    0.4300000000E+05    0.6746259025E+00    0.2230193504E-01    0.3288191834E+00    0.2233719059E-03    0.3198701618E+00
    0.4500000000E+05    0.6748793350E+00    0.2184641408E-01    0.3291206738E+00    0.2181724470E-03    0.3202942889E+00
    0.4700000000E+05    0.6751103084E+00    0.2141914369E-01    0.3294018754E+00    0.2133151307E-03    0.3206933699E+00
    0.4900000000E+05    0.6753216702E+00    0.2101727289E-01    0.3296648922E+00    0.2087639225E-03    0.3210698691E+00
    0.1000000000E+05    0.6535982238E+00    0.4328774476E-01    0.3140887256E+00    0.4867943290E-03    0.3016434185E+00
    0.3000000000E+05    0.6721037866E+00    0.2625087605E-01    0.3261433579E+00    0.2693608554E-03    0.3162468698E+00
    0.5000000000E+05    0.6754207580E+00    0.2082508016E-01    0.3297901578E+00    0.2065932712E-03    0.3212503286E+00
    0.7000000000E+05    0.6767906548E+00    0.1786261469E-01    0.3316727715E+00    0.1736201971E-03    0.3240680741E+00
    0.9000000000E+05    0.6775373080E+00    0.1591902163E-01    0.3328490613E+00    0.1524840775E-03    0.3259602532E+00
    0.1100000000E+06    0.6780069336E+00    0.1451478231E-01    0.3336625863E+00    0.1374616334E-03    0.3273545771E+00
    0.1300000000E+06    0.6783295202E+00    0.1343747628E-01    0.3342621546E+00    0.1260809645E-03    0.3284431422E+00
    0.1500000000E+06    0.6785647666E+00    0.1257631256E-01    0.3347237675E+00    0.1170759249E-03    0.3293272192E+00
    0.1700000000E+06    0.6787439174E+00    0.1186698693E-01    0.3350906881E+00    0.1097217959E-03    0.3300661296E+00
    0.1900000000E+06    0.6788849057E+00    0.1126923057E-01    0.3353895236E+00    0.1035698229E-03    0.3306973304E+00
    0.2100000000E+06    0.6789987576E+00    0.1075634772E-01    0.3356376165E+00    0.9832529585E-04    0.3312458435E+00
    0.2300000000E+06    0.6790926251E+00    0.1030983709E-01    0.3358467953E+00    0.9378560889E-04    0.3317291342E+00
    0.2500000000E+06    0.6791713499E+00    0.9916411433E-02    0.3360254269E+00    0.8980627597E-04    0.3321598308E+00
    0.2700000000E+06    0.6792383264E+00    0.9566244931E-02    0.3361796096E+00    0.8628111570E-04    0.3325473323E+00
    0.2900000000E+06    0.6792960047E+00    0.9251891620E-02    0.3363139009E+00    0.8313011379E-04    0.3328988049E+00
    0.3100000000E+06    0.6793461980E+00    0.8967590666E-02    0.3364317798E+00    0.8029167775E-04    0.3332198262E+00
    0.3300000000E+06    0.6793902765E+00    0.8708804763E-02    0.3365359514E+00    0.7771752108E-04    0.3335148142E+00
    0.3500000000E+06    0.6794292952E+00    0.8471904434E-02    0.3366285526E+00    0.7536918299E-04    0.3337873223E+00
    0.3700000000E+06    0.6794640795E+00    0.8253946632E-02    0.3367112951E+00    0.7321559968E-04    0.3340402476E+00
    0.3900000000E+06    0.6794952844E+00    0.8052516034E-02    0.3367855671E+00    0.7123137103E-04    0.3342759798E+00
    0.4100000000E+06    0.6795234363E+00    0.7865609053E-02    0.3368525069E+00    0.6939549923E-04    0.3344965112E+00
    0.4300000000E+06    0.6795489634E+00    0.7691547605E-02    0.3369130574E+00    0.6769045444E-04    0.3347035189E+00
    0.4500000000E+06    0.6795722171E+00    0.7528913993E-02    0.3369680061E+00    0.6610147194E-04    0.3348984262E+00
    0.4700000000E+06    0.6795934889E+00    0.7376501058E-02    0.3370180164E+00    0.6461601576E-04    0.3350824508E+00
    0.4900000000E+06    0.6796130223E+00    0.7233273537E-02    0.3370636514E+00    0.6322336432E-04    0.3352566418E+00
    0.1000000000E+06    0.6777961376E+00    0.1516619327E-01    0.3332893934E+00    0.1444041860E-03    0.3267045835E+00
    0.3000000000E+06    0.6793219427E+00    0.9106292598E-02    0.3363747075E+00    0.8167510777E-04    0.3330628227E+00
    0.5000000000E+06    0.6796222026E+00    0.7164820195E-02    0.3370849811E+00    0.6255890478E-04    0.3353403387E+00
    0.7000000000E+06    0.6797507422E+00    0.6113763104E-02    0.3373685672E+00    0.5245305828E-04    0.3366665024E+00
    0.9000000000E+06    0.6798222429E+00    0.5428936345E-02    0.3375001363E+00    0.4597315275E-04    0.3375809516E+00
    0.1100000000E+07    0.6798678335E+00    0.4936789393E-02    0.3375617023E+00    0.4137265057E-04    0.3382697800E+00
    0.1300000000E+07    0.6798994670E+00    0.4560819898E-02    0.3375862521E+00    0.3789245249E-04    0.3388177744E+00
    0.1500000000E+07    0.6799227190E+00    0.4261316604E-02    0.3375894913E+00    0.3514278809E-04    0.3392702144E+00
    0.1700000000E+07    0.6799405416E+00    0.4015328299E-02    0.3375797649E+00    0.3290038604E-04    0.3396539360E+00
    0.1900000000E+07    0.6799546447E+00    0.3808535835E-02    0.3375618629E+00    0.3102699651E-04    0.3399860669E+00
    0.2100000000E+07    0.6799660875E+00    0.3631477489E-02    0.3375386952E+00    0.2943186532E-04    0.3402781622E+00
    0.2300000000E+07    0.6799755614E+00    0.3477614818E-02    0.3375121081E+00    0.2805264081E-04    0.3405383621E+00
    0.2500000000E+07    0.6799835368E+00    0.3342264103E-02    0.3374833128E+00    0.2684489053E-04    0.3407726026E+00
    0.2700000000E+07    0.6799903452E+00    0.3221969739E-02    0.3374531253E+00    0.2577598725E-04    0.3409853376E+00
    0.2900000000E+07    0.6799962267E+00    0.3114118516E-02    0.3374221061E+00    0.2482136406E-04    0.3411799888E+00
    0.3100000000E+07    0.6800013598E+00    0.3016692438E-02    0.3373906471E+00    0.2396212522E-04    0.3413592383E+00
    0.3300000000E+07    0.6800058797E+00    0.2928104834E-02    0.3373590247E+00    0.2318346869E-04    0.3415252250E+00
    0.3500000000E+07    0.6800098907E+00    0.2847088498E-02    0.3373274357E+00    0.2247361344E-04    0.3416796807E+00
    0.3700000000E+07    0.6800134750E+00    0.2772617374E-02    0.3372960205E+00    0.2182305119E-04    0.3418240256E+00
    0.3900000000E+07    0.6800166977E+00    0.2703850519E-02    0.3372648794E+00    0.2122401279E-04    0.3419594382E+00
    0.4100000000E+07    0.6800196113E+00    0.2640091215E-02    0.3372340834E+00    0.2067007997E-04    0.3420869068E+00
    0.4300000000E+07    0.6800222585E+00    0.2580756609E-02    0.3372036820E+00    0.2015589800E-04    0.3422072675E+00
    0.4500000000E+07    0.6800246747E+00    0.2525354822E-02    0.3371737092E+00    0.1967695962E-04    0.3423212337E+00
    0.4700000000E+07    0.6800268891E+00    0.2473467448E-02    0.3371441871E+00    0.1922944025E-04    0.3424294187E+00
    0.4900000000E+07    0.6800289262E+00    0.2424736004E-02    0.3371151291E+00    0.1881007075E-04    0.3425323537E+00
    0.1000000000E+07    0.6798473056E+00    0.5164804332E-02    0.3375370090E+00    0.4349796911E-04    0.3379469445E+00
    0.3000000000E+07    0.6799988775E+00    0.3064210100E-02    0.3374064121E+00    0.2438082817E-04    0.3412713941E+00
    0.5000000000E+07    0.6800298848E+00    0.2401455453E-02    0.3371007765E+00    0.1861004754E-04    0.3425819992E+00
    0.7000000000E+07    0.6800434049E+00    0.2044800436E-02    0.3368378143E+00    0.1557325936E-04    0.3433856615E+00
    0.9000000000E+07    0.6800510258E+00    0.1813229878E-02    0.3366146708E+00    0.1363160314E-04    0.3439599738E+00
    0.1100000000E+08    0.6800559376E+00    0.1647208237E-02    0.3364220412E+00    0.1225585400E-04    0.3444044855E+00
    0.1300000000E+08    0.6800593771E+00    0.1520600532E-02    0.3362528225E+00    0.1121669429E-04    0.3447658910E+00
    0.1500000000E+08    0.6800619260E+00    0.1419880515E-02    0.3361019732E+00    0.1039664481E-04    0.3450697162E+00
    0.1700000000E+08    0.6800638940E+00    0.1337248282E-02    0.3359658761E+00    0.9728530407E-05    0.3453313887E+00
    0.1900000000E+08    0.6800654617E+00    0.1267846267E-02    0.3358418722E+00    0.9170816783E-05    0.3455609222E+00
    0.2100000000E+08    0.6800667415E+00    0.1208469477E-02    0.3357279580E+00    0.8696271992E-05    0.3457651732E+00
    0.2300000000E+08    0.6800678073E+00    0.1156905897E-02    0.3356225889E+00    0.8286206145E-05    0.3459490358E+00
    0.2500000000E+08    0.6800687092E+00    0.1111572685E-02    0.3355245502E+00    0.7927312680E-05    0.3461161214E+00
    0.2700000000E+08    0.6800694831E+00    0.1071303125E-02    0.3354328699E+00    0.7609828225E-05    0.3462691692E+00
