  Pressure (Pa) 22mC5-400 (mol/kg) 2mC6-400 (mol/kg) 3mC6-400 (mol/kg) 33mC5-400 (mol/kg) C7-400 (mol/kg)
    0.1000000000E+01    0.2110758746E-02    0.6333803457E-02    0.1052687472E-02    0.3223082560E-03    0.1708202207E-02
    0.3000000000E+01    0.6214545438E-02    0.1844935581E-01    0.3083806782E-02    0.9388292697E-03    0.5004599459E-02
    0.5000000000E+01    0.1017051198E-01    0.2987775455E-01    0.5022106006E-02    0.1520378628E-02    0.8150974867E-02
    0.7000000000E+01    0.1398873625E-01    0.4067246034E-01    0.6874364507E-02    0.2069676422E-02    0.1115827230E-01
    0.9000000000E+01    0.1767836790E-01    0.5088160881E-01    0.8646704878E-02    0.2589171809E-02    0.1403637608E-01
    0.1100000000E+02    0.2124773396E-01    0.6054865289E-01    0.1034467112E-01    0.3081075696E-02    0.1679423711E-01
    0.1300000000E+02    0.2470443021E-01    0.6971291477E-01    0.1197329589E-01    0.3547388825E-02    0.1943998123E-01
    0.1500000000E+02    0.2805540063E-01    0.7841006189E-01    0.1353715854E-01    0.3989925989E-02    0.2198100288E-01
    0.1700000000E+02    0.3130700665E-01    0.8667251889E-01    0.1504043538E-01    0.4410336990E-02    0.2442404618E-01
    0.1900000000E+02    0.3446508774E-01    0.9452982526E-01    0.1648694346E-01    0.4810124841E-02    0.2677527545E-01
    0.2100000000E+02    0.3753501449E-01    0.1020089470E+00    0.1788017862E-01    0.5190661615E-02    0.2904033670E-01
    0.2300000000E+02    0.4052173536E-01    0.1091345486E+00    0.1922334889E-01    0.5553202296E-02    0.3122441146E-01
    0.2500000000E+02    0.4342981792E-01    0.1159292319E+00    0.2051940377E-01    0.5898896915E-02    0.3333226393E-01
    0.2700000000E+02    0.4626348531E-01    0.1224137454E+00    0.2177105994E-01    0.6228801211E-02    0.3536828261E-01
    0.2900000000E+02    0.4902664852E-01    0.1286071692E+00    0.2298082402E-01    0.6543886032E-02    0.3733651687E-01
    0.3100000000E+02    0.5172293516E-01    0.1345270778E+00    0.2415101265E-01    0.6845045631E-02    0.3924070946E-01
    0.3300000000E+02    0.5435571505E-01    0.1401896846E+00    0.2528377033E-01    0.7133105010E-02    0.4108432523E-01
    0.3500000000E+02    0.5692812304E-01    0.1456099704E+00    0.2638108526E-01    0.7408826452E-02    0.4287057670E-01
    0.3700000000E+02    0.5944307951E-01    0.1508017971E+00    0.2744480349E-01    0.7672915312E-02    0.4460244687E-01
    0.3900000000E+02    0.6190330864E-01    0.1557780094E+00    0.2847664147E-01    0.7926025200E-02    0.4628270954E-01
    0.4100000000E+02    0.6431135494E-01    0.1605505260E+00    0.2947819741E-01    0.8168762594E-02    0.4791394755E-01
    0.4300000000E+02    0.6666959804E-01    0.1651304202E+00    0.3045096134E-01    0.8401690982E-02    0.4949856908E-01
    0.4500000000E+02    0.6898026607E-01    0.1695279937E+00    0.3139632422E-01    0.8625334573E-02    0.5103882237E-01
    0.4700000000E+02    0.7124544774E-01    0.1737528414E+00    0.3231558617E-01    0.8840181628E-02    0.5253680889E-01
    0.4900000000E+02    0.7346710329E-01    0.1778139109E+00    0.3320996379E-01    0.9046687467E-02    0.5399449527E-01
    0.1000000000E+02    0.1947759324E-01    0.5578034537E-01    0.9504658962E-02    0.2838443019E-02    0.1542981090E-01
    0.3000000000E+02    0.5038293504E-01    0.1316002692E+00    0.2357072740E-01    0.6696153379E-02    0.3829639562E-01
    0.5000000000E+02    0.7456218866E-01    0.1797856611E+00    0.3364817998E-01    0.9146946382E-02    0.5470880629E-01
    0.7000000000E+02    0.9457189677E-01    0.2123816033E+00    0.4134795603E-01    0.1080374042E-01    0.6727034140E-01
    0.9000000000E+02    0.1117731935E+00    0.2353944256E+00    0.4750267262E-01    0.1197220489E-01    0.7732736557E-01
    0.1100000000E+03    0.1269641734E+00    0.2521385645E+00    0.5258872264E-01    0.1282104223E-01    0.8565067792E-01
    0.1300000000E+03    0.1406474869E+00    0.2645847006E+00    0.5689982164E-01    0.1345057949E-01    0.9271577868E-01
    0.1500000000E+03    0.1531576826E+00    0.2739737152E+00    0.6062774310E-01    0.1392400626E-01    0.9883330374E-01
    0.1700000000E+03    0.1647274357E+00    0.2811233248E+00    0.6390352208E-01    0.1428297663E-01    0.1042156180E+00
    0.1900000000E+03    0.1755244801E+00    0.2865926886E+00    0.6682006084E-01    0.1455598484E-01    0.1090133638E+00
    0.2100000000E+03    0.1856733982E+00    0.2907760626E+00    0.6944527364E-01    0.1476313096E-01    0.1133367210E+00
    0.2300000000E+03    0.1952690885E+00    0.2939586983E+00    0.7183010493E-01    0.1491896544E-01    0.1172683795E+00
    0.2500000000E+03    0.2043854209E+00    0.2963515733E+00    0.7401362071E-01    0.1503425656E-01    0.1208717796E+00
    0.2700000000E+03    0.2130809881E+00    0.2981137210E+00    0.7602635351E-01    0.1511712696E-01    0.1241965273E+00
    0.2900000000E+03    0.2214030382E+00    0.2993670167E+00    0.7789256583E-01    0.1517380624E-01    0.1272820599E+00
    0.3100000000E+03    0.2293902322E+00    0.3002062232E+00    0.7963182124E-01    0.1520914231E-01    0.1301601916E+00
    0.3300000000E+03    0.2370746199E+00    0.3007059716E+00    0.8126009999E-01    0.1522695677E-01    0.1328569206E+00
    0.3500000000E+03    0.2444830845E+00    0.3009257103E+00    0.8279060691E-01    0.1523029699E-01    0.1353937395E+00
    0.3700000000E+03    0.2516384161E+00    0.3009132765E+00    0.8423436718E-01    0.1522161792E-01    0.1377886008E+00
    0.3900000000E+03    0.2585601227E+00    0.3007075166E+00    0.8560067260E-01    0.1520291555E-01    0.1400566407E+00
    0.4100000000E+03    0.2652650519E+00    0.3003402345E+00    0.8689742081E-01    0.1517582622E-01    0.1422107299E+00
    0.4300000000E+03    0.2717678724E+00    0.2998376613E+00    0.8813137653E-01    0.1514170150E-01    0.1442618971E+00
    0.4500000000E+03    0.2780814518E+00    0.2992215768E+00    0.8930837512E-01    0.1510166531E-01    0.1462196598E+00
    0.4700000000E+03    0.2842171573E+00    0.2985101744E+00    0.9043348295E-01    0.1505665805E-01    0.1480922842E+00
    0.4900000000E+03    0.2901850952E+00    0.2977187348E+00    0.9151112511E-01    0.1500747095E-01    0.1498869932E+00
    0.1000000000E+03    0.1195835406E+00    0.2444047302E+00    0.5015785894E-01    0.1242917773E-01    0.8167106138E-01
    0.3000000000E+03    0.2254363532E+00    0.2998333109E+00    0.7877699109E-01    0.1519388263E-01    0.1287453070E+00
    0.5000000000E+03    0.2931090133E+00    0.2972971126E+00    0.9203337967E-01    0.1498152321E-01    0.1507571428E+00
    0.7000000000E+03    0.3445584105E+00    0.2869216075E+00    0.1007220684E+00    0.1436075880E-01    0.1652714681E+00
    0.9000000000E+03    0.3857237555E+00    0.2756732399E+00    0.1072147532E+00    0.1369513364E-01    0.1761652387E+00
    0.1100000000E+04    0.4194492287E+00    0.2651166801E+00    0.1124103874E+00    0.1306884542E-01    0.1849131046E+00
    0.1300000000E+04    0.4474842901E+00    0.2555965568E+00    0.1167461622E+00    0.1250157678E-01    0.1922343061E+00
    0.1500000000E+04    0.4710428226E+00    0.2471131958E+00    0.1204682111E+00    0.1199414063E-01    0.1985347616E+00
    0.1700000000E+04    0.4910194641E+00    0.2395671815E+00    0.1237291840E+00    0.1154153691E-01    0.2040667538E+00
    0.1900000000E+04    0.5080953195E+00    0.2328381864E+00    0.1266304943E+00    0.1113731662E-01    0.2089982026E+00
    0.2100000000E+04    0.5227991253E+00    0.2268114263E+00    0.1292430709E+00    0.1077513082E-01    0.2134467474E+00
    0.2300000000E+04    0.5355468293E+00    0.2213857014E+00    0.1316185393E+00    0.1044925466E-01    0.2174981401E+00
    0.2500000000E+04    0.5466690219E+00    0.2164746727E+00    0.1337956891E+00    0.1015471541E-01    0.2212169001E+00
    0.2700000000E+04    0.5564307398E+00    0.2120057252E+00    0.1358044324E+00    0.9887267492E-02    0.2246528425E+00
    0.2900000000E+04    0.5650461248E+00    0.2079181168E+00    0.1376683388E+00    0.9643313633E-02    0.2278452648E+00
    0.3100000000E+04    0.5726894507E+00    0.2041610767E+00    0.1394063220E+00    0.9419813560E-02    0.2308257355E+00
    0.3300000000E+04    0.5795035161E+00    0.2006920900E+00    0.1410337984E+00    0.9214196810E-02    0.2336200111E+00
    0.3500000000E+04    0.5856060911E+00    0.1974754380E+00    0.1425635044E+00    0.9024285650E-02    0.2362493909E+00
    0.3700000000E+04    0.5910949080E+00    0.1944809860E+00    0.1440060873E+00    0.8848229404E-02    0.2387316962E+00
    0.3900000000E+04    0.5960515532E+00    0.1916831932E+00    0.1453705412E+00    0.8684449569E-02    0.2410819935E+00
    0.4100000000E+04    0.6005445213E+00    0.1890603067E+00    0.1466645341E+00    0.8531594404E-02    0.2433131382E+00
    0.4300000000E+04    0.6046316288E+00    0.1865937089E+00    0.1478946575E+00    0.8388501531E-02    0.2454361896E+00
    0.4500000000E+04    0.6083619314E+00    0.1842673869E+00    0.1490666201E+00    0.8254167192E-02    0.2474607325E+00
    0.4700000000E+04    0.6117772579E+00    0.1820675019E+00    0.1501853992E+00    0.8127720958E-02    0.2493951296E+00
    0.4900000000E+04    0.6149134433E+00    0.1799820378E+00    0.1512553610E+00    0.8008404898E-02    0.2512467217E+00
    0.1000000000E+04    0.4033907202E+00    0.2702738308E+00    0.1099410877E+00    0.1337513364E-01    0.1807521515E+00
    0.3000000000E+04    0.5689797162E+00    0.2060011080E+00    0.1385520362E+00    0.9529177579E-02    0.2293602661E+00
    0.5000000000E+04    0.6163866670E+00    0.1789788851E+00    0.1517732569E+00    0.7951210295E-02    0.2521435207E+00
    0.7000000000E+04    0.6367937893E+00    0.1629701905E+00    0.1603034779E+00    0.7057882468E-02    0.2669705955E+00
    0.9000000000E+04    0.6477411891E+00    0.1517641953E+00    0.1665252709E+00    0.6456466271E-02    0.2778571146E+00
    0.1100000000E+05    0.6544489811E+00    0.1432021472E+00    0.1713758651E+00    0.6010826237E-02    0.2863913033E+00
    0.1300000000E+05    0.6589365631E+00    0.1363073735E+00    0.1753212414E+00    0.5660531502E-02    0.2933661283E+00
    0.1500000000E+05    0.6621308870E+00    0.1305586659E+00    0.1786265970E+00    0.5374078912E-02    0.2992344638E+00
    0.1700000000E+05    0.6645115417E+00    0.1256455283E+00    0.1814569731E+00    0.5133134842E-02    0.3042790090E+00
    0.1900000000E+05    0.6663495529E+00    0.1213680700E+00    0.1839218675E+00    0.4926150409E-02    0.3086878335E+00
    0.2100000000E+05    0.6678088127E+00    0.1175900188E+00    0.1860975198E+00    0.4745405773E-02    0.3125922073E+00
    0.2300000000E+05    0.6689938807E+00    0.1142143043E+00    0.1880390573E+00    0.4585497912E-02    0.3160872649E+00
    0.2500000000E+05    0.6699744229E+00    0.1111693418E+00    0.1897875740E+00    0.4442504525E-02    0.3192440727E+00
    0.2700000000E+05    0.6707985511E+00    0.1084008387E+00    0.1913744809E+00    0.4313492317E-02    0.3221170584E+00
    0.2900000000E+05    0.6715005084E+00    0.1058666517E+00    0.1928242978E+00    0.4196212926E-02    0.3247487885E+00
    0.3100000000E+05    0.6721053001E+00    0.1035334248E+00    0.1941565115E+00    0.4088906893E-02    0.3271731509E+00
    0.3300000000E+05    0.6726315942E+00    0.1013743154E+00    0.1953868493E+00    0.3990172791E-02    0.3294175417E+00
    0.3500000000E+05    0.6730935983E+00    0.9936741038E-01    0.1965281767E+00    0.3898877202E-02    0.3315044073E+00
    0.3700000000E+05    0.6735023096E+00    0.9749459621E-01    0.1975911429E+00    0.3814091189E-02    0.3334523560E+00
    0.3900000000E+05    0.6738663685E+00    0.9574073452E-01    0.1985846558E+00    0.3735044442E-02    0.3352769758E+00
    0.4100000000E+05    0.6741926550E+00    0.9409304944E-01    0.1995162369E+00    0.3661091534E-02    0.3369914471E+00
    0.4300000000E+05    0.6744867128E+00    0.9254066443E-01    0.2003922903E+00    0.3591686640E-02    0.3386070079E+00
    0.4500000000E+05    0.6747530578E+00    0.9107424714E-01    0.2012183107E+00    0.3526364311E-02    0.3401333126E+00
    0.4700000000E+05    0.6749954041E+00    0.8968573315E-01    0.2019990451E+00    0.3464724648E-02    0.3415787124E+00
    0.4900000000E+05    0.6752168341E+00    0.8836810870E-01    0.2027386202E+00    0.3406421716E-02    0.3429504765E+00
    0.1000000000E+05    0.6514604424E+00    0.1472290575E+00    0.1690862913E+00    0.6218930098E-02    0.2823576042E+00
    0.3000000000E+05    0.6718137604E+00    0.1046767273E+00    0.1935040460E+00    0.4141408009E-02    0.3259850468E+00
    0.5000000000E+05    0.6753205282E+00    0.8773393225E-01    0.2030941185E+00    0.3378425883E-02    0.3436107650E+00
    0.7000000000E+05    0.6767461257E+00    0.7761822820E-01    0.2087208703E+00    0.2937539520E-02    0.3541483353E+00
    0.9000000000E+05    0.6775162064E+00    0.7061776962E-01    0.2125610250E+00    0.2638597302E-02    0.3614490274E+00
    0.1100000000E+06    0.6779977025E+00    0.6536994551E-01    0.2154067187E+00    0.2417796490E-02    0.3669292245E+00
    0.1300000000E+06    0.6783270271E+00    0.6123129444E-01    0.2176287347E+00    0.2245677139E-02    0.3712575204E+00
    0.1500000000E+06    0.6785663988E+00    0.5785039573E-01    0.2194279980E+00    0.2106409423E-02    0.3747988466E+00
    0.1700000000E+06    0.6787482130E+00    0.5501591157E-01    0.2209245142E+00    0.1990593678E-02    0.3777725644E+00
    0.1900000000E+06    0.6788909877E+00    0.5259166162E-01    0.2221951406E+00    0.1892235649E-02    0.3803199814E+00
    0.2100000000E+06    0.6790060716E+00    0.5048520072E-01    0.2232917655E+00    0.1807301778E-02    0.3825370093E+00
    0.2300000000E+06    0.6791008056E+00    0.4863115835E-01    0.2242508971E+00    0.1732961441E-02    0.3844914677E+00
    0.2500000000E+06    0.6791801477E+00    0.4698176369E-01    0.2250990923E+00    0.1667159919E-02    0.3862329209E+00
    0.2700000000E+06    0.6792475669E+00    0.4550114871E-01    0.2258562061E+00    0.1608363662E-02    0.3877985890E+00
    0.2900000000E+06    0.6793055631E+00    0.4416176367E-01    0.2265374282E+00    0.1555401124E-02    0.3892170664E+00
    0.3100000000E+06    0.6793559829E+00    0.4294203497E-01    0.2271546091E+00    0.1507359402E-02    0.3905107509E+00
    0.3300000000E+06    0.6794002204E+00    0.4182478503E-01    0.2277171513E+00    0.1463514898E-02    0.3916974816E+00
    0.3500000000E+06    0.6794393472E+00    0.4079613665E-01    0.2282326254E+00    0.1423285484E-02    0.3927916752E+00
    0.3700000000E+06    0.6794742011E+00    0.3984473505E-01    0.2287072063E+00    0.1386196691E-02    0.3938051321E+00
    0.3900000000E+06    0.6795054461E+00    0.3896118383E-01    0.2291459884E+00    0.1351857311E-02    0.3947476215E+00
    0.4100000000E+06    0.6795336154E+00    0.3813762843E-01    0.2295532177E+00    0.1319941439E-02    0.3956273126E+00
    0.4300000000E+06    0.6795591421E+00    0.3736744340E-01    0.2299324659E+00    0.1290175052E-02    0.3964510996E+00
    0.4500000000E+06    0.6795823818E+00    0.3664499427E-01    0.2302867622E+00    0.1262325819E-02    0.3972248476E+00
    0.4700000000E+06    0.6796036288E+00    0.3596545358E-01    0.2306186954E+00    0.1236195257E-02    0.3979535844E+00
    0.4900000000E+06    0.6796231292E+00    0.3532465729E-01    0.2309304927E+00    0.1211612626E-02    0.3986416483E+00
    0.1000000000E+06    0.6777818691E+00    0.6782467523E-01    0.2140793604E+00    0.2520725358E-02    0.3643648330E+00
    0.3000000000E+06    0.6793316241E+00    0.4353810420E-01    0.2268533871E+00    0.1530814179E-02    0.3898783012E+00
    0.5000000000E+06    0.6796322904E+00    0.3501764001E-01    0.2310794533E+00    0.1199854809E-02    0.3989716248E+00
    0.7000000000E+06    0.6797602997E+00    0.3024118843E-01    0.2333575941E+00    0.1018679044E-02    0.4041350564E+00
    0.9000000000E+06    0.6798312510E+00    0.2706486716E-01    0.2348248211E+00    0.9001279076E-03    0.4076065646E+00
    0.1100000000E+07    0.6798763675E+00    0.2475026839E-01    0.2358644395E+00    0.8147943240E-03    0.4101608733E+00
    0.1300000000E+07    0.6799076009E+00    0.2296379068E-01    0.2366467054E+00    0.7495822393E-03    0.4121496612E+00
    0.1500000000E+07    0.6799305136E+00    0.2152920986E-01    0.2372602579E+00    0.6976504114E-03    0.4137595301E+00
    0.1700000000E+07    0.6799480453E+00    0.2034330693E-01    0.2377563474E+00    0.6550282335E-03    0.4151002348E+00
    0.1900000000E+07    0.6799618961E+00    0.1934099319E-01    0.2381669124E+00    0.6192312584E-03    0.4162412581E+00
    0.2100000000E+07    0.6799731177E+00    0.1847887976E-01    0.2385130118E+00    0.5886144751E-03    0.4172290911E+00
    0.2300000000E+07    0.6799823958E+00    0.1772675973E-01    0.2388091568E+00    0.5620394725E-03    0.4180962152E+00
    0.2500000000E+07    0.6799901964E+00    0.1706285639E-01    0.2390657080E+00    0.5386899419E-03    0.4188661267E+00
    0.2700000000E+07    0.6799968474E+00    0.1647101349E-01    0.2392902814E+00    0.5179632012E-03    0.4195563138E+00
    0.2900000000E+07    0.6800025864E+00    0.1593895322E-01    0.2394886137E+00    0.4994032827E-03    0.4201801083E+00
    0.3100000000E+07    0.6800075896E+00    0.1545715274E-01    0.2396651170E+00    0.4826579816E-03    0.4207478814E+00
    0.3300000000E+07    0.6800119905E+00    0.1501809519E-01    0.2398232452E+00    0.4674503404E-03    0.4212678436E+00
    0.3500000000E+07    0.6800158921E+00    0.1461575573E-01    0.2399657452E+00    0.4535591634E-03    0.4217465940E+00
    0.3700000000E+07    0.6800193751E+00    0.1424524026E-01    0.2400948312E+00    0.4408053648E-03    0.4221895078E+00
    0.3900000000E+07    0.6800225038E+00    0.1390252569E-01    0.2402123095E+00    0.4290421916E-03    0.4226010151E+00
    0.4100000000E+07    0.6800253299E+00    0.1358426980E-01    0.2403196703E+00    0.4181480864E-03    0.4229848059E+00
    0.4300000000E+07    0.6800278955E+00    0.1328766951E-01    0.2404181541E+00    0.4080213853E-03    0.4233439825E+00
    0.4500000000E+07    0.6800302352E+00    0.1301035371E-01    0.2405088032E+00    0.3985763195E-03    0.4236811756E+00
    0.4700000000E+07    0.6800323776E+00    0.1275030104E-01    0.2405925003E+00    0.3897399565E-03    0.4239986331E+00
    0.4900000000E+07    0.6800343469E+00    0.1250577611E-01    0.2406699978E+00    0.3814498321E-03    0.4242982893E+00
    0.1000000000E+07    0.6798560667E+00    0.2582598958E-01    0.2353846855E+00    0.8543384352E-03    0.4089708504E+00
    0.3000000000E+07    0.6800051708E+00    0.1569228040E-01    0.2395793590E+00    0.4908226155E-03    0.4204704411E+00
    0.5000000000E+07    0.6800352732E+00    0.1238885987E-01    0.2407066273E+00    0.3774924866E-03    0.4244419743E+00
    0.7000000000E+07    0.6800482925E+00    0.1058971499E-01    0.2412312690E+00    0.3171499907E-03    0.4266907422E+00
    0.9000000000E+07    0.6800555851E+00    0.9413515855E-02    0.2415267111E+00    0.2783090134E-03    0.4282070949E+00
    0.1100000000E+08    0.6800602609E+00    0.8566366711E-02    0.2417098605E+00    0.2506648113E-03    0.4293282398E+00
    0.1300000000E+08    0.6800635207E+00    0.7918159017E-02    0.2418297247E+00    0.2297156199E-03    0.4302060240E+00
    0.1500000000E+08    0.6800659269E+00    0.7401153971E-02    0.2419105755E+00    0.2131419355E-03    0.4309206790E+00
    0.1700000000E+08    0.6800677784E+00    0.6976114336E-02    0.2419658260E+00    0.1996117011E-03    0.4315192950E+00
    0.1900000000E+08    0.6800692487E+00    0.6618517190E-02    0.2420034890E+00    0.1882984799E-03    0.4320316576E+00
    0.2100000000E+08    0.6800704457E+00    0.6312135263E-02    0.2420286397E+00    0.1786588974E-03    0.4324776956E+00
    0.2300000000E+08    0.6800714399E+00    0.6045741469E-02    0.2420446421E+00    0.1703191462E-03    0.4328713397E+00
    0.2500000000E+08    0.6800722795E+00    0.5811285297E-02    0.2420538087E+00    0.1630125530E-03    0.4332226757E+00
    0.2700000000E+08    0.6800729982E+00    0.5602821952E-02    0.2420577772E+00    0.1565431118E-03    0.4335392195E+00
