  Pressure (Pa) 22mC5-400 (mol/kg) 2mC6-400 (mol/kg) 3mC6-400 (mol/kg) 33mC5-400 (mol/kg) C7-400 (mol/kg)
    0.1000000000E+01    0.2112371344E-02    0.5529208216E-02    0.5246306330E-03    0.3215738146E-03    0.5108014214E-02
    0.3000000000E+01    0.6228380881E-02    0.1603394176E-01    0.1527311663E-02    0.9325986240E-03    0.1487246058E-01
    0.5000000000E+01    0.1020719201E-01    0.2585631081E-01    0.2472627767E-02    0.1504034963E-02    0.2408071003E-01
    0.7000000000E+01    0.1405742961E-01    0.3505651029E-01    0.3365671083E-02    0.2039374954E-02    0.3278206850E-01
    0.9000000000E+01    0.1778698547E-01    0.4368790021E-01    0.4210940087E-02    0.2541713997E-02    0.4102009776E-01
    0.1100000000E+02    0.2140309525E-01    0.5179795170E-01    0.5012424057E-02    0.3013805715E-02    0.4883343221E-01
    0.1300000000E+02    0.2491240597E-01    0.5942903945E-01    0.5773673478E-02    0.3458107968E-02    0.5625645989E-01
    0.1500000000E+02    0.2832103528E-01    0.6661910896E-01    0.6497859065E-02    0.3876821595E-02    0.6331989337E-01
    0.1700000000E+02    0.3163462367E-01    0.7340224120E-01    0.7187821483E-02    0.4271923200E-02    0.7005125075E-01
    0.1900000000E+02    0.3485838063E-01    0.7980913279E-01    0.7846113441E-02    0.4645193027E-02    0.7647526284E-01
    0.2100000000E+02    0.3799712548E-01    0.8586750595E-01    0.8475035489E-02    0.4998238756E-02    0.8261421950E-01
    0.2300000000E+02    0.4105532371E-01    0.9160246019E-01    0.9076666589E-02    0.5332515918E-02    0.8848826543E-01
    0.2500000000E+02    0.4403711917E-01    0.9703677504E-01    0.9652890336E-02    0.5649345466E-02    0.9411565385E-01
    0.2700000000E+02    0.4694636298E-01    0.1021911717E+00    0.1020541753E-01    0.5949928962E-02    0.9951296491E-01
    0.2900000000E+02    0.4978663919E-01    0.1070845401E+00    0.1073580567E-01    0.6235361743E-02    0.1046952945E+00
    0.3100000000E+02    0.5256128786E-01    0.1117341362E+00    0.1124547590E-01    0.6506644385E-02    0.1096764177E+00
    0.3300000000E+02    0.5527342578E-01    0.1161557546E+00    0.1173572767E-01    0.6764692711E-02    0.1144689317E+00
    0.3500000000E+02    0.5792596504E-01    0.1203638795E+00    0.1220775163E-01    0.7010346550E-02    0.1190843794E+00
    0.3700000000E+02    0.6052162984E-01    0.1243718175E+00    0.1266264087E-01    0.7244377432E-02    0.1235333590E+00
    0.3900000000E+02    0.6306297163E-01    0.1281918141E+00    0.1310140075E-01    0.7467495370E-02    0.1278256190E+00
    0.4100000000E+02    0.6555238276E-01    0.1318351573E+00    0.1352495765E-01    0.7680354848E-02    0.1319701427E+00
    0.4300000000E+02    0.6799210890E-01    0.1353122687E+00    0.1393416661E-01    0.7883560114E-02    0.1359752223E+00
    0.4500000000E+02    0.7038426032E-01    0.1386327847E+00    0.1432981815E-01    0.8077669893E-02    0.1398485249E+00
    0.4700000000E+02    0.7273082206E-01    0.1418056288E+00    0.1471264428E-01    0.8263201568E-02    0.1435971508E+00
    0.4900000000E+02    0.7503366328E-01    0.1448390755E+00    0.1508332388E-01    0.8440634914E-02    0.1472276855E+00
    0.1000000000E+02    0.1960879262E-01    0.4780533377E-01    0.4616923754E-02    0.2781380710E-02    0.4497761024E-01
    0.3000000000E+02    0.5118196717E-01    0.1094387901E+00    0.1099314661E-01    0.6372712714E-02    0.1072101935E+00
    0.5000000000E+02    0.7616924321E-01    0.1463059477E+00    0.1526430753E-01    0.8526455187E-02    0.1490005972E+00
    0.7000000000E+02    0.9696399250E-01    0.1699262423E+00    0.1837782427E-01    0.9910540787E-02    0.1795353302E+00
    0.9000000000E+02    0.1148844035E+00    0.1857169053E+00    0.2077977116E-01    0.1083909404E-01    0.2031433752E+00
    0.1100000000E+03    0.1307218929E+00    0.1965474911E+00    0.2270923654E-01    0.1147855976E-01    0.2221468704E+00
    0.1300000000E+03    0.1449835594E+00    0.2040716806E+00    0.2430665692E-01    0.1192490721E-01    0.2379108623E+00
    0.1500000000E+03    0.1580112985E+00    0.2093045405E+00    0.2566035935E-01    0.1223708672E-01    0.2512945390E+00
    0.1700000000E+03    0.1700452637E+00    0.2129005164E+00    0.2682892490E-01    0.1245314014E-01    0.2628681578E+00
    0.1900000000E+03    0.1812599291E+00    0.2152984889E+00    0.2785289017E-01    0.1259860711E-01    0.2730266049E+00
    0.2100000000E+03    0.1917856855E+00    0.2168024200E+00    0.2876129598E-01    0.1269119916E-01    0.2820529795E+00
    0.2300000000E+03    0.2017223523E+00    0.2176285604E+00    0.2957555778E-01    0.1274353611E-01    0.2901561896E+00
    0.2500000000E+03    0.2111479479E+00    0.2179342912E+00    0.3031185880E-01    0.1276481821E-01    0.2974942095E+00
    0.2700000000E+03    0.2201245655E+00    0.2178363923E+00    0.3098268738E-01    0.1276188561E-01    0.3041890262E+00
    0.2900000000E+03    0.2287024186E+00    0.2174229770E+00    0.3159785698E-01    0.1273991074E-01    0.3103365604E+00
    0.3100000000E+03    0.2369226950E+00    0.2167615013E+00    0.3216520243E-01    0.1270286310E-01    0.3160134423E+00
    0.3300000000E+03    0.2448196108E+00    0.2159042647E+00    0.3269106693E-01    0.1265382871E-01    0.3212817513E+00
    0.3500000000E+03    0.2524219191E+00    0.2148922692E+00    0.3318065015E-01    0.1259523419E-01    0.3261924073E+00
    0.3700000000E+03    0.2597540351E+00    0.2137579750E+00    0.3363826194E-01    0.1252900702E-01    0.3307876414E+00
    0.3900000000E+03    0.2668368887E+00    0.2125273014E+00    0.3406751030E-01    0.1245669186E-01    0.3351028291E+00
    0.4100000000E+03    0.2736885792E+00    0.2112211024E+00    0.3447144304E-01    0.1237953648E-01    0.3391678705E+00
    0.4300000000E+03    0.2803248842E+00    0.2098562677E+00    0.3485265584E-01    0.1229855584E-01    0.3430082449E+00
    0.4500000000E+03    0.2867596599E+00    0.2084465563E+00    0.3521337580E-01    0.1221458071E-01    0.3466458263E+00
    0.4700000000E+03    0.2930051590E+00    0.2070032324E+00    0.3555552685E-01    0.1212829480E-01    0.3500995214E+00
    0.4900000000E+03    0.2990722855E+00    0.2055355579E+00    0.3588078144E-01    0.1204026349E-01    0.3533857745E+00
    0.1000000000E+03    0.1230269262E+00    0.1916292133E+00    0.2179318965E-01    0.1118782637E-01    0.2131198758E+00
    0.3000000000E+03    0.2328549719E+00    0.2171196744E+00    0.3188708094E-01    0.1272306043E-01    0.3132296570E+00
    0.5000000000E+03    0.3020420495E+00    0.2047950322E+00    0.3603753676E-01    0.1199574325E-01    0.3549706768E+00
    0.7000000000E+03    0.3539964565E+00    0.1899825845E+00    0.3856015764E-01    0.1109318836E-01    0.3805820414E+00
    0.9000000000E+03    0.3951430295E+00    0.1765129494E+00    0.4033731391E-01    0.1025585349E-01    0.3987580401E+00
    0.1100000000E+04    0.4285642275E+00    0.1648505238E+00    0.4169141278E-01    0.9519868595E-02    0.4126918125E+00
    0.1300000000E+04    0.4561453380E+00    0.1548487925E+00    0.4277479784E-01    0.8881396762E-02    0.4238986922E+00
    0.1500000000E+04    0.4791812181E+00    0.1462562276E+00    0.4367106505E-01    0.8328110578E-02    0.4332133106E+00
    0.1700000000E+04    0.4986148495E+00    0.1388323591E+00    0.4443084022E-01    0.7847026228E-02    0.4411427993E+00
    0.1900000000E+04    0.5151555627E+00    0.1323729583E+00    0.4508701029E-01    0.7426562344E-02    0.4480175775E+00
    0.2100000000E+04    0.5293478238E+00    0.1267111166E+00    0.4566209153E-01    0.7056934889E-02    0.4540644818E+00
    0.2300000000E+04    0.5416155921E+00    0.1217121680E+00    0.4617214316E-01    0.6730048813E-02    0.4594456990E+00
    0.2500000000E+04    0.5522927662E+00    0.1172677275E+00    0.4662900014E-01    0.6439256066E-02    0.4642810280E+00
    0.2700000000E+04    0.5616448903E+00    0.1132903565E+00    0.4704162145E-01    0.6179103221E-02    0.4686613489E+00
    0.2900000000E+04    0.5698850059E+00    0.1097091826E+00    0.4741694250E-01    0.5945107574E-02    0.4726571551E+00
    0.3100000000E+04    0.5771854213E+00    0.1064664219E+00    0.4776043506E-01    0.5733570407E-02    0.4763241678E+00
    0.3300000000E+04    0.5836865617E+00    0.1035146592E+00    0.4807648707E-01    0.5541425497E-02    0.4797071505E+00
    0.3500000000E+04    0.5895036911E+00    0.1008147295E+00    0.4836866749E-01    0.5366117789E-02    0.4828425734E+00
    0.3700000000E+04    0.5947320648E+00    0.9833406859E-01    0.4863991537E-01    0.5205506703E-02    0.4857605186E+00
    0.3900000000E+04    0.5994509115E+00    0.9604542514E-01    0.4889267774E-01    0.5057789169E-02    0.4884860707E+00
    0.4100000000E+04    0.6037265335E+00    0.9392585051E-01    0.4912901198E-01    0.4921438256E-02    0.4910403516E+00
    0.4300000000E+04    0.6076147387E+00    0.9195590258E-01    0.4935066309E-01    0.4795154097E-02    0.4934413015E+00
    0.4500000000E+04    0.6111627610E+00    0.9011901449E-01    0.4955912284E-01    0.4677824501E-02    0.4957042786E+00
    0.4700000000E+04    0.6144107880E+00    0.8840099141E-01    0.4975567567E-01    0.4568493183E-02    0.4978425243E+00
    0.4900000000E+04    0.6173931818E+00    0.8678960673E-01    0.4994143478E-01    0.4466334038E-02    0.4998675294E+00
    0.1000000000E+04    0.4126834036E+00    0.1704599086E+00    0.4105544357E-01    0.9875062965E-02    0.4061379436E+00
    0.3000000000E+04    0.5736432399E+00    0.1080486797E+00    0.4759237124E-01    0.5836736588E-02    0.4745287418E+00
    0.5000000000E+04    0.6187941578E+00    0.8602053970E-01    0.5003057490E-01    0.4417716233E-02    0.5008407517E+00
    0.7000000000E+04    0.6382134505E+00    0.7429135081E-01    0.5142807403E-01    0.3689698261E-02    0.5162388616E+00
    0.9000000000E+04    0.6486597207E+00    0.6669900008E-01    0.5236654324E-01    0.3235040554E-02    0.5267552196E+00
    0.1100000000E+05    0.6550819701E+00    0.6123601059E-01    0.5305321736E-01    0.2917579690E-02    0.5345632363E+00
    0.1300000000E+05    0.6593924594E+00    0.5704165956E-01    0.5358375194E-01    0.2679782583E-02    0.5406752700E+00
    0.1500000000E+05    0.6624697997E+00    0.5367817641E-01    0.5400943115E-01    0.2492942433E-02    0.5456383580E+00
    0.1700000000E+05    0.6647693504E+00    0.5089580697E-01    0.5436061789E-01    0.2341002304E-02    0.5497786558E+00
    0.1900000000E+05    0.6665489523E+00    0.4853988807E-01    0.5465661292E-01    0.2214205144E-02    0.5533048227E+00
    0.2100000000E+05    0.6679648385E+00    0.4650859445E-01    0.5491036121E-01    0.2106238987E-02    0.5563576385E+00
    0.2300000000E+05    0.6691168783E+00    0.4473163523E-01    0.5513091741E-01    0.2012816044E-02    0.5590361221E+00
    0.2500000000E+05    0.6700717374E+00    0.4315862393E-01    0.5532483300E-01    0.1930907322E-02    0.5614122943E+00
    0.2700000000E+05    0.6708755372E+00    0.4175231650E-01    0.5549698224E-01    0.1858303451E-02    0.5635400046E+00
    0.2900000000E+05    0.6715611588E+00    0.4048447344E-01    0.5565107733E-01    0.1793349377E-02    0.5654604585E+00
    0.3100000000E+05    0.6721526507E+00    0.3933321829E-01    0.5579000220E-01    0.1734777053E-02    0.5672058129E+00
    0.3300000000E+05    0.6726679928E+00    0.3828129030E-01    0.5591603605E-01    0.1681596034E-02    0.5688015927E+00
    0.3500000000E+05    0.6731208877E+00    0.3731485309E-01    0.5603100722E-01    0.1633019702E-02    0.5702683595E+00
    0.3700000000E+05    0.6735219557E+00    0.3642266078E-01    0.5613640176E-01    0.1588414155E-02    0.5716228935E+00
    0.3900000000E+05    0.6738795510E+00    0.3559546101E-01    0.5623344161E-01    0.1547261959E-02    0.5728790465E+00
    0.4100000000E+05    0.6742003333E+00    0.3482555878E-01    0.5632314201E-01    0.1509135916E-02    0.5740483713E+00
    0.4300000000E+05    0.6744896748E+00    0.3410649228E-01    0.5640635437E-01    0.1473679721E-02    0.5751405921E+00
    0.4500000000E+05    0.6747519559E+00    0.3343278784E-01    0.5648379870E-01    0.1440593466E-02    0.5761639625E+00
    0.4700000000E+05    0.6749907829E+00    0.3279977237E-01    0.5655608860E-01    0.1409622622E-02    0.5771255406E+00
    0.4900000000E+05    0.6752091514E+00    0.3220342767E-01    0.5662375060E-01    0.1380549544E-02    0.5780314037E+00
    0.1000000000E+05    0.6522180062E+00    0.6376958115E-01    0.5273389547E-01    0.3063745001E-02    0.5309190094E+00
    0.3000000000E+05    0.6718674296E+00    0.3989544327E-01    0.5572228149E-01    0.1763332906E-02    0.5663532948E+00
    0.5000000000E+05    0.6753114639E+00    0.3191790161E-01    0.5665599068E-01    0.1366665079E-02    0.5784651156E+00
    0.7000000000E+05    0.6767217920E+00    0.2749052300E-01    0.5714140149E-01    0.1154311411E-02    0.5851881258E+00
    0.9000000000E+05    0.6774869983E+00    0.2455985616E-01    0.5744495994E-01    0.1016795194E-02    0.5896350398E+00
    0.1100000000E+06    0.6779669455E+00    0.2243020989E-01    0.5765452832E-01    0.9184158323E-03    0.5928649237E+00
    0.1300000000E+06    0.6782960042E+00    0.2078967621E-01    0.5780848143E-01    0.8435430157E-03    0.5953525623E+00
    0.1500000000E+06    0.6785356544E+00    0.1947423260E-01    0.5792651916E-01    0.7840960597E-03    0.5973473867E+00
    0.1700000000E+06    0.6787179845E+00    0.1838809818E-01    0.5801989248E-01    0.7354180341E-03    0.5989948900E+00
    0.1900000000E+06    0.6788613731E+00    0.1747100845E-01    0.5809553556E-01    0.6946100347E-03    0.6003865199E+00
    0.2100000000E+06    0.6789771018E+00    0.1668285926E-01    0.5815797416E-01    0.6597601895E-03    0.6015830764E+00
    0.2300000000E+06    0.6790724786E+00    0.1599576906E-01    0.5821029743E-01    0.6295495483E-03    0.6026267958E+00
    0.2500000000E+06    0.6791524451E+00    0.1538966066E-01    0.5825469128E-01    0.6030347620E-03    0.6035480720E+00
    0.2700000000E+06    0.6792204627E+00    0.1484965322E-01    0.5829274893E-01    0.5795208399E-03    0.6043694197E+00
    0.2900000000E+06    0.6792790280E+00    0.1436444779E-01    0.5832566077E-01    0.5584829312E-03    0.6051079264E+00
    0.3100000000E+06    0.6793299874E+00    0.1392528733E-01    0.5835433515E-01    0.5395162584E-03    0.6057768303E+00
    0.3300000000E+06    0.6793747352E+00    0.1352526403E-01    0.5837947786E-01    0.5223029594E-03    0.6063865709E+00
    0.3500000000E+06    0.6794143447E+00    0.1315884459E-01    0.5840164602E-01    0.5065894764E-03    0.6069455082E+00
    0.3700000000E+06    0.6794496551E+00    0.1282153664E-01    0.5842128553E-01    0.4921707442E-03    0.6074604285E+00
    0.3900000000E+06    0.6794813321E+00    0.1250964920E-01    0.5843875769E-01    0.4788788842E-03    0.6079369062E+00
    0.4100000000E+06    0.6795099107E+00    0.1222011737E-01    0.5845435841E-01    0.4665749625E-03    0.6083795701E+00
    0.4300000000E+06    0.6795358257E+00    0.1195037174E-01    0.5846833248E-01    0.4551428757E-03    0.6087923002E+00
    0.4500000000E+06    0.6795594341E+00    0.1169823976E-01    0.5848088419E-01    0.4444847451E-03    0.6091783769E+00
    0.4700000000E+06    0.6795810317E+00    0.1146187004E-01    0.5849218537E-01    0.4345173972E-03    0.6095405960E+00
    0.4900000000E+06    0.6796008659E+00    0.1123967366E-01    0.5850238165E-01    0.4251696412E-03    0.6098813567E+00
    0.1000000000E+06    0.6777516479E+00    0.2341937915E-01    0.5755846111E-01    0.9639462797E-03    0.5913648481E+00
    0.3000000000E+06    0.6793053625E+00    0.1413958062E-01    0.5834047952E-01    0.5487622884E-03    0.6054503704E+00
    0.5000000000E+06    0.6796101880E+00    0.1113345415E-01    0.5850710500E-01    0.4207086054E-03    0.6100443491E+00
    0.7000000000E+06    0.6797407793E+00    0.9500662046E-02    0.5856589945E-01    0.3527812309E-03    0.6125589774E+00
    0.9000000000E+06    0.6798135142E+00    0.8435100869E-02    0.5858751167E-01    0.3091556119E-03    0.6142119845E+00
    0.1100000000E+07    0.6798599569E+00    0.7668641855E-02    0.5859265688E-01    0.2781549942E-03    0.6154090144E+00
    0.1300000000E+07    0.6798922274E+00    0.7082783453E-02    0.5858949723E-01    0.2546907360E-03    0.6163297229E+00
    0.1500000000E+07    0.6799159809E+00    0.6615908261E-02    0.5858183063E-01    0.2361455008E-03    0.6170677415E+00
    0.1700000000E+07    0.6799342128E+00    0.6232361333E-02    0.5857162388E-01    0.2210181992E-03    0.6176773782E+00
    0.1900000000E+07    0.6799486590E+00    0.5909877713E-02    0.5855997353E-01    0.2083785307E-03    0.6181926261E+00
    0.2100000000E+07    0.6799603954E+00    0.5633735106E-02    0.5854752404E-01    0.1976153861E-03    0.6186360148E+00
    0.2300000000E+07    0.6799701246E+00    0.5393754228E-02    0.5853466888E-01    0.1883086877E-03    0.6190231571E+00
    0.2500000000E+07    0.6799783249E+00    0.5182640088E-02    0.5852165480E-01    0.1801589574E-03    0.6193652671E+00
    0.2700000000E+07    0.6799853337E+00    0.4995008568E-02    0.5850863926E-01    0.1729462104E-03    0.6196706392E+00
    0.2900000000E+07    0.6799913954E+00    0.4826786868E-02    0.5849572358E-01    0.1665047616E-03    0.6199455611E+00
    0.3100000000E+07    0.6799966916E+00    0.4674829073E-02    0.5848297288E-01    0.1607071443E-03    0.6201948998E+00
    0.3300000000E+07    0.6800013604E+00    0.4536661162E-02    0.5847042845E-01    0.1554534882E-03    0.6204224903E+00
    0.3500000000E+07    0.6800055081E+00    0.4410306889E-02    0.5845811560E-01    0.1506642930E-03    0.6206314021E+00
    0.3700000000E+07    0.6800092184E+00    0.4294165854E-02    0.5844604889E-01    0.1462753872E-03    0.6208241259E+00
    0.3900000000E+07    0.6800125578E+00    0.4186926225E-02    0.5843423549E-01    0.1422343307E-03    0.6210027070E+00
    0.4100000000E+07    0.6800155800E+00    0.4087501034E-02    0.5842267754E-01    0.1384977977E-03    0.6211688433E+00
    0.4300000000E+07    0.6800183288E+00    0.3994980873E-02    0.5841137374E-01    0.1350296387E-03    0.6213239580E+00
    0.4500000000E+07    0.6800208400E+00    0.3908598220E-02    0.5840032044E-01    0.1317994236E-03    0.6214692542E+00
    0.4700000000E+07    0.6800231438E+00    0.3827700155E-02    0.5838951243E-01    0.1287813301E-03    0.6216057572E+00
    0.4900000000E+07    0.6800252650E+00    0.3751727236E-02    0.5837894350E-01    0.1259532848E-03    0.6217343472E+00
    0.1000000000E+07    0.6798390371E+00    0.8023813448E-02    0.5859148049E-01    0.2924791223E-03    0.6148533608E+00
    0.3000000000E+07    0.6799941297E+00    0.4748943006E-02    0.5848932458E-01    0.1635322651E-03    0.6200731681E+00
    0.5000000000E+07    0.6800262640E+00    0.3715434291E-02    0.5837374656E-01    0.1246044892E-03    0.6217959164E+00
    0.7000000000E+07    0.6800404120E+00    0.3159603837E-02    0.5828061250E-01    0.1041340320E-03    0.6227518017E+00
    0.9000000000E+07    0.6800484530E+00    0.2798941627E-02    0.5820372563E-01    0.9105494194E-04    0.6233879053E+00
    0.1100000000E+08    0.6800536739E+00    0.2540521193E-02    0.5813839702E-01    0.8179377947E-04    0.6238536363E+00
    0.1300000000E+08    0.6800573547E+00    0.2343555424E-02    0.5808161322E-01    0.7480248121E-04    0.6242154459E+00
    0.1500000000E+08    0.6800600994E+00    0.2186939474E-02    0.5803138304E-01    0.6928819739E-04    0.6245081204E+00
    0.1700000000E+08    0.6800622312E+00    0.2058506249E-02    0.5798633421E-01    0.6479770653E-04    0.6247519251E+00
    0.1900000000E+08    0.6800639388E+00    0.1950680337E-02    0.5794548402E-01    0.6105086477E-04    0.6249595994E+00
    0.2100000000E+08    0.6800653403E+00    0.1858464782E-02    0.5790810557E-01    0.5786404854E-04    0.6251396213E+00
    0.2300000000E+08    0.6800665133E+00    0.1778411641E-02    0.5787364629E-01    0.5511126769E-04    0.6252978900E+00
    0.2500000000E+08    0.6800675108E+00    0.1708054268E-02    0.5784167637E-01    0.5270284527E-04    0.6254386586E+00
    0.2700000000E+08    0.6800683707E+00    0.1645574914E-02    0.5781185491E-01    0.5057299968E-04    0.6255650850E+00
