  Pressure (Pa) 22mC5-400 (mol/kg) 2mC6-400 (mol/kg) 3mC6-400 (mol/kg) 33mC5-400 (mol/kg) C7-400 (mol/kg)
    0.1000000000E+01    0.2640778422E-02    0.4743865389E-02    0.2101215592E-02    0.1931274030E-03    0.3409694936E-02
    0.3000000000E+01    0.7788098702E-02    0.1378138899E-01    0.6132006914E-02    0.5610901253E-03    0.9951758727E-02
    0.5000000000E+01    0.1276574765E-01    0.2226087146E-01    0.9949995005E-02    0.9063789648E-03    0.1614995253E-01
    0.7000000000E+01    0.1758407594E-01    0.3022820475E-01    0.1357257663E-01    0.1230857939E-02    0.2203234983E-01
    0.9000000000E+01    0.2225258211E-01    0.3772445345E-01    0.1701527803E-01    0.1536194908E-02    0.2762400777E-01
    0.1100000000E+02    0.2677999906E-01    0.4478647230E-01    0.2029200083E-01    0.1823886684E-02    0.3294736349E-01
    0.1300000000E+02    0.3117437017E-01    0.5144743108E-01    0.2341523003E-01    0.2095280363E-02    0.3802256941E-01
    0.1500000000E+02    0.3544311649E-01    0.5773726275E-01    0.2639621082E-01    0.2351591547E-02    0.4286777828E-01
    0.1700000000E+02    0.3959309624E-01    0.6368304769E-01    0.2924509952E-01    0.2593919954E-02    0.4749938644E-01
    0.1900000000E+02    0.4363065760E-01    0.6930934430E-01    0.3197109290E-01    0.2823262863E-02    0.5193224240E-01
    0.2100000000E+02    0.4756168562E-01    0.7463847477E-01    0.3458253951E-01    0.3040526718E-02    0.5617982627E-01
    0.2300000000E+02    0.5139164407E-01    0.7969077273E-01    0.3708703578E-01    0.3246537200E-02    0.6025440476E-01
    0.2500000000E+02    0.5512561280E-01    0.8448479874E-01    0.3949150936E-01    0.3442047976E-02    0.6416716554E-01
    0.2700000000E+02    0.5876832121E-01    0.8903752839E-01    0.4180229157E-01    0.3627748347E-02    0.6792833407E-01
    0.2900000000E+02    0.6232417824E-01    0.9336451687E-01    0.4402518061E-01    0.3804269931E-02    0.7154727550E-01
    0.3100000000E+02    0.6579729934E-01    0.9748004358E-01    0.4616549684E-01    0.3972192539E-02    0.7503258396E-01
    0.3300000000E+02    0.6919153071E-01    0.1013972394E+00    0.4822813141E-01    0.4132049343E-02    0.7839216078E-01
    0.3500000000E+02    0.7251047128E-01    0.1051281989E+00    0.5021758889E-01    0.4284331442E-02    0.8163328347E-01
    0.3700000000E+02    0.7575749243E-01    0.1086840801E+00    0.5213802507E-01    0.4429491899E-02    0.8476266652E-01
    0.3900000000E+02    0.7893575590E-01    0.1120751924E+00    0.5399328028E-01    0.4567949326E-02    0.8778651523E-01
    0.4100000000E+02    0.8204823008E-01    0.1153110750E+00    0.5578690900E-01    0.4700091069E-02    0.9071057348E-01
    0.4300000000E+02    0.8509770472E-01    0.1184005672E+00    0.5752220617E-01    0.4826276050E-02    0.9354016615E-01
    0.4500000000E+02    0.8808680433E-01    0.1213518705E+00    0.5920223065E-01    0.4946837304E-02    0.9628023697E-01
    0.4700000000E+02    0.9101800044E-01    0.1241726047E+00    0.6082982615E-01    0.5062084247E-02    0.9893538231E-01
    0.4900000000E+02    0.9389362269E-01    0.1268698581E+00    0.6240764000E-01    0.5172304717E-02    0.1015098814E+00
    0.1000000000E+02    0.2453340869E-01    0.4130758772E-01    0.1867357545E-01    0.1682158970E-02    0.3031791390E-01
    0.3000000000E+02    0.6407083435E-01    0.9544786673E-01    0.4510534510E-01    0.3889271747E-02    0.7330612463E-01
    0.5000000000E+02    0.9531128536E-01    0.1281742603E+00    0.6317865656E-01    0.5225614527E-02    0.1027681460E+00
    0.7000000000E+02    0.1212200310E+00    0.1491632903E+00    0.7650392613E-01    0.6084115976E-02    0.1245377986E+00
    0.9000000000E+02    0.1434477296E+00    0.1631181860E+00    0.8684986971E-01    0.6655799119E-02    0.1414752833E+00
    0.1100000000E+03    0.1629921294E+00    0.1725830653E+00    0.9518994795E-01    0.7044044408E-02    0.1551559754E+00
    0.1300000000E+03    0.1804954601E+00    0.1790447262E+00    0.1021067611E+00    0.7309312229E-02    0.1665233974E+00
    0.1500000000E+03    0.1963921784E+00    0.1834245537E+00    0.1079717983E+00    0.7489106775E-02    0.1761796030E+00
    0.1700000000E+03    0.2109882979E+00    0.1863204595E+00    0.1130340004E+00    0.7607794768E-02    0.1845283168E+00
    0.1900000000E+03    0.2245067148E+00    0.1881351165E+00    0.1174669968E+00    0.7681809955E-02    0.1918513168E+00
    0.2100000000E+03    0.2371144570E+00    0.1891481080E+00    0.1213959435E+00    0.7722581752E-02    0.1983518499E+00
    0.2300000000E+03    0.2489397746E+00    0.1895585542E+00    0.1249135780E+00    0.7738265925E-02    0.2041806157E+00
    0.2500000000E+03    0.2600832537E+00    0.1895113460E+00    0.1280902452E+00    0.7734810025E-02    0.2094519990E+00
    0.2700000000E+03    0.2706252681E+00    0.1891138592E+00    0.1309803901E+00    0.7716632445E-02    0.2142545865E+00
    0.2900000000E+03    0.2806311130E+00    0.1884469243E+00    0.1336268957E+00    0.7687068330E-02    0.2186581964E+00
    0.3100000000E+03    0.2901546243E+00    0.1875722164E+00    0.1360640609E+00    0.7648670088E-02    0.2227187048E+00
    0.3300000000E+03    0.2992407846E+00    0.1865373458E+00    0.1383196929E+00    0.7603414568E-02    0.2264814402E+00
    0.3500000000E+03    0.3079276340E+00    0.1853794371E+00    0.1404166099E+00    0.7552848809E-02    0.2299836204E+00
    0.3700000000E+03    0.3162476950E+00    0.1841276908E+00    0.1423737394E+00    0.7498194429E-02    0.2332561358E+00
    0.3900000000E+03    0.3242290503E+00    0.1828052454E+00    0.1442069352E+00    0.7440423600E-02    0.2363248750E+00
    0.4100000000E+03    0.3318961697E+00    0.1814305520E+00    0.1459295937E+00    0.7380315159E-02    0.2392117267E+00
    0.4300000000E+03    0.3392705522E+00    0.1800184006E+00    0.1475531260E+00    0.7318496595E-02    0.2419353460E+00
    0.4500000000E+03    0.3463712306E+00    0.1785806975E+00    0.1490873230E+00    0.7255475841E-02    0.2445117485E+00
    0.4700000000E+03    0.3532151708E+00    0.1771270590E+00    0.1505406422E+00    0.7191665617E-02    0.2469547758E+00
    0.4900000000E+03    0.3598175934E+00    0.1756652696E+00    0.1519204340E+00    0.7127402256E-02    0.2492764645E+00
    0.1000000000E+03    0.1535090597E+00    0.1683016685E+00    0.9122780827E-01    0.6868371037E-02    0.1486533744E+00
    0.3000000000E+03    0.2854501666E+00    0.1880322846E+00    0.1348697757E+00    0.7668838382E-02    0.2207282904E+00
    0.5000000000E+03    0.3630325793E+00    0.1749333399E+00    0.1525847968E+00    0.7095188548E-02    0.2503951485E+00
    0.7000000000E+03    0.4173987606E+00    0.1608773843E+00    0.1632173288E+00    0.6471801462E-02    0.2683755711E+00
    0.9000000000E+03    0.4577892605E+00    0.1488076623E+00    0.1706371901E+00    0.5929723400E-02    0.2810197562E+00
    0.1100000000E+04    0.4887948005E+00    0.1387802860E+00    0.1762496990E+00    0.5475374620E-02    0.2906456066E+00
    0.1300000000E+04    0.5131663878E+00    0.1304436234E+00    0.1807142631E+00    0.5095579253E-02    0.2983454612E+00
    0.1500000000E+04    0.5326957460E+00    0.1234453988E+00    0.1843903601E+00    0.4775907649E-02    0.3047170667E+00
    0.1700000000E+04    0.5486045181E+00    0.1175002179E+00    0.1874944134E+00    0.4504197390E-02    0.3101215066E+00
    0.1900000000E+04    0.5617516580E+00    0.1123886365E+00    0.1901662788E+00    0.4270849384E-02    0.3147928255E+00
    0.2100000000E+04    0.5727556313E+00    0.1079438781E+00    0.1925012631E+00    0.4068425651E-02    0.3188909572E+00
    0.2300000000E+04    0.5820707141E+00    0.1040388605E+00    0.1945670576E+00    0.3891172414E-02    0.3225297836E+00
    0.2500000000E+04    0.5900364618E+00    0.1005759406E+00    0.1964133602E+00    0.3734615501E-02    0.3257931128E+00
    0.2700000000E+04    0.5969106826E+00    0.9747929761E-01    0.1980776636E+00    0.3595247209E-02    0.3287443111E+00
    0.2900000000E+04    0.6028919132E+00    0.9468938804E-01    0.1995889019E+00    0.3470291650E-02    0.3314323818E+00
    0.3100000000E+04    0.6081350371E+00    0.9215892116E-01    0.2009698383E+00    0.3357530660E-02    0.3338959534E+00
    0.3300000000E+04    0.6127623235E+00    0.8984992584E-01    0.2022386793E+00    0.3255174657E-02    0.3361659800E+00
    0.3500000000E+04    0.6168713532E+00    0.8773159612E-01    0.2034101977E+00    0.3161766392E-02    0.3382676231E+00
    0.3700000000E+04    0.6205407894E+00    0.8577869375E-01    0.2044965319E+00    0.3076108706E-02    0.3402215926E+00
    0.3900000000E+04    0.6238346366E+00    0.8397035177E-01    0.2055077672E+00    0.2997209865E-02    0.3420451242E+00
    0.4100000000E+04    0.6268054212E+00    0.8228916921E-01    0.2064523667E+00    0.2924241825E-02    0.3437527042E+00
    0.4300000000E+04    0.6294965946E+00    0.8072051923E-01    0.2073374954E+00    0.2856508092E-02    0.3453566160E+00
    0.4500000000E+04    0.6319443682E+00    0.7925201505E-01    0.2081692682E+00    0.2793418749E-02    0.3468673584E+00
    0.4700000000E+04    0.6341791288E+00    0.7787309396E-01    0.2089529419E+00    0.2734470902E-02    0.3482939697E+00
    0.4900000000E+04    0.6362265395E+00    0.7657469028E-01    0.2096930655E+00    0.2679233219E-02    0.3496442826E+00
    0.1000000000E+04    0.4742641408E+00    0.1435588193E+00    0.1736181814E+00    0.5692288908E-02    0.2861252828E+00
    0.3000000000E+04    0.6055974376E+00    0.9339428746E-01    0.2002944282E+00    0.3412507464E-02    0.3326901407E+00
    0.5000000000E+04    0.6371869336E+00    0.7595319385E-01    0.2100480539E+00    0.2652887387E-02    0.3502929955E+00
    0.7000000000E+04    0.6504443151E+00    0.6631290373E-01    0.2155997707E+00    0.2252633957E-02    0.3605377258E+00
    0.9000000000E+04    0.6575826835E+00    0.5989580034E-01    0.2193157365E+00    0.1995623162E-02    0.3675187648E+00
    0.1100000000E+05    0.6620029359E+00    0.5519138079E-01    0.2220303218E+00    0.1812230735E-02    0.3726976625E+00
    0.1300000000E+05    0.6649950478E+00    0.5153339676E-01    0.2241261988E+00    0.1672588250E-02    0.3767513612E+00
    0.1500000000E+05    0.6671490426E+00    0.4857389851E-01    0.2258076220E+00    0.1561489868E-02    0.3800442560E+00
    0.1700000000E+05    0.6687710854E+00    0.4610997452E-01    0.2271951270E+00    0.1470263566E-02    0.3827930131E+00
    0.1900000000E+05    0.6700351859E+00    0.4401373121E-01    0.2283651445E+00    0.1393547717E-02    0.3851359648E+00
    0.2100000000E+05    0.6710472904E+00    0.4219976569E-01    0.2293688375E+00    0.1327821239E-02    0.3871662995E+00
    0.2300000000E+05    0.6718754782E+00    0.4060844520E-01    0.2302419379E+00    0.1270661005E-02    0.3889494859E+00
    0.2500000000E+05    0.6725654350E+00    0.3919662308E-01    0.2310102682E+00    0.1220336029E-02    0.3905330996E+00
    0.2700000000E+05    0.6731489314E+00    0.3793216143E-01    0.2316930212E+00    0.1175571471E-02    0.3919526882E+00
    0.2900000000E+05    0.6736487307E+00    0.3679053682E-01    0.2323048020E+00    0.1135404299E-02    0.3932354387E+00
    0.3100000000E+05    0.6740815605E+00    0.3575265004E-01    0.2328569502E+00    0.1099091254E-02    0.3944025602E+00
    0.3300000000E+05    0.6744599833E+00    0.3480336358E-01    0.2333584228E+00    0.1066048057E-02    0.3954708827E+00
    0.3500000000E+05    0.6747936142E+00    0.3393049643E-01    0.2338164021E+00    0.1035808036E-02    0.3964539612E+00
    0.3700000000E+05    0.6750899349E+00    0.3312411555E-01    0.2342367240E+00    0.1007993230E-02    0.3973628568E+00
    0.3900000000E+05    0.6753548532E+00    0.3237602543E-01    0.2346241859E+00    0.9822937406E-03    0.3982066998E+00
    0.4100000000E+05    0.6755930952E+00    0.3167939321E-01    0.2349827731E+00    0.9584526905E-03    0.3989931052E+00
    0.4300000000E+05    0.6758084863E+00    0.3102846860E-01    0.2353158273E+00    0.9362550595E-03    0.3997284833E+00
    0.4500000000E+05    0.6760041555E+00    0.3041837151E-01    0.2356261745E+00    0.9155192760E-03    0.4004182749E+00
    0.4700000000E+05    0.6761826864E+00    0.2984492856E-01    0.2359162228E+00    0.8960907893E-03    0.4010671339E+00
    0.4900000000E+05    0.6763462313E+00    0.2930454596E-01    0.2361880385E+00    0.8778370931E-03    0.4016790678E+00
    0.1000000000E+05    0.6600272337E+00    0.5738192518E-01    0.2207683188E+00    0.1897091983E-02    0.3702807505E+00
    0.3000000000E+05    0.6738726507E+00    0.3625965161E-01    0.2325877227E+00    0.1116805695E-02    0.3938323135E+00
    0.5000000000E+05    0.6764229603E+00    0.2904576261E-01    0.2363176765E+00    0.8691144345E-03    0.4019722917E+00
    0.7000000000E+05    0.6774877811E+00    0.2502962105E-01    0.2382813129E+00    0.7353274026E-03    0.4065407624E+00
    0.9000000000E+05    0.6780716041E+00    0.2236870056E-01    0.2395249749E+00    0.6483652425E-03    0.4095924812E+00
    0.1100000000E+06    0.6784401935E+00    0.2043438364E-01    0.2403944489E+00    0.5860272690E-03    0.4118287272E+00
    0.1300000000E+06    0.6786940359E+00    0.1894408181E-01    0.2410412360E+00    0.5385251175E-03    0.4135650133E+00
    0.1500000000E+06    0.6788795032E+00    0.1774900420E-01    0.2415433819E+00    0.5007777692E-03    0.4149676974E+00
    0.1700000000E+06    0.6790209507E+00    0.1676220740E-01    0.2419456228E+00    0.4698493718E-03    0.4161341611E+00
    0.1900000000E+06    0.6791323950E+00    0.1592896749E-01    0.2422756330E+00    0.4439090870E-03    0.4171258230E+00
    0.2100000000E+06    0.6792224729E+00    0.1521285983E-01    0.2425515421E+00    0.4217478672E-03    0.4179836534E+00
    0.2300000000E+06    0.6792967964E+00    0.1458855802E-01    0.2427857711E+00    0.4025307971E-03    0.4187362048E+00
    0.2500000000E+06    0.6793591699E+00    0.1403782356E-01    0.2429871421E+00    0.3856602610E-03    0.4194040872E+00
    0.2700000000E+06    0.6794122640E+00    0.1354713800E-01    0.2431621090E+00    0.3706957077E-03    0.4200026135E+00
    0.2900000000E+06    0.6794580086E+00    0.1310623667E-01    0.2433155117E+00    0.3573042689E-03    0.4205434385E+00
    0.3100000000E+06    0.6794978329E+00    0.1270716412E-01    0.2434510570E+00    0.3452291210E-03    0.4210356169E+00
    0.3300000000E+06    0.6795328180E+00    0.1234364489E-01    0.2435716358E+00    0.3342685147E-03    0.4214863082E+00
    0.3500000000E+06    0.6795637967E+00    0.1201065226E-01    0.2436795381E+00    0.3242614665E-03    0.4219012611E+00
    0.3700000000E+06    0.6795914211E+00    0.1170410518E-01    0.2437766036E+00    0.3150777460E-03    0.4222851536E+00
    0.3900000000E+06    0.6796162089E+00    0.1142065066E-01    0.2438643284E+00    0.3066107146E-03    0.4226418380E+00
    0.4100000000E+06    0.6796385766E+00    0.1115750448E-01    0.2439439421E+00    0.2987721016E-03    0.4229745207E+00
    0.4300000000E+06    0.6796588627E+00    0.1091233258E-01    0.2440164658E+00    0.2914881278E-03    0.4232858956E+00
    0.4500000000E+06    0.6796773454E+00    0.1068316143E-01    0.2440827544E+00    0.2846965852E-03    0.4235782459E+00
    0.4700000000E+06    0.6796942556E+00    0.1046830925E-01    0.2441435299E+00    0.2783446037E-03    0.4238535214E+00
    0.4900000000E+06    0.6797097861E+00    0.1026633269E-01    0.2441994061E+00    0.2723869241E-03    0.4241133990E+00
    0.1000000000E+06    0.6782746112E+00    0.2133287995E-01    0.2399945273E+00    0.6148892816E-03    0.4107878009E+00
    0.3000000000E+06    0.6794785864E+00    0.1290189757E-01    0.2433853197E+00    0.3511158656E-03    0.4207951231E+00
    0.5000000000E+06    0.6797170858E+00    0.1016977643E-01    0.2442256742E+00    0.2695435461E-03    0.4242380251E+00
    0.7000000000E+06    0.6798193430E+00    0.8685258089E-02    0.2445889626E+00    0.2262317854E-03    0.4261903092E+00
    0.9000000000E+06    0.6798762599E+00    0.7716103460E-02    0.2447769795E+00    0.1983974199E-03    0.4275096211E+00
    0.1100000000E+07    0.6799125626E+00    0.7018750577E-02    0.2448818030E+00    0.1786081248E-03    0.4284873016E+00
    0.1300000000E+07    0.6799377555E+00    0.6485546643E-02    0.2449411923E+00    0.1636232841E-03    0.4292544517E+00
    0.1500000000E+07    0.6799562746E+00    0.6060508897E-02    0.2449734687E+00    0.1517754491E-03    0.4298803404E+00
    0.1700000000E+07    0.6799704699E+00    0.5711238689E-02    0.2449885569E+00    0.1421080050E-03    0.4304056364E+00
    0.1900000000E+07    0.6799817026E+00    0.5417501743E-02    0.2449922690E+00    0.1340279271E-03    0.4308560771E+00
    0.2100000000E+07    0.6799908163E+00    0.5165916684E-02    0.2449882128E+00    0.1271455652E-03    0.4312488932E+00
    0.2300000000E+07    0.6799983616E+00    0.4947230112E-02    0.2449787302E+00    0.1211930137E-03    0.4315961376E+00
    0.2500000000E+07    0.6800047132E+00    0.4754809688E-02    0.2449653970E+00    0.1159792409E-03    0.4319065428E+00
    0.2700000000E+07    0.6800101352E+00    0.4583759735E-02    0.2449493043E+00    0.1113638955E-03    0.4321866212E+00
    0.2900000000E+07    0.6800148188E+00    0.4430376461E-02    0.2449312254E+00    0.1072412510E-03    0.4324413475E+00
    0.3100000000E+07    0.6800189063E+00    0.4291798629E-02    0.2449117194E+00    0.1035299552E-03    0.4326746006E+00
    0.3300000000E+07    0.6800225052E+00    0.4165775829E-02    0.2448911972E+00    0.1001662584E-03    0.4328894585E+00
    0.3500000000E+07    0.6800256989E+00    0.4050510225E-02    0.2448699643E+00    0.9709940609E-04    0.4330884010E+00
    0.3700000000E+07    0.6800285527E+00    0.3944545737E-02    0.2448482513E+00    0.9428842393E-04    0.4332734531E+00
    0.3900000000E+07    0.6800311184E+00    0.3846688696E-02    0.2448262328E+00    0.9169982374E-04    0.4334462879E+00
    0.4100000000E+07    0.6800334379E+00    0.3755949940E-02    0.2448040428E+00    0.8930593407E-04    0.4336083024E+00
    0.4300000000E+07    0.6800355454E+00    0.3671501806E-02    0.2447817842E+00    0.8708366407E-04    0.4337606741E+00
    0.4500000000E+07    0.6800374688E+00    0.3592645691E-02    0.2447595365E+00    0.8501357377E-04    0.4339044042E+00
    0.4700000000E+07    0.6800392315E+00    0.3518787249E-02    0.2447373611E+00    0.8307916486E-04    0.4340403500E+00
    0.4900000000E+07    0.6800408529E+00    0.3449417175E-02    0.2447153056E+00    0.8126633281E-04    0.4341692513E+00
    0.1000000000E+07    0.6798962158E+00    0.7341927268E-02    0.2448367600E+00    0.1877530806E-03    0.4280308909E+00
    0.3000000000E+07    0.6800169297E+00    0.4359389696E-02    0.2449216223E+00    0.1053385192E-03    0.4325604498E+00
    0.5000000000E+07    0.6800416160E+00    0.3416275600E-02    0.2447043346E+00    0.8040164766E-04    0.4342312643E+00
    0.7000000000E+07    0.6800523761E+00    0.2908456394E-02    0.2444965093E+00    0.6727146033E-04    0.4352209386E+00
    0.9000000000E+07    0.6800584402E+00    0.2578659584E-02    0.2443132384E+00    0.5887442444E-04    0.4359117810E+00
    0.1100000000E+08    0.6800623484E+00    0.2342190663E-02    0.2441517516E+00    0.5292419537E-04    0.4364371644E+00
    0.1300000000E+08    0.6800650853E+00    0.2161851975E-02    0.2440080413E+00    0.4842959609E-04    0.4368584011E+00
    0.1500000000E+08    0.6800671138E+00    0.2018385830E-02    0.2438787709E+00    0.4488269639E-04    0.4372084770E+00
    0.1700000000E+08    0.6800686804E+00    0.1900685000E-02    0.2437613601E+00    0.4199300258E-04    0.4375070658E+00
    0.1900000000E+08    0.6800699286E+00    0.1801831207E-02    0.2436538263E+00    0.3958087866E-04    0.4377667935E+00
    0.2100000000E+08    0.6800709481E+00    0.1717259334E-02    0.2435546311E+00    0.3752853527E-04    0.4379962204E+00
    0.2300000000E+08    0.6800717972E+00    0.1643818399E-02    0.2434625635E+00    0.3575512550E-04    0.4382014033E+00
    0.2500000000E+08    0.6800725162E+00    0.1579253536E-02    0.2433766556E+00    0.3420308634E-04    0.4383867773E+00
    0.2700000000E+08    0.6800731334E+00    0.1521902614E-02    0.2432961234E+00    0.3283018091E-04    0.4385556821E+00
