  Pressure (Pa) 22mC5-400 (mol/kg) 2mC6-400 (mol/kg) 3mC6-400 (mol/kg) 33mC5-400 (mol/kg) C7-400 (mol/kg)
    0.1000000000E+01    0.2644325674E-02    0.3170917977E-02    0.1579779604E-02    0.3872710065E-03    0.3418029081E-02
    0.3000000000E+01    0.7818712750E-02    0.9258539192E-02    0.4631972429E-02    0.1130823459E-02    0.1002279841E-01
    0.5000000000E+01    0.1284736319E-01    0.1502708815E-01    0.7549348702E-02    0.1835478789E-02    0.1633712133E-01
    0.7000000000E+01    0.1773772754E-01    0.2049854375E-01    0.1034110810E-01    0.2503914830E-02    0.2238079018E-01
    0.9000000000E+01    0.2249674176E-01    0.2569295043E-01    0.1301562212E-01    0.3138573630E-02    0.2817181682E-01
    0.1100000000E+02    0.2713087107E-01    0.3062862573E-01    0.1558052559E-01    0.3741686768E-02    0.3372662925E-01
    0.1300000000E+02    0.3164614931E-01    0.3532234157E-01    0.1804279625E-01    0.4315297460E-02    0.3906024268E-01
    0.1500000000E+02    0.3604821452E-01    0.3978948326E-01    0.2040882423E-01    0.4861279941E-02    0.4418640886E-01
    0.1700000000E+02    0.4034234100E-01    0.4404418911E-01    0.2268447291E-01    0.5381356501E-02    0.4911774677E-01
    0.1900000000E+02    0.4453346830E-01    0.4809947362E-01    0.2487513233E-01    0.5877112490E-02    0.5386585753E-01
    0.2100000000E+02    0.4862622752E-01    0.5196733630E-01    0.2698576621E-01    0.6350009595E-02    0.5844142541E-01
    0.2300000000E+02    0.5262496511E-01    0.5565885806E-01    0.2902095349E-01    0.6801397586E-02    0.6285430714E-01
    0.2500000000E+02    0.5653376458E-01    0.5918428688E-01    0.3098492509E-01    0.7232524759E-02    0.6711361091E-01
    0.2700000000E+02    0.6035646619E-01    0.6255311406E-01    0.3288159653E-01    0.7644547228E-02    0.7122776647E-01
    0.2900000000E+02    0.6409668491E-01    0.6577414222E-01    0.3471459692E-01    0.8038537216E-02    0.7520458752E-01
    0.3100000000E+02    0.6775782680E-01    0.6885554614E-01    0.3648729480E-01    0.8415490470E-02    0.7905132725E-01
    0.3300000000E+02    0.7134310404E-01    0.7180492729E-01    0.3820282131E-01    0.8776332902E-02    0.8277472805E-01
    0.3500000000E+02    0.7485554859E-01    0.7462936272E-01    0.3986409078E-01    0.9121926550E-02    0.8638106595E-01
    0.3700000000E+02    0.7829802480E-01    0.7733544913E-01    0.4147381933E-01    0.9453074947E-02    0.8987619049E-01
    0.3900000000E+02    0.8167324087E-01    0.7992934249E-01    0.4303454156E-01    0.9770527951E-02    0.9326556060E-01
    0.4100000000E+02    0.8498375951E-01    0.8241679391E-01    0.4454862550E-01    0.1007498611E-01    0.9655427686E-01
    0.4300000000E+02    0.8823200762E-01    0.8480318196E-01    0.4601828621E-01    0.1036710460E-01    0.9974711065E-01
    0.4500000000E+02    0.9142028527E-01    0.8709354210E-01    0.4744559800E-01    0.1064749682E-01    0.1028485305E+00
    0.4700000000E+02    0.9455077396E-01    0.8929259318E-01    0.4883250550E-01    0.1091673761E-01    0.1058627257E+00
    0.4900000000E+02    0.9762554425E-01    0.9140476176E-01    0.5018083372E-01    0.1117536621E-01    0.1087936283E+00
    0.1000000000E+02    0.2482903024E-01    0.2819204700E-01    0.1431132452E-01    0.3443941531E-02    0.3097778009E-01
    0.3000000000E+02    0.6593693532E-01    0.6733180928E-01    0.3560828266E-01    0.8229084002E-02    0.7714378472E-01
    0.5000000000E+02    0.9914265345E-01    0.9242957392E-01    0.5084107047E-01    0.1130086038E-01    0.1102290080E+00
    0.7000000000E+02    0.1269887751E+00    0.1092497781E+00    0.6238621033E-01    0.1336146116E-01    0.1353520505E+00
    0.9000000000E+02    0.1509926903E+00    0.1208453119E+00    0.7150885095E-01    0.1478286802E-01    0.1552396314E+00
    0.1100000000E+03    0.1721195471E+00    0.1289732512E+00    0.7894687012E-01    0.1577928421E-01    0.1714830878E+00
    0.1300000000E+03    0.1910150338E+00    0.1347099476E+00    0.8516102351E-01    0.1648202579E-01    0.1850767248E+00
    0.1500000000E+03    0.2081292483E+00    0.1387475825E+00    0.9045470205E-01    0.1697562244E-01    0.1966756556E+00
    0.1700000000E+03    0.2237868635E+00    0.1415489559E+00    0.9503634636E-01    0.1731665929E-01    0.2067302364E+00
    0.1900000000E+03    0.2382289631E+00    0.1434335194E+00    0.9905423261E-01    0.1754424980E-01    0.2155610209E+00
    0.2100000000E+03    0.2516390765E+00    0.1446277003E+00    0.1026169445E+00    0.1768616257E-01    0.2234028894E+00
    0.2300000000E+03    0.2641599816E+00    0.1452956165E+00    0.1058059777E+00    0.1776256151E-01    0.2304322280E+00
    0.2500000000E+03    0.2759048910E+00    0.1455585069E+00    0.1086838007E+00    0.1778837268E-01    0.2367843179E+00
    0.2700000000E+03    0.2869651064E+00    0.1455074081E+00    0.1112991810E+00    0.1777482899E-01    0.2425648286E+00
    0.2900000000E+03    0.2974153798E+00    0.1452116471E+00    0.1136908043E+00    0.1773050562E-01    0.2478576305E+00
    0.3100000000E+03    0.3073177500E+00    0.1447246669E+00    0.1158897954E+00    0.1766203059E-01    0.2527302392E+00
    0.3300000000E+03    0.3167243404E+00    0.1440881045E+00    0.1179215121E+00    0.1757458254E-01    0.2572376905E+00
    0.3500000000E+03    0.3256794318E+00    0.1433346986E+00    0.1198068475E+00    0.1747224592E-01    0.2614253538E+00
    0.3700000000E+03    0.3342210242E+00    0.1424903977E+00    0.1215631904E+00    0.1735826867E-01    0.2653310096E+00
    0.3900000000E+03    0.3423820282E+00    0.1415759100E+00    0.1232051464E+00    0.1723525198E-01    0.2689864077E+00
    0.4100000000E+03    0.3501911862E+00    0.1406078596E+00    0.1247450852E+00    0.1710529181E-01    0.2724184514E+00
    0.4300000000E+03    0.3576737929E+00    0.1395996583E+00    0.1261935627E+00    0.1697008590E-01    0.2756501113E+00
    0.4500000000E+03    0.3648522644E+00    0.1385621709E+00    0.1275596498E+00    0.1683101541E-01    0.2787011359E+00
    0.4700000000E+03    0.3717465930E+00    0.1375042276E+00    0.1288511908E+00    0.1668920799E-01    0.2815886125E+00
    0.4900000000E+03    0.3783747138E+00    0.1364330228E+00    0.1300750094E+00    0.1654558683E-01    0.2843274123E+00
    0.1000000000E+03    0.1618697110E+00    0.1252639380E+00    0.7540493819E-01    0.1532458977E-01    0.1637445964E+00
    0.3000000000E+03    0.3024315899E+00    0.1449892191E+00    0.1148126761E+00    0.1769893416E-01    0.2503427640E+00
    0.5000000000E+03    0.3815940627E+00    0.1358943266E+00    0.1306634176E+00    0.1647333838E-01    0.2856451895E+00
    0.7000000000E+03    0.4352296262E+00    0.1253774802E+00    0.1399965127E+00    0.1505743275E-01    0.3066403421E+00
    0.9000000000E+03    0.4741169777E+00    0.1162332412E+00    0.1464038533E+00    0.1381680813E-01    0.3211715812E+00
    0.1100000000E+04    0.5034461014E+00    0.1086109018E+00    0.1511855263E+00    0.1277710669E-01    0.3320915898E+00
    0.1300000000E+04    0.5262074093E+00    0.1022635243E+00    0.1549465387E+00    0.1190910135E-01    0.3407334993E+00
    0.1500000000E+04    0.5442793686E+00    0.9692668934E-01    0.1580137344E+00    0.1117913505E-01    0.3478202217E+00
    0.1700000000E+04    0.5589043990E+00    0.9238410189E-01    0.1605821702E+00    0.1055879458E-01    0.3537846524E+00
    0.1900000000E+04    0.5709347014E+00    0.8846958130E-01    0.1627768663E+00    0.1002579026E-01    0.3589051186E+00
    0.2100000000E+04    0.5809717730E+00    0.8505722809E-01    0.1646823794E+00    0.9562973338E-02    0.3633704077E+00
    0.2300000000E+04    0.5894504163E+00    0.8205141821E-01    0.1663583500E+00    0.9157164157E-02    0.3673140357E+00
    0.2500000000E+04    0.5966914830E+00    0.7937887171E-01    0.1678482871E+00    0.8798169687E-02    0.3708336505E+00
    0.2700000000E+04    0.6029360756E+00    0.7698279062E-01    0.1691848213E+00    0.8478033210E-02    0.3740026605E+00
    0.2900000000E+04    0.6083683258E+00    0.7481861830E-01    0.1703929976E+00    0.8190478864E-02    0.3768775362E+00
    0.3100000000E+04    0.6131309170E+00    0.7285098107E-01    0.1714924201E+00    0.7930503941E-02    0.3795025751E+00
    0.3300000000E+04    0.6173358780E+00    0.7105147162E-01    0.1724986948E+00    0.7694079186E-02    0.3819131132E+00
    0.3500000000E+04    0.6210722264E+00    0.6939702855E-01    0.1734244283E+00    0.7477927165E-02    0.3841377523E+00
    0.3700000000E+04    0.6244114710E+00    0.6786873949E-01    0.1742799364E+00    0.7279356970E-02    0.3861999407E+00
    0.3900000000E+04    0.6274116314E+00    0.6645094747E-01    0.1750737570E+00    0.7096139812E-02    0.3881191208E+00
    0.4100000000E+04    0.6301202161E+00    0.6513057629E-01    0.1758130278E+00    0.6926414462E-02    0.3899115763E+00
    0.4300000000E+04    0.6325764572E+00    0.6389661586E-01    0.1765037712E+00    0.6768614690E-02    0.3915910691E+00
    0.4500000000E+04    0.6348130055E+00    0.6273972538E-01    0.1771511097E+00    0.6621413061E-02    0.3931693248E+00
    0.4700000000E+04    0.6368572319E+00    0.6165192449E-01    0.1777594332E+00    0.6483677007E-02    0.3946564083E+00
    0.4900000000E+04    0.6387322358E+00    0.6062635051E-01    0.1783325293E+00    0.6354434186E-02    0.3960610170E+00
    0.1000000000E+04    0.4897552148E+00    0.1122451327E+00    0.1489508188E+00    0.1327332310E-01    0.3269793641E+00
    0.3000000000E+04    0.6108257106E+00    0.7381215011E-01    0.1709552475E+00    0.8057315700E-02    0.3782188966E+00
    0.5000000000E+04    0.6396125275E+00    0.6013501145E-01    0.1786069117E+00    0.6292730799E-02    0.3967347954E+00
    0.7000000000E+04    0.6518289449E+00    0.5248072734E-01    0.1828550737E+00    0.5350469467E-02    0.4072871479E+00
    0.9000000000E+04    0.6584758427E+00    0.4735811158E-01    0.1856510693E+00    0.4740848064E-02    0.4143818811E+00
    0.1100000000E+05    0.6626265250E+00    0.4359415972E-01    0.1876676493E+00    0.4303994336E-02    0.4195942766E+00
    0.1300000000E+05    0.6654551149E+00    0.4066505598E-01    0.1892085674E+00    0.3970542439E-02    0.4236436926E+00
    0.1500000000E+05    0.6675025148E+00    0.3829502700E-01    0.1904340149E+00    0.3704877714E-02    0.4269132430E+00
    0.1700000000E+05    0.6690512223E+00    0.3632240252E-01    0.1914376040E+00    0.3486561241E-02    0.4296287903E+00
    0.1900000000E+05    0.6702627117E+00    0.3464492701E-01    0.1922782066E+00    0.3302897421E-02    0.4319335253E+00
    0.2100000000E+05    0.6712357893E+00    0.3319415911E-01    0.1929949524E+00    0.3145519695E-02    0.4339233333E+00
    0.2300000000E+05    0.6720342248E+00    0.3192223579E-01    0.1936149991E+00    0.3008655170E-02    0.4356652295E+00
    0.2500000000E+05    0.6727009779E+00    0.3079449153E-01    0.1941578631E+00    0.2888171593E-02    0.4372076925E+00
    0.2700000000E+05    0.6732660267E+00    0.2978508934E-01    0.1946379775E+00    0.2781020916E-02    0.4385867983E+00
    0.2900000000E+05    0.6737509162E+00    0.2887430671E-01    0.1950662751E+00    0.2684897855E-02    0.4398300381E+00
    0.3100000000E+05    0.6741715223E+00    0.2804678081E-01    0.1954512081E+00    0.2598021572E-02    0.4409587875E+00
    0.3300000000E+05    0.6745397983E+00    0.2729033514E-01    0.1957994271E+00    0.2518991154E-02    0.4419899583E+00
    0.3500000000E+05    0.6748649131E+00    0.2659517208E-01    0.1961162454E+00    0.2446687068E-02    0.4429371339E+00
    0.3700000000E+05    0.6751540162E+00    0.2595330329E-01    0.1964059655E+00    0.2380202224E-02    0.4438113704E+00
    0.3900000000E+05    0.6754127639E+00    0.2535813913E-01    0.1966721133E+00    0.2318792662E-02    0.4446217726E+00
    0.4100000000E+05    0.6756456888E+00    0.2480418694E-01    0.1969176087E+00    0.2261841566E-02    0.4453759177E+00
    0.4300000000E+05    0.6758564656E+00    0.2428682557E-01    0.1971448933E+00    0.2208832558E-02    0.4460801710E+00
    0.4500000000E+05    0.6760481043E+00    0.2380213432E-01    0.1973560260E+00    0.2159329547E-02    0.4467399251E+00
    0.4700000000E+05    0.6762230941E+00    0.2334676133E-01    0.1975527569E+00    0.2112961325E-02    0.4473597840E+00
    0.4900000000E+05    0.6763835110E+00    0.2291782116E-01    0.1977365842E+00    0.2069409627E-02    0.4479437059E+00
    0.1000000000E+05    0.6607675142E+00    0.4534740868E-01    0.1867329790E+00    0.4506308799E-02    0.4171671514E+00
    0.3000000000E+05    0.6739684313E+00    0.2845096151E-01    0.1952637106E+00    0.2640398997E-02    0.4404075778E+00
    0.5000000000E+05    0.6764588110E+00    0.2271246899E-01    0.1978240694E+00    0.2048602651E-02    0.4482232791E+00
    0.7000000000E+05    0.6775064433E+00    0.1953100536E-01    0.1991326450E+00    0.1729875097E-02    0.4525599466E+00
    0.9000000000E+05    0.6780830457E+00    0.1742913043E-01    0.1999421691E+00    0.1523169717E-02    0.4554367489E+00
    0.1100000000E+06    0.6784479331E+00    0.1590443394E-01    0.2004965844E+00    0.1375257265E-02    0.4575345956E+00
    0.1300000000E+06    0.6786996276E+00    0.1473166341E-01    0.2009012508E+00    0.1262707137E-02    0.4591574652E+00
    0.1500000000E+06    0.6788837388E+00    0.1379247195E-01    0.2012098152E+00    0.1173375147E-02    0.4604647272E+00
    0.1700000000E+06    0.6790242758E+00    0.1301782835E-01    0.2014527208E+00    0.1100253655E-02    0.4615492611E+00
    0.1900000000E+06    0.6791350795E+00    0.1236434808E-01    0.2016486322E+00    0.1038977739E-02    0.4624694362E+00
    0.2100000000E+06    0.6792246898E+00    0.1180319127E-01    0.2018096774E+00    0.9866678954E-03    0.4632640725E+00
    0.2300000000E+06    0.6792986615E+00    0.1131432776E-01    0.2019441031E+00    0.9413375087E-03    0.4639601542E+00
    0.2500000000E+06    0.6793607639E+00    0.1088334737E-01    0.2020577253E+00    0.9015657832E-03    0.4645771165E+00
    0.2700000000E+06    0.6794136447E+00    0.1049957865E-01    0.2021547700E+00    0.8663061228E-03    0.4651293708E+00
    0.2900000000E+06    0.6794592185E+00    0.1015492509E-01    0.2022383864E+00    0.8347682894E-03    0.4656278671E+00
    0.3100000000E+06    0.6794989040E+00    0.9843116183E-02    0.2023109713E+00    0.8063429588E-03    0.4660810989E+00
    0.3300000000E+06    0.6795337747E+00    0.9559208828E-02    0.2023743829E+00    0.7805517482E-03    0.4664957727E+00
    0.3500000000E+06    0.6795646581E+00    0.9299245924E-02    0.2024300850E+00    0.7570131405E-03    0.4668772663E+00
    0.3700000000E+06    0.6795922023E+00    0.9060016601E-02    0.2024792466E+00    0.7354186537E-03    0.4672299509E+00
    0.3900000000E+06    0.6796169220E+00    0.8838884170E-02    0.2025228133E+00    0.7155158038E-03    0.4675574224E+00
    0.4100000000E+06    0.6796392313E+00    0.8633660252E-02    0.2025615581E+00    0.6970956856E-03    0.4678626702E+00
    0.4300000000E+06    0.6796594670E+00    0.8442511119E-02    0.2025961195E+00    0.6799837611E-03    0.4681482043E+00
    0.4500000000E+06    0.6796779060E+00    0.8263886915E-02    0.2026270293E+00    0.6640329205E-03    0.4684161495E+00
    0.4700000000E+06    0.6796947780E+00    0.8096467438E-02    0.2026547343E+00    0.6491181818E-03    0.4686683192E+00
    0.4900000000E+06    0.6797102749E+00    0.7939120074E-02    0.2026796127E+00    0.6351325904E-03    0.4689062718E+00
    0.1000000000E+06    0.6782839297E+00    0.1661231275E-01    0.2002429208E+00    0.1443710853E-02    0.4565591670E+00
    0.3000000000E+06    0.6794797235E+00    0.9995250508E-02    0.2022759310E+00    0.8201990690E-03    0.4658596862E+00
    0.5000000000E+06    0.6797175594E+00    0.7863912519E-02    0.2026910943E+00    0.6284589268E-03    0.4690203452E+00
    0.7000000000E+06    0.6798196370E+00    0.6708731228E-02    0.2028300813E+00    0.5268954493E-03    0.4708041257E+00
    0.9000000000E+06    0.6798764823E+00    0.5955729368E-02    0.2028754816E+00    0.4617213289E-03    0.4720062559E+00
    0.1100000000E+07    0.6799127503E+00    0.5414486989E-02    0.2028801460E+00    0.4154326780E-03    0.4728954481E+00
    0.1300000000E+07    0.6799379244E+00    0.5000981459E-02    0.2028646719E+00    0.3804095828E-03    0.4735922198E+00
    0.1500000000E+07    0.6799564326E+00    0.4671571982E-02    0.2028385417E+00    0.3527357873E-03    0.4741600968E+00
    0.1700000000E+07    0.6799706212E+00    0.4401026598E-02    0.2028066116E+00    0.3301665731E-03    0.4746363084E+00
    0.1900000000E+07    0.6799818498E+00    0.4173599108E-02    0.2027715560E+00    0.3113114209E-03    0.4750443809E+00
    0.2100000000E+07    0.6799909609E+00    0.3978882933E-02    0.2027349249E+00    0.2952572482E-03    0.4754000461E+00
    0.2300000000E+07    0.6799985046E+00    0.3809685760E-02    0.2026976492E+00    0.2813765940E-03    0.4757142970E+00
    0.2500000000E+07    0.6800048554E+00    0.3660855000E-02    0.2026603010E+00    0.2692222491E-03    0.4759950916E+00
    0.2700000000E+07    0.6800102769E+00    0.3528588866E-02    0.2026232360E+00    0.2584657830E-03    0.4762483599E+00
    0.2900000000E+07    0.6800149604E+00    0.3410012223E-02    0.2025866755E+00    0.2488598788E-03    0.4764786291E+00
    0.3100000000E+07    0.6800190480E+00    0.3302904741E-02    0.2025507553E+00    0.2402142986E-03    0.4766894267E+00
    0.3300000000E+07    0.6800226472E+00    0.3205520627E-02    0.2025155553E+00    0.2323800111E-03    0.4768835506E+00
    0.3500000000E+07    0.6800258413E+00    0.3116465574E-02    0.2024811191E+00    0.2252383971E-03    0.4770632538E+00
    0.3700000000E+07    0.6800286955E+00    0.3034610608E-02    0.2024474658E+00    0.2186937187E-03    0.4772303753E+00
    0.3900000000E+07    0.6800312618E+00    0.2959030442E-02    0.2024145984E+00    0.2126677475E-03    0.4773864339E+00
    0.4100000000E+07    0.6800335819E+00    0.2888958481E-02    0.2023825093E+00    0.2070958570E-03    0.4775326974E+00
    0.4300000000E+07    0.6800356900E+00    0.2823753423E-02    0.2023511837E+00    0.2019241291E-03    0.4776702340E+00
    0.4500000000E+07    0.6800376140E+00    0.2762874071E-02    0.2023206025E+00    0.1971071794E-03    0.4777999514E+00
    0.4700000000E+07    0.6800393774E+00    0.2705860074E-02    0.2022907437E+00    0.1926064978E-03    0.4779226271E+00
    0.4900000000E+07    0.6800409995E+00    0.2652317019E-02    0.2022615838E+00    0.1883891670E-03    0.4780389315E+00
    0.1000000000E+07    0.6798964181E+00    0.5665255803E-02    0.2028812302E+00    0.4368183487E-03    0.4724805174E+00
    0.3000000000E+07    0.6800170713E+00    0.3355143410E-02    0.2025686293E+00    0.2444271825E-03    0.4765862724E+00
    0.5000000000E+07    0.6800417629E+00    0.2626738943E-02    0.2022472583E+00    0.1863777499E-03    0.4780948794E+00
    0.7000000000E+07    0.6800525295E+00    0.2234989630E-02    0.2019916808E+00    0.1558481269E-03    0.4789873601E+00
    0.9000000000E+07    0.6800585993E+00    0.1980756750E-02    0.2017818632E+00    0.1363378166E-03    0.4796099630E+00
    0.1100000000E+08    0.6800625124E+00    0.1798561849E-02    0.2016041438E+00    0.1225196836E-03    0.4800832713E+00
    0.1300000000E+08    0.6800652537E+00    0.1659669013E-02    0.2014499789E+00    0.1120860478E-03    0.4804626617E+00
    0.1500000000E+08    0.6800672860E+00    0.1549209656E-02    0.2013137965E+00    0.1038549882E-03    0.4807779062E+00
    0.1700000000E+08    0.6800688561E+00    0.1458611817E-02    0.2011917860E+00    0.9715083755E-04    0.4810467529E+00
    0.1900000000E+08    0.6800701075E+00    0.1382538258E-02    0.2010812329E+00    0.9155592322E-04    0.4812805879E+00
    0.2100000000E+08    0.6800711299E+00    0.1317468193E-02    0.2009801368E+00    0.8679645429E-04    0.4814871281E+00
    0.2300000000E+08    0.6800719817E+00    0.1260972102E-02    0.2008869813E+00    0.8268455749E-04    0.4816718328E+00
    0.2500000000E+08    0.6800727032E+00    0.1211311796E-02    0.2008005896E+00    0.7908649710E-04    0.4818386985E+00
    0.2700000000E+08    0.6800733227E+00    0.1167206259E-02    0.2007200299E+00    0.7590416399E-04    0.4819907342E+00
