  Pressure (Pa) 22mC5-400 (mol/kg) 2mC6-400 (mol/kg) 3mC6-400 (mol/kg) 33mC5-400 (mol/kg) C7-400 (mol/kg)
    0.1000000000E+01    0.2650930398E-02    0.7870958868E-03    0.2085152895E-02    0.1922860112E-03    0.1184321012E-01
    0.3000000000E+01    0.7876286161E-02    0.2267561148E-02    0.5996875490E-02    0.5541472364E-03    0.3406786590E-01
    0.5000000000E+01    0.1300233243E-01    0.3635062289E-02    0.9598237232E-02    0.8886450440E-03    0.5453775949E-01
    0.7000000000E+01    0.1803218497E-01    0.4902069703E-02    0.1292497967E-01    0.1198808813E-02    0.7345464948E-01
    0.9000000000E+01    0.2296882792E-01    0.6079214109E-02    0.1600755066E-01    0.1487219551E-02    0.9099043561E-01
    0.1100000000E+02    0.2781512064E-01    0.7175617803E-02    0.1887204984E-01    0.1756090788E-02    0.1072924890E+00
    0.1300000000E+02    0.3257380411E-01    0.8199156731E-02    0.2154097839E-01    0.2007332555E-02    0.1224878795E+00
    0.1500000000E+02    0.3724750704E-01    0.9156669657E-02    0.2403383884E-01    0.2242602429E-02    0.1366867582E+00
    0.1700000000E+02    0.4183875145E-01    0.1005412645E-01    0.2636761881E-01    0.2463346595E-02    0.1499850849E+00
    0.1900000000E+02    0.4634995811E-01    0.1089676450E-01    0.2855718391E-01    0.2670833122E-02    0.1624668440E+00
    0.2100000000E+02    0.5078345147E-01    0.1168920018E-01    0.3061559935E-01    0.2866179123E-02    0.1742058586E+00
    0.2300000000E+02    0.5514146444E-01    0.1243552030E-01    0.3255439462E-01    0.3050373070E-02    0.1852672834E+00
    0.2500000000E+02    0.5942614282E-01    0.1313935791E-01    0.3438378291E-01    0.3224293248E-02    0.1957088425E+00
    0.2700000000E+02    0.6363954954E-01    0.1380395527E-01    0.3611284390E-01    0.3388723088E-02    0.2055818603E+00
    0.2900000000E+02    0.6778366855E-01    0.1443221650E-01    0.3774967689E-01    0.3544364006E-02    0.2149321259E+00
    0.3100000000E+02    0.7186040862E-01    0.1502675196E-01    0.3930152981E-01    0.3691846178E-02    0.2238006208E+00
    0.3300000000E+02    0.7587160684E-01    0.1558991563E-01    0.4077490829E-01    0.3831737657E-02    0.2322241343E+00
    0.3500000000E+02    0.7981903195E-01    0.1612383691E-01    0.4217566845E-01    0.3964552095E-02    0.2402357875E+00
    0.3700000000E+02    0.8370438750E-01    0.1663044777E-01    0.4350909607E-01    0.4090755344E-02    0.2478654796E+00
    0.3900000000E+02    0.8752931481E-01    0.1711150592E-01    0.4477997444E-01    0.4210771087E-02    0.2551402714E+00
    0.4100000000E+02    0.9129539582E-01    0.1756861483E-01    0.4599264280E-01    0.4324985699E-02    0.2620847147E+00
    0.4300000000E+02    0.9500415572E-01    0.1800324089E-01    0.4715104670E-01    0.4433752421E-02    0.2687211370E+00
    0.4500000000E+02    0.9865706550E-01    0.1841672843E-01    0.4825878179E-01    0.4537394994E-02    0.2750698884E+00
    0.4700000000E+02    0.1022555443E+00    0.1881031263E-01    0.4931913178E-01    0.4636210800E-02    0.2811495563E+00
    0.4900000000E+02    0.1058009618E+00    0.1918513091E-01    0.5033510159E-01    0.4730473615E-02    0.2869771521E+00
    0.1000000000E+02    0.2540309404E-01    0.6636989763E-02    0.1746557624E-01    0.1623971770E-02    0.9928730444E-01
    0.3000000000E+02    0.6983034449E-01    0.1473354722E-01    0.3853580302E-01    0.3619088073E-02    0.2194242036E+00
    0.5000000000E+02    0.1075541875E+00    0.1936583398E-01    0.5082731396E-01    0.4775977349E-02    0.2898013491E+00
    0.7000000000E+02    0.1401316327E+00    0.2221122544E-01    0.5890221126E-01    0.5499114619E-02    0.3362265874E+00
    0.9000000000E+02    0.1686587406E+00    0.2399978665E-01    0.6462357864E-01    0.5964133726E-02    0.3692546102E+00
    0.1100000000E+03    0.1939300162E+00    0.2511165943E-01    0.6889553546E-01    0.6262503115E-02    0.3940146991E+00
    0.1300000000E+03    0.2165361109E+00    0.2576827800E-01    0.7221047007E-01    0.6447625697E-02    0.4133042318E+00
    0.1500000000E+03    0.2369259118E+00    0.2610861410E-01    0.7485974921E-01    0.6553150059E-02    0.4287808572E+00
    0.1700000000E+03    0.2554472497E+00    0.2622454082E-01    0.7702695812E-01    0.6601439133E-02    0.4414904900E+00
    0.1900000000E+03    0.2723743262E+00    0.2617912840E-01    0.7883360668E-01    0.6607943630E-02    0.4521263541E+00
    0.2100000000E+03    0.2879266438E+00    0.2601691279E-01    0.8036337269E-01    0.6583654751E-02    0.4611664988E+00
    0.2300000000E+03    0.3022823539E+00    0.2577002871E-01    0.8167579384E-01    0.6536569360E-02    0.4689515299E+00
    0.2500000000E+03    0.3155878508E+00    0.2546205489E-01    0.8281440732E-01    0.6472609553E-02    0.4757308587E+00
    0.2700000000E+03    0.3279647889E+00    0.2511052013E-01    0.8381179954E-01    0.6396222983E-02    0.4816914174E+00
    0.2900000000E+03    0.3395152963E+00    0.2472858848E-01    0.8469285422E-01    0.6310787537E-02    0.4869761456E+00
    0.3100000000E+03    0.3503259044E+00    0.2432622223E-01    0.8547690729E-01    0.6218891443E-02    0.4916962653E+00
    0.3300000000E+03    0.3604705494E+00    0.2391100217E-01    0.8617921557E-01    0.6122531508E-02    0.4959396532E+00
    0.3500000000E+03    0.3700128930E+00    0.2348871674E-01    0.8681198151E-01    0.6023256096E-02    0.4997766874E+00
    0.3700000000E+03    0.3790081359E+00    0.2306379207E-01    0.8738508325E-01    0.5922269939E-02    0.5032644170E+00
    0.3900000000E+03    0.3875044519E+00    0.2263961007E-01    0.8790660449E-01    0.5820512056E-02    0.5064495892E+00
    0.4100000000E+03    0.3955441312E+00    0.2221874659E-01    0.8838322538E-01    0.5718714405E-02    0.5093708865E+00
    0.4300000000E+03    0.4031645009E+00    0.2180315165E-01    0.8882051540E-01    0.5617446520E-02    0.5120606017E+00
    0.4500000000E+03    0.4103986724E+00    0.2139428698E-01    0.8922315562E-01    0.5517149794E-02    0.5145459128E+00
    0.4700000000E+03    0.4172761534E+00    0.2099323194E-01    0.8959510960E-01    0.5418164060E-02    0.5168498614E+00
    0.4900000000E+03    0.4238233520E+00    0.2060076564E-01    0.8993975613E-01    0.5320748334E-02    0.5189921158E+00
    0.1000000000E+03    0.1816605221E+00    0.2462393662E-01    0.6690362865E-01    0.6130205093E-02    0.3824574333E+00
    0.3000000000E+03    0.3450082015E+00    0.2452943789E-01    0.8509597053E-01    0.6265510305E-02    0.4894008204E+00
    0.5000000000E+03    0.4269806051E+00    0.2040793070E-01    0.9010276124E-01    0.5272692157E-02    0.5200079816E+00
    0.7000000000E+03    0.4774544295E+00    0.1705551046E-01    0.9245511949E-01    0.4419032522E-02    0.5349089932E+00
    0.9000000000E+03    0.5117171820E+00    0.1456294973E-01    0.9381885049E-01    0.3764060085E-02    0.5438469506E+00
    0.1100000000E+04    0.5364353142E+00    0.1270037649E-01    0.9470580215E-01    0.3264127153E-02    0.5498567339E+00
    0.1300000000E+04    0.5550548320E+00    0.1127846035E-01    0.9532631668E-01    0.2876710807E-02    0.5542014910E+00
    0.1500000000E+04    0.5695482872E+00    0.1016728343E-01    0.9578289968E-01    0.2570721008E-02    0.5575043205E+00
    0.1700000000E+04    0.5811269071E+00    0.9279780247E-02    0.9613151533E-01    0.2324500324E-02    0.5601094375E+00
    0.1900000000E+04    0.5905745879E+00    0.8556978823E-02    0.9640531673E-01    0.2122967163E-02    0.5622231091E+00
    0.2100000000E+04    0.5984201672E+00    0.7958132396E-02    0.9662519325E-01    0.1955475765E-02    0.5639767730E+00
    0.2300000000E+04    0.6050327250E+00    0.7454465102E-02    0.9680495879E-01    0.1814377994E-02    0.5654583170E+00
    0.2500000000E+04    0.6106772657E+00    0.7025217705E-02    0.9695411099E-01    0.1694078199E-02    0.5667288330E+00
    0.2700000000E+04    0.6155487253E+00    0.6655113346E-02    0.9707939264E-01    0.1590409929E-02    0.5678321657E+00
    0.2900000000E+04    0.6197935251E+00    0.6332702450E-02    0.9718572107E-01    0.1500219586E-02    0.5688006357E+00
    0.3100000000E+04    0.6235236714E+00    0.6049259793E-02    0.9727676526E-01    0.1421083809E-02    0.5696586174E+00
    0.3300000000E+04    0.6268262323E+00    0.5798034776E-02    0.9735531713E-01    0.1351114347E-02    0.5704248566E+00
    0.3500000000E+04    0.6297698644E+00    0.5573732060E-02    0.9742353789E-01    0.1288821070E-02    0.5711140185E+00
    0.3700000000E+04    0.6324094013E+00    0.5372145353E-02    0.9748312584E-01    0.1233014253E-02    0.5717377495E+00
    0.3900000000E+04    0.6347891428E+00    0.5189894896E-02    0.9753543342E-01    0.1182733821E-02    0.5723054217E+00
    0.4100000000E+04    0.6369452520E+00    0.5024236395E-02    0.9758155051E-01    0.1137197378E-02    0.5728246675E+00
    0.4300000000E+04    0.6389075303E+00    0.4872919965E-02    0.9762236476E-01    0.1095761542E-02    0.5733017682E+00
    0.4500000000E+04    0.6407007481E+00    0.4734084633E-02    0.9765860611E-01    0.1057892815E-02    0.5737419435E+00
    0.4700000000E+04    0.6423456582E+00    0.4606178472E-02    0.9769088005E-01    0.1023145393E-02    0.5741495683E+00
    0.4900000000E+04    0.6438597732E+00    0.4487897456E-02    0.9771969283E-01    0.9911440833E-03    0.5745283389E+00
    0.1000000000E+04    0.5250067365E+00    0.1356629088E-01    0.9430505598E-01    0.3497636588E-02    0.5471169034E+00
    0.3000000000E+04    0.6217169916E+00    0.6186571299E-02    0.9723296200E-01    0.1459398600E-02    0.5692421551E+00
    0.5000000000E+04    0.6445725212E+00    0.4432014786E-02    0.9773293722E-01    0.9760719470E-03    0.5747079055E+00
    0.7000000000E+04    0.6546167897E+00    0.3623863716E-02    0.9789114802E-01    0.7623355342E-03    0.5773486529E+00
    0.9000000000E+04    0.6602389862E+00    0.3142997322E-02    0.9794428037E-01    0.6400996281E-03    0.5789559333E+00
    0.1100000000E+05    0.6638268820E+00    0.2816420271E-02    0.9795467925E-01    0.5598555832E-03    0.5800592927E+00
    0.1300000000E+05    0.6663137292E+00    0.2576228039E-02    0.9794507533E-01    0.5024954187E-03    0.5808750317E+00
    0.1500000000E+05    0.6681383295E+00    0.2389972463E-02    0.9792539321E-01    0.4590699351E-03    0.5815092403E+00
    0.1700000000E+05    0.6695338989E+00    0.2240017683E-02    0.9790049049E-01    0.4248132378E-03    0.5820205627E+00
    0.1900000000E+05    0.6706357479E+00    0.2115866920E-02    0.9787293519E-01    0.3969435733E-03    0.5824442846E+00
    0.2100000000E+05    0.6715277413E+00    0.2010836359E-02    0.9784415880E-01    0.3737217752E-03    0.5828030289E+00
    0.2300000000E+05    0.6722646107E+00    0.1920442610E-02    0.9781498806E-01    0.3540008424E-03    0.5831120333E+00
    0.2500000000E+05    0.6728835869E+00    0.1841551264E-02    0.9778591044E-01    0.3369913197E-03    0.5833819755E+00
    0.2700000000E+05    0.6734108741E+00    0.1771896041E-02    0.9775721519E-01    0.3221305553E-03    0.5836205835E+00
    0.2900000000E+05    0.6738654483E+00    0.1709792012E-02    0.9772907205E-01    0.3090057352E-03    0.5838336042E+00
    0.3100000000E+05    0.6742613886E+00    0.1653956711E-02    0.9770157699E-01    0.2973064655E-03    0.5840254096E+00
    0.3300000000E+05    0.6746093601E+00    0.1603394246E-02    0.9767477972E-01    0.2867944169E-03    0.5841993921E+00
    0.3500000000E+05    0.6749175894E+00    0.1557317769E-02    0.9764870059E-01    0.2772832454E-03    0.5843582291E+00
    0.3700000000E+05    0.6751925237E+00    0.1515096147E-02    0.9762334129E-01    0.2686249274E-03    0.5845040653E+00
    0.3900000000E+05    0.6754392873E+00    0.1476216385E-02    0.9759869175E-01    0.2607002290E-03    0.5846386419E+00
    0.4100000000E+05    0.6756620040E+00    0.1440256583E-02    0.9757473456E-01    0.2534119115E-03    0.5847633886E+00
    0.4300000000E+05    0.6758640301E+00    0.1406866094E-02    0.9755144790E-01    0.2466797932E-03    0.5848794922E+00
    0.4500000000E+05    0.6760481250E+00    0.1375750739E-02    0.9752880754E-01    0.2404370987E-03    0.5849879469E+00
    0.4700000000E+05    0.6762165781E+00    0.1346661597E-02    0.9750678810E-01    0.2346277165E-03    0.5850895930E+00
    0.4900000000E+05    0.6763713049E+00    0.1319386414E-02    0.9748536389E-01    0.2292041120E-03    0.5851851459E+00
    0.1000000000E+05    0.6622115835E+00    0.2965907732E-02    0.9795294514E-01    0.5962800298E-03    0.5795532721E+00
    0.3000000000E+05    0.6740700145E+00    0.1681158677E-02    0.9771523955E-01    0.3029942173E-03    0.5839319274E+00
    0.5000000000E+05    0.6764440356E+00    0.1306371080E-02    0.9747486702E-01    0.2266240629E-03    0.5852308327E+00
    0.7000000000E+05    0.6774631560E+00    0.1108076516E-02    0.9729045973E-01    0.1879568518E-03    0.5859363065E+00
    0.9000000000E+05    0.6780305171E+00    0.9802949113E-03    0.9714261841E-01    0.1636796152E-03    0.5864044080E+00
    0.1100000000E+06    0.6783923624E+00    0.8890808683E-03    0.9701950813E-01    0.1466607722E-03    0.5867484207E+00
    0.1300000000E+06    0.6786434260E+00    0.8197211456E-03    0.9691409388E-01    0.1338961955E-03    0.5870174306E+00
    0.1500000000E+06    0.6788279413E+00    0.7646580844E-03    0.9682193541E-01    0.1238737446E-03    0.5872367390E+00
    0.1700000000E+06    0.6789693425E+00    0.7195554213E-03    0.9674006803E-01    0.1157391791E-03    0.5874209469E+00
    0.1900000000E+06    0.6790812073E+00    0.6817223824E-03    0.9666641879E-01    0.1089689859E-03    0.5875791793E+00
    0.2100000000E+06    0.6791719478E+00    0.6493884516E-03    0.9659948301E-01    0.1032222465E-03    0.5877174889E+00
    0.2300000000E+06    0.6792470552E+00    0.6213342803E-03    0.9653813448E-01    0.9826623454E-04    0.5878400798E+00
    0.2500000000E+06    0.6793102665E+00    0.5966888619E-03    0.9648150858E-01    0.9393597857E-04    0.5879499816E+00
    0.2700000000E+06    0.6793642140E+00    0.5748111043E-03    0.9642892713E-01    0.9011087225E-04    0.5880494446E+00
    0.2900000000E+06    0.6794108053E+00    0.5552171917E-03    0.9637984845E-01    0.8670044534E-04    0.5881401824E+00
    0.3100000000E+06    0.6794514573E+00    0.5375341757E-03    0.9633383298E-01    0.8363533823E-04    0.5882235279E+00
    0.3300000000E+06    0.6794872440E+00    0.5214692849E-03    0.9629051916E-01    0.8086137198E-04    0.5883005369E+00
    0.3500000000E+06    0.6795189948E+00    0.5067890243E-03    0.9624960599E-01    0.7833553329E-04    0.5883720592E+00
    0.3700000000E+06    0.6795473604E+00    0.4933045733E-03    0.9621084020E-01    0.7602318442E-04    0.5884387879E+00
    0.3900000000E+06    0.6795728583E+00    0.4808613551E-03    0.9617400667E-01    0.7389607969E-04    0.5885012954E+00
    0.4100000000E+06    0.6795959056E+00    0.4693314374E-03    0.9613892112E-01    0.7193092702E-04    0.5885600597E+00
    0.4300000000E+06    0.6796168418E+00    0.4586078991E-03    0.9610542450E-01    0.7010832593E-04    0.5886154833E+00
    0.4500000000E+06    0.6796359465E+00    0.4486005881E-03    0.9607337854E-01    0.6841197088E-04    0.5886679088E+00
    0.4700000000E+06    0.6796534519E+00    0.4392328818E-03    0.9604266233E-01    0.6682804517E-04    0.5887176297E+00
    0.4900000000E+06    0.6796695522E+00    0.4304391814E-03    0.9601316947E-01    0.6534475365E-04    0.5887648990E+00
    0.1000000000E+06    0.6782294330E+00    0.9312798712E-03    0.9707849113E-01    0.1545018102E-03    0.5865880482E+00
    0.3000000000E+06    0.6794317999E+00    0.5461567166E-03    0.9635648200E-01    0.8512841445E-04    0.5881827076E+00
    0.5000000000E+06    0.6796771277E+00    0.4262396067E-03    0.9599885198E-01    0.6463762114E-04    0.5887876842E+00
    0.7000000000E+06    0.6797838824E+00    0.3620220092E-03    0.9575869712E-01    0.5392874721E-04    0.5891555897E+00
    0.9000000000E+06    0.6798439653E+00    0.3204500417E-03    0.9557752239E-01    0.4710826297E-04    0.5894177552E+00
    0.1100000000E+07    0.6798826437E+00    0.2907083007E-03    0.9543195341E-01    0.4228836466E-04    0.5896204644E+00
    0.1300000000E+07    0.6799097040E+00    0.2680641255E-03    0.9531024929E-01    0.3865485049E-04    0.5897852364E+00
    0.1500000000E+07    0.6799297419E+00    0.2500737121E-03    0.9520566713E-01    0.3579193229E-04    0.5899237744E+00
    0.1700000000E+07    0.6799452047E+00    0.2353303446E-03    0.9511397334E-01    0.3346242653E-04    0.5900431284E+00
    0.1900000000E+07    0.6799575170E+00    0.2229592261E-03    0.9503233431E-01    0.3151995912E-04    0.5901478649E+00
    0.2100000000E+07    0.6799675652E+00    0.2123838719E-03    0.9495875967E-01    0.2986870845E-04    0.5902411058E+00
    0.2300000000E+07    0.6799759301E+00    0.2032068215E-03    0.9489179758E-01    0.2844299589E-04    0.5903250773E+00
    0.2500000000E+07    0.6799830088E+00    0.1951439264E-03    0.9483035630E-01    0.2719611311E-04    0.5904014212E+00
    0.2700000000E+07    0.6799890816E+00    0.1879859106E-03    0.9477359415E-01    0.2609382278E-04    0.5904713820E+00
    0.2900000000E+07    0.6799943526E+00    0.1815747613E-03    0.9472084843E-01    0.2511038644E-04    0.5905359252E+00
    0.3100000000E+07    0.6799989737E+00    0.1757886267E-03    0.9467158807E-01    0.2422603534E-04    0.5905958142E+00
    0.3300000000E+07    0.6800030606E+00    0.1705318212E-03    0.9462538085E-01    0.2342530345E-04    0.5906516630E+00
    0.3500000000E+07    0.6800067028E+00    0.1657280126E-03    0.9458187033E-01    0.2269589564E-04    0.5907039726E+00
    0.3700000000E+07    0.6800099707E+00    0.1613154605E-03    0.9454075906E-01    0.2202789941E-04    0.5907531569E+00
    0.3900000000E+07    0.6800129205E+00    0.1572436129E-03    0.9450179629E-01    0.2141322328E-04    0.5907995619E+00
    0.4100000000E+07    0.6800155976E+00    0.1534706255E-03    0.9446476863E-01    0.2084518886E-04    0.5908434794E+00
    0.4300000000E+07    0.6800180390E+00    0.1499615220E-03    0.9442949299E-01    0.2031822916E-04    0.5908851581E+00
    0.4500000000E+07    0.6800202755E+00    0.1466868088E-03    0.9439581110E-01    0.1982766196E-04    0.5909248114E+00
    0.4700000000E+07    0.6800223323E+00    0.1436214166E-03    0.9436358524E-01    0.1936951721E-04    0.5909626236E+00
    0.4900000000E+07    0.6800242310E+00    0.1407438811E-03    0.9433269478E-01    0.1894040379E-04    0.5909987553E+00
    0.1000000000E+07    0.6798651863E+00    0.3044738076E-03    0.9550118369E-01    0.4451269592E-04    0.5895248696E+00
    0.3000000000E+07    0.6799967364E+00    0.1786100688E-03    0.9469581160E-01    0.2465687740E-04    0.5905664101E+00
    0.5000000000E+07    0.6800251267E+00    0.1393696772E-03    0.9431771664E-01    0.1873580634E-04    0.5910162356E+00
    0.7000000000E+07    0.6800379466E+00    0.1183573130E-03    0.9406804673E-01    0.1563556751E-04    0.5913041155E+00
    0.9000000000E+07    0.6800453770E+00    0.1047564627E-03    0.9388137165E-01    0.1365954553E-04    0.5915155086E+00
    0.1100000000E+08    0.6800502805E+00    0.9502715105E-04    0.9373224229E-01    0.1226259463E-04    0.5916823417E+00
    0.1300000000E+08    0.6800537863E+00    0.8762035771E-04    0.9360806810E-01    0.1120925778E-04    0.5918200215E+00
    0.1500000000E+08    0.6800564329E+00    0.8173626578E-04    0.9350169077E-01    0.1037919558E-04    0.5919371552E+00
    0.1700000000E+08    0.6800585114E+00    0.7691451410E-04    0.9340864861E-01    0.9703725312E-05    0.5920390362E+00
    0.1900000000E+08    0.6800601930E+00    0.7286883780E-04    0.9332597207E-01    0.9140445336E-05    0.5921291504E+00
    0.2100000000E+08    0.6800615858E+00    0.6941060343E-04    0.9325158459E-01    0.8661590918E-05    0.5922099145E+00
    0.2300000000E+08    0.6800627613E+00    0.6640976474E-04    0.9318397703E-01    0.8248127744E-05    0.5922830718E+00
    0.2500000000E+08    0.6800637689E+00    0.6377335566E-04    0.9312201807E-01    0.7886517300E-05    0.5923499210E+00
    0.2700000000E+08    0.6800646438E+00    0.6143291023E-04    0.9306483779E-01    0.7566834682E-05    0.5924114555E+00
