  Pressure (Pa) 22mC5-400 (mol/kg) 2mC6-400 (mol/kg) 3mC6-400 (mol/kg) 33mC5-400 (mol/kg) C7-400 (mol/kg)
    0.1000000000E+01    0.2645853129E-02    0.2386665304E-02    0.1057414513E-02    0.5829580624E-03    0.1715843380E-02
    0.3000000000E+01    0.7831959095E-02    0.7017012020E-02    0.3124553103E-02    0.1713924803E-02    0.5070468959E-02
    0.5000000000E+01    0.1288284060E-01    0.1146508685E-01    0.5130614795E-02    0.2800336072E-02    0.8326397532E-02
    0.7000000000E+01    0.1780481331E-01    0.1574034889E-01    0.7078445727E-02    0.3844500663E-02    0.1148822242E-01
    0.9000000000E+01    0.2260379427E-01    0.1985163335E-01    0.8970715345E-02    0.4848575184E-02    0.1456025196E-01
    0.1100000000E+02    0.2728533298E-01    0.2380720147E-01    0.1080992997E-01    0.5814576221E-02    0.1754653142E-01
    0.1300000000E+02    0.3185463949E-01    0.2761478569E-01    0.1259844513E-01    0.6744391359E-02    0.2045086282E-01
    0.1500000000E+02    0.3631661009E-01    0.3128163070E-01    0.1433847680E-01    0.7639789194E-02    0.2327682310E-01
    0.1700000000E+02    0.4067585060E-01    0.3481453072E-01    0.1603211162E-01    0.8502428429E-02    0.2602778057E-01
    0.1900000000E+02    0.4493669770E-01    0.3821986352E-01    0.1768131625E-01    0.9333866158E-02    0.2870691005E-01
    0.2100000000E+02    0.4910323833E-01    0.4150362130E-01    0.1928794594E-01    0.1013556542E-01    0.3131720656E-01
    0.2300000000E+02    0.5317932752E-01    0.4467143902E-01    0.2085375232E-01    0.1090890209E-01    0.3386149802E-01
    0.2500000000E+02    0.5716860466E-01    0.4772862022E-01    0.2238039061E-01    0.1165517118E-01    0.3634245678E-01
    0.2700000000E+02    0.6107450844E-01    0.5068016066E-01    0.2386942615E-01    0.1237559262E-01    0.3876261023E-01
    0.2900000000E+02    0.6490029057E-01    0.5353077000E-01    0.2532234052E-01    0.1307131653E-01    0.4112435058E-01
    0.3100000000E+02    0.6864902838E-01    0.5628489167E-01    0.2674053706E-01    0.1374342806E-01    0.4342994382E-01
    0.3300000000E+02    0.7232363643E-01    0.5894672115E-01    0.2812534600E-01    0.1439295187E-01    0.4568153800E-01
    0.3500000000E+02    0.7592687717E-01    0.6152022272E-01    0.2947802921E-01    0.1502085620E-01    0.4788117084E-01
    0.3700000000E+02    0.7946137083E-01    0.6400914499E-01    0.3079978454E-01    0.1562805667E-01    0.5003077678E-01
    0.3900000000E+02    0.8292960450E-01    0.6641703505E-01    0.3209174989E-01    0.1621541973E-01    0.5213219349E-01
    0.4100000000E+02    0.8633394056E-01    0.6874725171E-01    0.3335500688E-01    0.1678376586E-01    0.5418716789E-01
    0.4300000000E+02    0.8967662441E-01    0.7100297756E-01    0.3459058440E-01    0.1733387257E-01    0.5619736172E-01
    0.4500000000E+02    0.9295979175E-01    0.7318723023E-01    0.3579946171E-01    0.1786647708E-01    0.5816435669E-01
    0.4700000000E+02    0.9618547518E-01    0.7530287277E-01    0.3698257149E-01    0.1838227891E-01    0.6008965930E-01
    0.4900000000E+02    0.9935561046E-01    0.7735262322E-01    0.3814080255E-01    0.1888194217E-01    0.6197470529E-01
    0.1000000000E+02    0.2495891064E-01    0.2184838678E-01    0.9896803914E-02    0.5336214013E-02    0.1606386734E-01
    0.3000000000E+02    0.6678410417E-01    0.5491962397E-01    0.2603569373E-01    0.1341025843E-01    0.4228402867E-01
    0.5000000000E+02    0.1009204274E+00    0.7835360087E-01    0.3871085497E-01    0.1912592025E-01    0.6290256240E-01
    0.7000000000E+02    0.1297057638E+00    0.9547710494E-01    0.4899222576E-01    0.2329586632E-01    0.7964745626E-01
    0.9000000000E+02    0.1545830644E+00    0.1082787725E+00    0.5754451144E-01    0.2640617425E-01    0.9359268101E-01
    0.1100000000E+03    0.1764938566E+00    0.1180141133E+00    0.6480330563E-01    0.2876393555E-01    0.1054423150E+00
    0.1300000000E+03    0.1960806812E+00    0.1255111707E+00    0.7106652129E-01    0.3057183968E-01    0.1156780853E+00
    0.1500000000E+03    0.2137985895E+00    0.1313359014E+00    0.7654516542E-01    0.3196853764E-01    0.1246413239E+00
    0.1700000000E+03    0.2299800616E+00    0.1358867798E+00    0.8139312026E-01    0.3305173776E-01    0.1325810513E+00
    0.1900000000E+03    0.2448745874E+00    0.1394514723E+00    0.8572542044E-01    0.3389204574E-01    0.1396834925E+00
    0.2100000000E+03    0.2586737574E+00    0.1422421372E+00    0.8962990636E-01    0.3454158758E-01    0.1460909016E+00
    0.2300000000E+03    0.2715277075E+00    0.1444181545E+00    0.9317490091E-01    0.3503956423E-01    0.1519139654E+00
    0.2500000000E+03    0.2835562118E+00    0.1461011904E+00    0.9641441117E-01    0.3541593402E-01    0.1572402101E+00
    0.2700000000E+03    0.2948563571E+00    0.1473854340E+00    0.9939174133E-01    0.3569391642E-01    0.1621398414E+00
    0.2900000000E+03    0.3055079710E+00    0.1483447108E+00    0.1021420570E+00    0.3589173241E-01    0.1666698908E+00
    0.3100000000E+03    0.3155775391E+00    0.1490375228E+00    0.1046942413E+00    0.3602383832E-01    0.1708772173E+00
    0.3300000000E+03    0.3251210817E+00    0.1495106835E+00    0.1070722607E+00    0.3610181620E-01    0.1748007169E+00
    0.3500000000E+03    0.3341863009E+00    0.1498019807E+00    0.1092961873E+00    0.3613502639E-01    0.1784729765E+00
    0.3700000000E+03    0.3428142062E+00    0.1499421561E+00    0.1113829738E+00    0.3613109288E-01    0.1819215279E+00
    0.3900000000E+03    0.3510403620E+00    0.1499563944E+00    0.1133470484E+00    0.3609626889E-01    0.1851698113E+00
    0.4100000000E+03    0.3588958569E+00    0.1498654588E+00    0.1152007780E+00    0.3603571561E-01    0.1882379244E+00
    0.4300000000E+03    0.3664080643E+00    0.1496865643E+00    0.1169548314E+00    0.3595371689E-01    0.1911432114E+00
    0.4500000000E+03    0.3736012472E+00    0.1494340576E+00    0.1186184676E+00    0.3585384644E-01    0.1939007296E+00
    0.4700000000E+03    0.3804970421E+00    0.1491199501E+00    0.1201997671E+00    0.3573909906E-01    0.1965236235E+00
    0.4900000000E+03    0.3871148504E+00    0.1487543397E+00    0.1217058177E+00    0.3561199466E-01    0.1990234273E+00
    0.1000000000E+03    0.1658637152E+00    0.1134703600E+00    0.6131447872E-01    0.2766459337E-01    0.9974530608E-01
    0.3000000000E+03    0.3106117923E+00    0.1487212603E+00    0.1034413158E+00    0.3596521649E-01    0.1688112985E+00
    0.5000000000E+03    0.3903250412E+00    0.1485549376E+00    0.1224326062E+00    0.3554448695E-01    0.2002303959E+00
    0.7000000000E+03    0.4434118889E+00    0.1433477122E+00    0.1342053665E+00    0.3391662619E-01    0.2198418276E+00
    0.9000000000E+03    0.4814499017E+00    0.1376262537E+00    0.1425802092E+00    0.3221094117E-01    0.2338710700E+00
    0.1100000000E+04    0.5099088052E+00    0.1323240228E+00    0.1490099387E+00    0.3065647540E-01    0.2446929083E+00
    0.1300000000E+04    0.5318746642E+00    0.1275993968E+00    0.1541901086E+00    0.2928624839E-01    0.2534475155E+00
    0.1500000000E+04    0.5492512946E+00    0.1234197874E+00    0.1585041784E+00    0.2808537274E-01    0.2607650700E+00
    0.1700000000E+04    0.5632797797E+00    0.1197112680E+00    0.1621847816E+00    0.2702938405E-01    0.2670287701E+00
    0.1900000000E+04    0.5748018147E+00    0.1163997134E+00    0.1653831705E+00    0.2609475655E-01    0.2724882928E+00
    0.2100000000E+04    0.5844062766E+00    0.1134211276E+00    0.1682029776E+00    0.2526143403E-01    0.2773150467E+00
    0.2300000000E+04    0.5925159467E+00    0.1107228285E+00    0.1707181837E+00    0.2451298675E-01    0.2816316211E+00
    0.2500000000E+04    0.5994411540E+00    0.1082620930E+00    0.1729833728E+00    0.2383612334E-01    0.2855286213E+00
    0.2700000000E+04    0.6054141332E+00    0.1060043368E+00    0.1750399237E+00    0.2322010354E-01    0.2890748443E+00
    0.2900000000E+04    0.6106116755E+00    0.1039214488E+00    0.1769199225E+00    0.2265621319E-01    0.2923237191E+00
    0.3100000000E+04    0.6151704355E+00    0.1019904250E+00    0.1786487311E+00    0.2213733616E-01    0.2953175400E+00
    0.3300000000E+04    0.6191975033E+00    0.1001922909E+00    0.1802467297E+00    0.2165761754E-01    0.2980903403E+00
    0.3500000000E+04    0.6227778476E+00    0.9851126666E-01    0.1817305302E+00    0.2121220215E-01    0.3006698983E+00
    0.3700000000E+04    0.6259796495E+00    0.9693412151E-01    0.1831138442E+00    0.2079703237E-01    0.3030791709E+00
    0.3900000000E+04    0.6288581834E+00    0.9544967424E-01    0.1844081145E+00    0.2040869134E-01    0.3053373405E+00
    0.4100000000E+04    0.6314586846E+00    0.9404840463E-01    0.1856229850E+00    0.2004428094E-01    0.3074605927E+00
    0.4300000000E+04    0.6338184930E+00    0.9272214930E-01    0.1867666555E+00    0.1970132615E-01    0.3094627050E+00
    0.4500000000E+04    0.6359686778E+00    0.9146386185E-01    0.1878461530E+00    0.1937769961E-01    0.3113554975E+00
    0.4700000000E+04    0.6379352814E+00    0.9026742226E-01    0.1888675430E+00    0.1907156171E-01    0.3131491839E+00
    0.4900000000E+04    0.6397402821E+00    0.8912748435E-01    0.1898360955E+00    0.1878131254E-01    0.3148526468E+00
    0.1000000000E+04    0.4966471994E+00    0.1349051342E+00    0.1459844299E+00    0.3141079460E-01    0.2395948177E+00
    0.3000000000E+04    0.6129636167E+00    0.1029382234E+00    0.1778018513E+00    0.2239154011E-01    0.2938502175E+00
    0.5000000000E+04    0.6405881267E+00    0.8857721366E-01    0.1903020198E+00    0.1864170215E-01    0.3156730115E+00
    0.7000000000E+04    0.6523876770E+00    0.7964960077E-01    0.1977113021E+00    0.1642127801E-01    0.3288053413E+00
    0.9000000000E+04    0.6588412535E+00    0.7329220869E-01    0.2028104657E+00    0.1488947010E-01    0.3379518287E+00
    0.1100000000E+05    0.6628870174E+00    0.6842209854E-01    0.2066142312E+00    0.1374216762E-01    0.3448443330E+00
    0.1300000000E+05    0.6656523648E+00    0.6451540550E-01    0.2096002982E+00    0.1283742417E-01    0.3503038323E+00
    0.1500000000E+05    0.6676586780E+00    0.6127979101E-01    0.2120290291E+00    0.1209821270E-01    0.3547804299E+00
    0.1700000000E+05    0.6691791508E+00    0.5853606779E-01    0.2140567497E+00    0.1147835996E-01    0.3585457822E+00
    0.1900000000E+05    0.6703703712E+00    0.5616682550E-01    0.2157840479E+00    0.1094815562E-01    0.3617755080E+00
    0.2100000000E+05    0.6713283802E+00    0.5409118118E-01    0.2172791146E+00    0.1048743945E-01    0.3645891763E+00
    0.2300000000E+05    0.6721152878E+00    0.5225119385E-01    0.2185901051E+00    0.1008195353E-01    0.3670715624E+00
    0.2500000000E+05    0.6727730085E+00    0.5060403200E-01    0.2197521635E+00    0.9721273871E-02    0.3692847671E+00
    0.2700000000E+05    0.6733308355E+00    0.4911720410E-01    0.2207916423E+00    0.9397569036E-02    0.3712755204E+00
    0.2900000000E+05    0.6738098495E+00    0.4776552259E-01    0.2217287559E+00    0.9104819717E-02    0.3730797875E+00
    0.3100000000E+05    0.6742256030E+00    0.4652909860E-01    0.2225793125E+00    0.8838309063E-02    0.3747257841E+00
    0.3300000000E+05    0.6745898176E+00    0.4539197573E-01    0.2233558827E+00    0.8594278826E-02    0.3762360150E+00
    0.3500000000E+05    0.6749114935E+00    0.4434117408E-01    0.2240686084E+00    0.8369690883E-02    0.3776286901E+00
    0.3700000000E+05    0.6751976543E+00    0.4336600569E-01    0.2247257769E+00    0.8162057845E-02    0.3789187315E+00
    0.3900000000E+05    0.6754538610E+00    0.4245757434E-01    0.2253342375E+00    0.7969320185E-02    0.3801185048E+00
    0.4100000000E+05    0.6756845730E+00    0.4160840348E-01    0.2258997080E+00    0.7789755446E-02    0.3812383602E+00
    0.4300000000E+05    0.6758934080E+00    0.4081215507E-01    0.2264270050E+00    0.7621910048E-02    0.3822870390E+00
    0.4500000000E+05    0.6760833310E+00    0.4006341395E-01    0.2269202196E+00    0.7464547307E-02    0.3832719838E+00
    0.4700000000E+05    0.6762567953E+00    0.3935752055E-01    0.2273828525E+00    0.7316607287E-02    0.3841995783E+00
    0.4900000000E+05    0.6764158479E+00    0.3869043932E-01    0.2278179193E+00    0.7177175413E-02    0.3850753345E+00
    0.1000000000E+05    0.6610733214E+00    0.7071160636E-01    0.2048372062E+00    0.1427878819E-01    0.3416162372E+00
    0.3000000000E+05    0.6740248266E+00    0.4713398005E-01    0.2221640031E+00    0.8968538713E-02    0.3739210482E+00
    0.5000000000E+05    0.6764905187E+00    0.3837033666E-01    0.2280259462E+00    0.7110397760E-02    0.3854952947E+00
    0.7000000000E+05    0.6775301072E+00    0.3334981211E-01    0.2312228717E+00    0.6074225834E-02    0.3920626013E+00
    0.9000000000E+05    0.6781027861E+00    0.2996994857E-01    0.2332999403E+00    0.5388881673E-02    0.3964704870E+00
    0.1100000000E+06    0.6784653240E+00    0.2748690274E-01    0.2347826761E+00    0.4891980906E-02    0.3997076524E+00
    0.1300000000E+06    0.6787154296E+00    0.2555909241E-01    0.2359058884E+00    0.4510230628E-02    0.4022233744E+00
    0.1500000000E+06    0.6788983779E+00    0.2400402274E-01    0.2367923802E+00    0.4204977098E-02    0.4042560939E+00
    0.1700000000E+06    0.6790380162E+00    0.2271389316E-01    0.2375134217E+00    0.3953623343E-02    0.4059460307E+00
    0.1900000000E+06    0.6791480974E+00    0.2162027310E-01    0.2381135722E+00    0.3741949024E-02    0.4073819190E+00
    0.2100000000E+06    0.6792371095E+00    0.2067729967E-01    0.2386222978E+00    0.3560494316E-02    0.4086231002E+00
    0.2300000000E+06    0.6793105746E+00    0.1985290022E-01    0.2390599569E+00    0.3402686919E-02    0.4097110092E+00
    0.2500000000E+06    0.6793722400E+00    0.1912386496E-01    0.2394411207E+00    0.3263798300E-02    0.4106755994E+00
    0.2700000000E+06    0.6794247385E+00    0.1847291793E-01    0.2397765254E+00    0.3140327235E-02    0.4115391511E+00
    0.2900000000E+06    0.6794699736E+00    0.1788689279E-01    0.2400742758E+00    0.3029618082E-02    0.4123186376E+00
    0.3100000000E+06    0.6795093561E+00    0.1735555172E-01    0.2403406181E+00    0.2929614907E-02    0.4130272542E+00
    0.3300000000E+06    0.6795439534E+00    0.1687079528E-01    0.2405804526E+00    0.2838697759E-02    0.4136754401E+00
    0.3500000000E+06    0.6795745884E+00    0.1642611856E-01    0.2407976837E+00    0.2755570497E-02    0.4142715804E+00
    0.3700000000E+06    0.6796019053E+00    0.1601622781E-01    0.2409954645E+00    0.2679182000E-02    0.4148225003E+00
    0.3900000000E+06    0.6796264160E+00    0.1563676421E-01    0.2411763725E+00    0.2608669632E-02    0.4153338219E+00
    0.4100000000E+06    0.6796485321E+00    0.1528410107E-01    0.2413425374E+00    0.2543317874E-02    0.4158102244E+00
    0.4300000000E+06    0.6796685885E+00    0.1495519250E-01    0.2414957359E+00    0.2482527550E-02    0.4162556400E+00
    0.4500000000E+06    0.6796868604E+00    0.1464745866E-01    0.2416374629E+00    0.2425792570E-02    0.4166734006E+00
    0.4700000000E+06    0.6797035761E+00    0.1435869762E-01    0.2417689865E+00    0.2372682119E-02    0.4170663519E+00
    0.4900000000E+06    0.6797189264E+00    0.1408701686E-01    0.2418913899E+00    0.2322826846E-02    0.4174369412E+00
    0.1000000000E+06    0.6783023671E+00    0.2864299048E-01    0.2340971499E+00    0.5122620556E-02    0.3982002587E+00
    0.3000000000E+06    0.6794903230E+00    0.1761493576E-01    0.2402110399E+00    0.2978388200E-02    0.4126810970E+00
    0.5000000000E+06    0.6797261409E+00    0.1395706125E-01    0.2419494677E+00    0.2299018569E-02    0.4176145233E+00
    0.7000000000E+06    0.6798271472E+00    0.1195281815E-01    0.2428021622E+00    0.1935223953E-02    0.4203832597E+00
    0.9000000000E+06    0.6798832936E+00    0.1063810605E-01    0.2433097924E+00    0.1700306825E-02    0.4222376612E+00
    0.1100000000E+07    0.6799190568E+00    0.9689075887E-02    0.2436444759E+00    0.1532753391E-02    0.4236012212E+00
    0.1300000000E+07    0.6799438428E+00    0.8961735641E-02    0.2438794703E+00    0.1405582262E-02    0.4246638294E+00
    0.1500000000E+07    0.6799620399E+00    0.8380893636E-02    0.2440515907E+00    0.1304852667E-02    0.4255254540E+00
    0.1700000000E+07    0.6799759716E+00    0.7902898192E-02    0.2441814750E+00    0.1222541894E-02    0.4262445825E+00
    0.1900000000E+07    0.6799869831E+00    0.7500419516E-02    0.2442816300E+00    0.1153664300E-02    0.4268581051E+00
    0.2100000000E+07    0.6799959075E+00    0.7155347198E-02    0.2443600915E+00    0.1094937488E-02    0.4273906402E+00
    0.2300000000E+07    0.6800032882E+00    0.6855136382E-02    0.2444222636E+00    0.1044100849E-02    0.4278593561E+00
    0.2500000000E+07    0.6800094950E+00    0.6590782541E-02    0.2444719168E+00    0.9995401413E-03    0.4282766557E+00
    0.2700000000E+07    0.6800147881E+00    0.6355630594E-02    0.2445117617E+00    0.9600679098E-03    0.4286517630E+00
    0.2900000000E+07    0.6800193561E+00    0.6144640110E-02    0.2445437965E+00    0.9247886734E-03    0.4289917056E+00
    0.3100000000E+07    0.6800233389E+00    0.5953913456E-02    0.2445695266E+00    0.8930127321E-03    0.4293019492E+00
    0.3300000000E+07    0.6800268426E+00    0.5780382378E-02    0.2445901064E+00    0.8641991520E-03    0.4295868205E+00
    0.3500000000E+07    0.6800299491E+00    0.5621593723E-02    0.2446064357E+00    0.8379169323E-03    0.4298497973E+00
    0.3700000000E+07    0.6800327227E+00    0.5475559229E-02    0.2446192258E+00    0.8138178784E-03    0.4300937130E+00
    0.3900000000E+07    0.6800352142E+00    0.5340647881E-02    0.2446290456E+00    0.7916172279E-03    0.4303209040E+00
    0.4100000000E+07    0.6800374649E+00    0.5215507279E-02    0.2446363554E+00    0.7710795407E-03    0.4305333167E+00
    0.4300000000E+07    0.6800395082E+00    0.5099005192E-02    0.2446415312E+00    0.7520082431E-03    0.4307325887E+00
    0.4500000000E+07    0.6800413716E+00    0.4990185449E-02    0.2446448829E+00    0.7342377574E-03    0.4309201093E+00
    0.4700000000E+07    0.6800430781E+00    0.4888234178E-02    0.2446466677E+00    0.7176274952E-03    0.4310970664E+00
    0.4900000000E+07    0.6800446468E+00    0.4792453647E-02    0.2446471011E+00    0.7020572135E-03    0.4312644829E+00
    0.1000000000E+07    0.6799029588E+00    0.1012920255E-01    0.2434929291E+00    0.1610237892E-02    0.4229658998E+00
    0.3000000000E+07    0.6800214133E+00    0.6046952118E-02    0.2445573706E+00    0.9084995614E-03    0.4291502466E+00
    0.5000000000E+07    0.6800453845E+00    0.4746685985E-02    0.2446468688E+00    0.6946291424E-03    0.4313448952E+00
    0.7000000000E+07    0.6800557563E+00    0.4044716700E-02    0.2446031086E+00    0.5817265718E-03    0.4326163518E+00
    0.9000000000E+07    0.6800615669E+00    0.3588146433E-02    0.2445258253E+00    0.5094163442E-03    0.4334900007E+00
    0.1100000000E+08    0.6800652927E+00    0.3260448789E-02    0.2444400027E+00    0.4581258069E-03    0.4341463318E+00
    0.1300000000E+08    0.6800678904E+00    0.3010351445E-02    0.2443537822E+00    0.4193546127E-03    0.4346673469E+00
    0.1500000000E+08    0.6800698081E+00    0.2811275865E-02    0.2442700984E+00    0.3887412884E-03    0.4350967388E+00
    0.1700000000E+08    0.6800712839E+00    0.2647877456E-02    0.2441899787E+00    0.3637890771E-03    0.4354603539E+00
    0.1900000000E+08    0.6800724560E+00    0.2510591275E-02    0.2441136827E+00    0.3429528744E-03    0.4357746614E+00
    0.2100000000E+08    0.6800734103E+00    0.2393101777E-02    0.2440411481E+00    0.3252189172E-03    0.4360507559E+00
    0.2300000000E+08    0.6800742031E+00    0.2291047469E-02    0.2439721809E+00    0.3098910331E-03    0.4362964433E+00
    0.2500000000E+08    0.6800748726E+00    0.2201305822E-02    0.2439065398E+00    0.2964733293E-03    0.4365174093E+00
    0.2700000000E+08    0.6800754460E+00    0.2121574213E-02    0.2438439754E+00    0.2846018053E-03    0.4367179155E+00
