  Pressure (Pa) 22mC5-400 (mol/kg) 2mC6-400 (mol/kg) 3mC6-400 (mol/kg) 33mC5-400 (mol/kg) C7-400 (mol/kg)
    0.1000000000E+01    0.2651106272E-02    0.7911031249E-03    0.4720602362E-02    0.1288352552E-03    0.5106890626E-02
    0.3000000000E+01    0.7877830316E-02    0.2300907490E-02    0.1373567717E-01    0.3747921381E-03    0.1486183141E-01
    0.5000000000E+01    0.1300651783E-01    0.3720943424E-02    0.2222446007E-01    0.6062277106E-03    0.2405001172E-01
    0.7000000000E+01    0.1804019149E-01    0.5058533302E-02    0.3023215895E-01    0.8243284190E-03    0.3272003897E-01
    0.9000000000E+01    0.2298174851E-01    0.6320201194E-02    0.3779893577E-01    0.1030150994E-02    0.4091509947E-01
    0.1100000000E+02    0.2783396709E-01    0.7511780817E-02    0.4496059192E-01    0.1224640024E-02    0.4867369440E-01
    0.1300000000E+02    0.3259951242E-01    0.8638506306E-02    0.5174914480E-01    0.1408642732E-02    0.5603025897E-01
    0.1500000000E+02    0.3728094236E-01    0.9705088920E-02    0.5819331523E-01    0.1582921450E-02    0.6301568593E-01
    0.1700000000E+02    0.4188071274E-01    0.1071578216E-01    0.6431894143E-01    0.1748164225E-02    0.6965777018E-01
    0.1900000000E+02    0.4640118242E-01    0.1167443730E-01    0.7014933214E-01    0.1904993840E-02    0.7598158805E-01
    0.2100000000E+02    0.5084461799E-01    0.1258455095E-01    0.7570556903E-01    0.2053975557E-02    0.8200982213E-01
    0.2300000000E+02    0.5521319823E-01    0.1344930594E-01    0.8100676674E-01    0.2195623759E-02    0.8776304065E-01
    0.2500000000E+02    0.5950901832E-01    0.1427160664E-01    0.8607029731E-01    0.2330407691E-02    0.9325993855E-01
    0.2700000000E+02    0.6373409378E-01    0.1505410950E-01    0.9091198458E-01    0.2458756429E-02    0.9851754635E-01
    0.2900000000E+02    0.6789036427E-01    0.1579924965E-01    0.9554627305E-01    0.2581063195E-02    0.1035514116E+00
    0.3100000000E+02    0.7197969703E-01    0.1650926410E-01    0.9998637519E-01    0.2697689126E-02    0.1083757570E+00
    0.3300000000E+02    0.7600389032E-01    0.1718621201E-01    0.1042444002E+00    0.2808966569E-02    0.1130036191E+00
    0.3500000000E+02    0.7996467651E-01    0.1783199248E-01    0.1083314671E+00    0.2915201969E-02    0.1174469694E+00
    0.3700000000E+02    0.8386372511E-01    0.1844836028E-01    0.1122578037E+00    0.3016678413E-02    0.1217168212E+00
    0.3900000000E+02    0.8770264556E-01    0.1903693963E-01    0.1160328346E+00    0.3113657880E-02    0.1258233238E+00
    0.4100000000E+02    0.9148298994E-01    0.1959923648E-01    0.1196652587E+00    0.3206383222E-02    0.1297758457E+00
    0.4300000000E+02    0.9520625550E-01    0.2013664937E-01    0.1231631174E+00    0.3295079930E-02    0.1335830484E+00
    0.4500000000E+02    0.9887388702E-01    0.2065047910E-01    0.1265338562E+00    0.3379957700E-02    0.1372529521E+00
    0.4700000000E+02    0.1024872792E+00    0.2114193734E-01    0.1297843785E+00    0.3461211834E-02    0.1407929941E+00
    0.4900000000E+02    0.1060477786E+00    0.2161215440E-01    0.1329210946E+00    0.3539024484E-02    0.1442100809E+00
    0.1000000000E+02    0.2541885595E-01    0.6924411814E-02    0.4142832026E-01    0.1128757125E-02    0.4484671420E-01
    0.3000000000E+02    0.6994328389E-01    0.1615851494E-01    0.9778981612E-01    0.2640064854E-02    0.1059889332E+00
    0.5000000000E+02    0.1078086018E+00    0.2183963014E-01    0.1344486543E+00    0.3576693859E-02    0.1458745408E+00
    0.7000000000E+02    0.1405423233E+00    0.2549682199E-01    0.1602707584E+00    0.4185303596E-02    0.1740511790E+00
    0.9000000000E+02    0.1692252893E+00    0.2789406870E-01    0.1794845975E+00    0.4588965818E-02    0.1950770614E+00
    0.1100000000E+03    0.1946443355E+00    0.2946069467E-01    0.1943653030E+00    0.4856838334E-02    0.2114071902E+00
    0.1300000000E+03    0.2173865228E+00    0.3045796733E-01    0.2062472280E+00    0.5031055839E-02    0.2244828386E+00
    0.1500000000E+03    0.2378993728E+00    0.3105416504E-01    0.2159654450E+00    0.5138816506E-02    0.2352068806E+00
    0.1700000000E+03    0.2565305606E+00    0.3136232508E-01    0.2240697537E+00    0.5198447401E-02    0.2441743366E+00
    0.1900000000E+03    0.2735547746E+00    0.3146085384E-01    0.2309371938E+00    0.5222711215E-02    0.2517936549E+00
    0.2100000000E+03    0.2891923253E+00    0.3140551835E-01    0.2368351374E+00    0.5220728431E-02    0.2583547613E+00
    0.2300000000E+03    0.3036223105E+00    0.3123678285E-01    0.2419585756E+00    0.5199152878E-02    0.2640692986E+00
    0.2500000000E+03    0.3169921068E+00    0.3098448314E-01    0.2464531370E+00    0.5162920856E-02    0.2690954831E+00
    0.2700000000E+03    0.3294243294E+00    0.3067090568E-01    0.2504298316E+00    0.5115744913E-02    0.2735540357E+00
    0.2900000000E+03    0.3410220155E+00    0.3031287293E-01    0.2539747985E+00    0.5060448663E-02    0.2775387196E+00
    0.3100000000E+03    0.3518725395E+00    0.2992318934E-01    0.2571559284E+00    0.4999199313E-02    0.2811235043E+00
    0.3300000000E+03    0.3620506097E+00    0.2951166428E-01    0.2600274724E+00    0.4933672504E-02    0.2843675544E+00
    0.3500000000E+03    0.3716205883E+00    0.2908584840E-01    0.2626333183E+00    0.4865171257E-02    0.2873187770E+00
    0.3700000000E+03    0.3806383087E+00    0.2865157183E-01    0.2650093628E+00    0.4794713163E-02    0.2900163934E+00
    0.3900000000E+03    0.3891525134E+00    0.2821334266E-01    0.2671852595E+00    0.4723095151E-02    0.2924928336E+00
    0.4100000000E+03    0.3972060029E+00    0.2777464568E-01    0.2691857261E+00    0.4650942208E-02    0.2947751542E+00
    0.4300000000E+03    0.4048365611E+00    0.2733816846E-01    0.2710315350E+00    0.4578744408E-02    0.2968861145E+00
    0.4500000000E+03    0.4120777081E+00    0.2690597417E-01    0.2727402742E+00    0.4506885335E-02    0.2988450025E+00
    0.4700000000E+03    0.4189593169E+00    0.2647963471E-01    0.2743269380E+00    0.4435664086E-02    0.3006682766E+00
    0.4900000000E+03    0.4255081220E+00    0.2606033411E-01    0.2758043907E+00    0.4365312442E-02    0.3023700703E+00
    0.1000000000E+03    0.1823022599E+00    0.2876207914E-01    0.1873679078E+00    0.4736792351E-02    0.2037225355E+00
    0.3000000000E+03    0.3465357366E+00    0.3012131398E-01    0.2556071763E+00    0.5030453454E-02    0.2793771018E+00
    0.5000000000E+03    0.4286653251E+00    0.2585360758E-01    0.2765056924E+00    0.4330520124E-02    0.3031792929E+00
    0.7000000000E+03    0.4790615999E+00    0.2219775820E-01    0.2868322721E+00    0.3704912774E-02    0.3152266499E+00
    0.9000000000E+03    0.5131855070E+00    0.1941269454E-01    0.2930410892E+00    0.3216858765E-02    0.3226344469E+00
    0.1100000000E+04    0.5377598886E+00    0.1729242793E-01    0.2972042506E+00    0.2839588129E-02    0.3277087223E+00
    0.1300000000E+04    0.5562481700E+00    0.1564677071E-01    0.3001976201E+00    0.2543864185E-02    0.3314328192E+00
    0.1500000000E+04    0.5706269244E+00    0.1434074852E-01    0.3024571730E+00    0.2307738652E-02    0.3343003139E+00
    0.1700000000E+04    0.5821068470E+00    0.1328226504E-01    0.3042250920E+00    0.2115726663E-02    0.3365875942E+00
    0.1900000000E+04    0.5914699311E+00    0.1240814418E-01    0.3056469961E+00    0.1956952489E-02    0.3384621417E+00
    0.2100000000E+04    0.5992428922E+00    0.1167427772E-01    0.3068158595E+00    0.1823685980E-02    0.3400317005E+00
    0.2300000000E+04    0.6057928631E+00    0.1104922588E-01    0.3077939092E+00    0.1710339292E-02    0.3413689170E+00
    0.2500000000E+04    0.6113831817E+00    0.1051011116E-01    0.3086244084E+00    0.1612800418E-02    0.3425246654E+00
    0.2700000000E+04    0.6162073998E+00    0.1003995875E-01    0.3093383945E+00    0.1527990469E-02    0.3435357028E+00
    0.2900000000E+04    0.6204108037E+00    0.9625945012E-02    0.3099587279E+00    0.1453566288E-02    0.3444292923E+00
    0.3100000000E+04    0.6241044716E+00    0.9258221676E-02    0.3105026277E+00    0.1387717614E-02    0.3452261110E+00
    0.3300000000E+04    0.6273747133E+00    0.8929111471E-02    0.3109833174E+00    0.1329026437E-02    0.3459421453E+00
    0.3500000000E+04    0.6302895635E+00    0.8632547435E-02    0.3114111236E+00    0.1276367866E-02    0.3465899639E+00
    0.3700000000E+04    0.6329033436E+00    0.8363675301E-02    0.3117942314E+00    0.1228839143E-02    0.3471795944E+00
    0.3900000000E+04    0.6352599298E+00    0.8118566867E-02    0.3121392137E+00    0.1185708043E-02    0.3477191425E+00
    0.4100000000E+04    0.6373951328E+00    0.7894010246E-02    0.3124514109E+00    0.1146374846E-02    0.3482152362E+00
    0.4300000000E+04    0.6393384588E+00    0.7687354198E-02    0.3127352078E+00    0.1110343932E-02    0.3486733526E+00
    0.4500000000E+04    0.6411144307E+00    0.7496391093E-02    0.3129942387E+00    0.1077202312E-02    0.3490980601E+00
    0.4700000000E+04    0.6427435913E+00    0.7319267851E-02    0.3132315421E+00    0.1046603212E-02    0.3494932021E+00
    0.4900000000E+04    0.6442432754E+00    0.7154417417E-02    0.3134496781E+00    0.1018253389E-02    0.3498620370E+00
    0.1000000000E+04    0.5264022240E+00    0.1828269353E-01    0.2953085751E+00    0.3016358889E-02    0.3253850871E+00
    0.3000000000E+04    0.6223154673E+00    0.9436820230E-02    0.3102393268E+00    0.1419666506E-02    0.3448387062E+00
    0.5000000000E+04    0.6449492540E+00    0.7076169647E-02    0.3135522504E+00    0.1004842475E-02    0.3500374750E+00
    0.7000000000E+04    0.6549001029E+00    0.5916147398E-02    0.3149850693E+00    0.8100016243E-03    0.3526671469E+00
    0.9000000000E+04    0.6604719280E+00    0.5197919643E-02    0.3157654542E+00    0.6938065269E-03    0.3543238204E+00
    0.1100000000E+05    0.6640284164E+00    0.4697114783E-02    0.3162441987E+00    0.6151651953E-03    0.3554934089E+00
    0.1300000000E+05    0.6664937453E+00    0.4321890092E-02    0.3165596844E+00    0.5576375931E-03    0.3563788740E+00
    0.1500000000E+05    0.6683026052E+00    0.4026926139E-02    0.3167774489E+00    0.5132933074E-03    0.3570816231E+00
    0.1700000000E+05    0.6696860979E+00    0.3786962466E-02    0.3169324741E+00    0.4778035395E-03    0.3576586181E+00
    0.1900000000E+05    0.6707783399E+00    0.3586657242E-02    0.3170450868E+00    0.4485883467E-03    0.3581446246E+00
    0.2100000000E+05    0.6716624730E+00    0.3416079178E-02    0.3171278728E+00    0.4240056337E-03    0.3585622206E+00
    0.2300000000E+05    0.6723927650E+00    0.3268474906E-02    0.3171890201E+00    0.4029555396E-03    0.3589267946E+00
    0.2500000000E+05    0.6730061360E+00    0.3139068575E-02    0.3172340700E+00    0.3846707705E-03    0.3592492475E+00
    0.2700000000E+05    0.6735285736E+00    0.3024373259E-02    0.3172668966E+00    0.3685979409E-03    0.3595375495E+00
    0.2900000000E+05    0.6739788988E+00    0.2921774711E-02    0.3172902818E+00    0.3543267466E-03    0.3597976838E+00
    0.3100000000E+05    0.6743710758E+00    0.2829268638E-02    0.3173062698E+00    0.3415457779E-03    0.3600342433E+00
    0.3300000000E+05    0.6747156834E+00    0.2745288707E-02    0.3173163919E+00    0.3300139102E-03    0.3602508215E+00
    0.3500000000E+05    0.6750208818E+00    0.2668590438E-02    0.3173218152E+00    0.3195411826E-03    0.3604502776E+00
    0.3700000000E+05    0.6752930661E+00    0.2598170670E-02    0.3173234418E+00    0.3099756618E-03    0.3606349191E+00
    0.3900000000E+05    0.6755373191E+00    0.2533210409E-02    0.3173219785E+00    0.3011942003E-03    0.3608066329E+00
    0.4100000000E+05    0.6757577313E+00    0.2473033413E-02    0.3173179853E+00    0.2930957952E-03    0.3609669794E+00
    0.4300000000E+05    0.6759576319E+00    0.2417075638E-02    0.3173119104E+00    0.2855967262E-03    0.3611172620E+00
    0.4500000000E+05    0.6761397578E+00    0.2364862331E-02    0.3173041157E+00    0.2786269359E-03    0.3612585799E+00
    0.4700000000E+05    0.6763063796E+00    0.2315990597E-02    0.3172948961E+00    0.2721272949E-03    0.3613918674E+00
    0.4900000000E+05    0.6764593973E+00    0.2270115958E-02    0.3172844933E+00    0.2660475062E-03    0.3615179249E+00
    0.1000000000E+05    0.6624271940E+00    0.4927688859E-02    0.3160313406E+00    0.6511153617E-03    0.3549533237E+00
    0.3000000000E+05    0.6741815285E+00    0.2874366703E-02    0.3172990947E+00    0.3477664417E-03    0.3599186660E+00
    0.5000000000E+05    0.6765313150E+00    0.2248208247E-02    0.3172789120E+00    0.2631513463E-03    0.3615784619E+00
    0.7000000000E+05    0.6775382150E+00    0.1913142428E-02    0.3171389775E+00    0.2194490322E-03    0.3625364453E+00
    0.9000000000E+05    0.6780978074E+00    0.1696026988E-02    0.3169843799E+00    0.1917380026E-03    0.3631983293E+00
    0.1100000000E+06    0.6784541207E+00    0.1540515620E-02    0.3168354569E+00    0.1721945254E-03    0.3636994816E+00
    0.1300000000E+06    0.6787009696E+00    0.1421983827E-02    0.3166965468E+00    0.1574759202E-03    0.3641006175E+00
    0.1500000000E+06    0.6788821260E+00    0.1327717292E-02    0.3165679584E+00    0.1458842183E-03    0.3644338982E+00
    0.1700000000E+06    0.6790207629E+00    0.1250394696E-02    0.3164489112E+00    0.1364540088E-03    0.3647183056E+00
    0.1900000000E+06    0.6791302973E+00    0.1185460695E-02    0.3163383900E+00    0.1285907936E-03    0.3649659319E+00
    0.2100000000E+06    0.6792190361E+00    0.1129911574E-02    0.3162354091E+00    0.1219059702E-03    0.3651849319E+00
    0.2300000000E+06    0.6792923980E+00    0.1081675157E-02    0.3161390885E+00    0.1161334576E-03    0.3653810531E+00
    0.2500000000E+06    0.6793540684E+00    0.1039269147E-02    0.3160486652E+00    0.1110841685E-03    0.3655584917E+00
    0.2700000000E+06    0.6794066415E+00    0.1001601206E-02    0.3159634855E+00    0.1066195758E-03    0.3657204010E+00
    0.2900000000E+06    0.6794519964E+00    0.9678461206E-03    0.3158829897E+00    0.1026355789E-03    0.3658692077E+00
    0.3100000000E+06    0.6794915276E+00    0.9373671989E-03    0.3158066983E+00    0.9905224430E-04    0.3660068182E+00
    0.3300000000E+06    0.6795262918E+00    0.9096642232E-03    0.3157341987E+00    0.9580704777E-04    0.3661347559E+00
    0.3500000000E+06    0.6795571044E+00    0.8843379663E-03    0.3156651343E+00    0.9285029048E-04    0.3662542569E+00
    0.3700000000E+06    0.6795846049E+00    0.8610653749E-03    0.3155991951E+00    0.9014190760E-04    0.3663663373E+00
    0.3900000000E+06    0.6796093016E+00    0.8395818270E-03    0.3155361108E+00    0.8764919600E-04    0.3664718421E+00
    0.4100000000E+06    0.6796316037E+00    0.8196681957E-03    0.3154756438E+00    0.8534516405E-04    0.3665714817E+00
    0.4300000000E+06    0.6796518445E+00    0.8011412515E-03    0.3154175848E+00    0.8320731167E-04    0.3666658584E+00
    0.4500000000E+06    0.6796702981E+00    0.7838464307E-03    0.3153617484E+00    0.8121671425E-04    0.3667554872E+00
    0.4700000000E+06    0.6796871919E+00    0.7676523093E-03    0.3153079696E+00    0.7935732485E-04    0.3668408120E+00
    0.4900000000E+06    0.6797027164E+00    0.7524463265E-03    0.3152561012E+00    0.7761543576E-04    0.3669222178E+00
    0.1000000000E+06    0.6782937510E+00    0.1612513898E-02    0.3169087804E+00    0.1812104019E-03    0.3634642400E+00
    0.3000000000E+06    0.6794724173E+00    0.9522311224E-03    0.3158443456E+00    0.1007980826E-03    0.3659393096E+00
    0.5000000000E+06    0.6797100163E+00    0.7451830307E-03    0.3152308415E+00    0.7678480447E-04    0.3669615579E+00
    0.7000000000E+06    0.6798125007E+00    0.6339976531E-03    0.3148000329E+00    0.6418824304E-04    0.3676056538E+00
    0.9000000000E+06    0.6798697551E+00    0.5618946570E-03    0.3144672350E+00    0.5614789395E-04    0.3680745897E+00
    0.1100000000E+07    0.6799063730E+00    0.5102442138E-03    0.3141957258E+00    0.5045719737E-04    0.3684426331E+00
    0.1300000000E+07    0.6799318408E+00    0.4708800202E-03    0.3139662393E+00    0.4616216413E-04    0.3687451735E+00
    0.1500000000E+07    0.6799505972E+00    0.4395798645E-03    0.3137673950E+00    0.4277479253E-04    0.3690018085E+00
    0.1700000000E+07    0.6799649981E+00    0.4139108836E-03    0.3135919023E+00    0.4001634371E-04    0.3692245126E+00
    0.1900000000E+07    0.6799764105E+00    0.3923588868E-03    0.3134348059E+00    0.3771461842E-04    0.3694211312E+00
    0.2100000000E+07    0.6799856826E+00    0.3739253251E-03    0.3132925827E+00    0.3575679055E-04    0.3695970803E+00
    0.2300000000E+07    0.6799933686E+00    0.3579213171E-03    0.3131626372E+00    0.3406546830E-04    0.3697562539E+00
    0.2500000000E+07    0.6799998462E+00    0.3438541043E-03    0.3130430011E+00    0.3258557742E-04    0.3699015444E+00
    0.2700000000E+07    0.6800053818E+00    0.3313605908E-03    0.3129321463E+00    0.3127672496E-04    0.3700351584E+00
    0.2900000000E+07    0.6800101685E+00    0.3201665002E-03    0.3128288619E+00    0.3010852909E-04    0.3701588169E+00
    0.3100000000E+07    0.6800143500E+00    0.3100602380E-03    0.3127321726E+00    0.2905764370E-04    0.3702738881E+00
    0.3300000000E+07    0.6800180353E+00    0.3008755842E-03    0.3126412805E+00    0.2810579611E-04    0.3703814773E+00
    0.3500000000E+07    0.6800213085E+00    0.2924798925E-03    0.3125555248E+00    0.2723845426E-04    0.3704824900E+00
    0.3700000000E+07    0.6800242358E+00    0.2847658389E-03    0.3124743521E+00    0.2644389787E-04    0.3705776774E+00
    0.3900000000E+07    0.6800268698E+00    0.2776455211E-03    0.3123972941E+00    0.2571255653E-04    0.3706676694E+00
    0.4100000000E+07    0.6800292529E+00    0.2710461578E-03    0.3123239510E+00    0.2503652868E-04    0.3707529993E+00
    0.4300000000E+07    0.6800314198E+00    0.2649068971E-03    0.3122539786E+00    0.2440922574E-04    0.3708341226E+00
    0.4500000000E+07    0.6800333990E+00    0.2591764129E-03    0.3121870789E+00    0.2382510468E-04    0.3709114314E+00
    0.4700000000E+07    0.6800352141E+00    0.2538110674E-03    0.3121229916E+00    0.2327946433E-04    0.3709852655E+00
    0.4900000000E+07    0.6800368849E+00    0.2487734900E-03    0.3120614884E+00    0.2276828805E-04    0.3710559216E+00
    0.1000000000E+07    0.6798898734E+00    0.5341569515E-03    0.3143252765E+00    0.5308432126E-04    0.3682684885E+00
    0.3000000000E+07    0.6800123275E+00    0.3149886834E-03    0.3127797464E+00    0.2956966552E-04    0.3702173515E+00
    0.5000000000E+07    0.6800376715E+00    0.2463673707E-03    0.3120316419E+00    0.2252452511E-04    0.3710901405E+00
    0.7000000000E+07    0.6800487971E+00    0.2095457410E-03    0.3115318677E+00    0.1882757219E-04    0.3716569226E+00
    0.9000000000E+07    0.6800551009E+00    0.1856783151E-03    0.3111556206E+00    0.1646772511E-04    0.3720767837E+00
    0.1100000000E+08    0.6800591815E+00    0.1685865863E-03    0.3108536206E+00    0.1479756024E-04    0.3724101696E+00
    0.1300000000E+08    0.6800620499E+00    0.1555636514E-03    0.3106012611E+00    0.1353707826E-04    0.3726865661E+00
    0.1500000000E+08    0.6800641826E+00    0.1452105045E-03    0.3103844607E+00    0.1254303015E-04    0.3729225740E+00
    0.1700000000E+08    0.6800658343E+00    0.1367212724E-03    0.3101943989E+00    0.1173359033E-04    0.3731284648E+00
    0.1900000000E+08    0.6800671538E+00    0.1295945088E-03    0.3100251820E+00    0.1105820812E-04    0.3733110360E+00
    0.2100000000E+08    0.6800682338E+00    0.1234995964E-03    0.3098726750E+00    0.1048376268E-04    0.3734750186E+00
    0.2300000000E+08    0.6800691352E+00    0.1182084869E-03    0.3097338645E+00    0.9987535658E-05    0.3736238379E+00
    0.2500000000E+08    0.6800698999E+00    0.1135580808E-03    0.3096064861E+00    0.9553360446E-05    0.3737600530E+00
    0.2700000000E+08    0.6800705573E+00    0.1094282114E-03    0.3094887950E+00    0.9169380365E-05    0.3738856263E+00
