  Pressure (Pa) 22mC5-400 (mol/kg) 2mC6-400 (mol/kg) 3mC6-400 (mol/kg) 33mC5-400 (mol/kg) C7-400 (mol/kg)
    0.1000000000E+01    0.2644831772E-02    0.3170258507E-02    0.3684805554E-02    0.1935964772E-03    0.1708393494E-02
    0.3000000000E+01    0.7823100538E-02    0.9252896334E-02    0.1079635886E-01    0.5650781228E-03    0.5006060736E-02
    0.5000000000E+01    0.1285911226E-01    0.1501216470E-01    0.1758439878E-01    0.9168579673E-03    0.8154380832E-02
    0.7000000000E+01    0.1775994026E-01    0.2047065826E-01    0.2407156344E-01    0.1250311975E-02    0.1116378987E-01
    0.9000000000E+01    0.2253218265E-01    0.2564894848E-01    0.3027840391E-01    0.1566692829E-02    0.1404376253E-01
    0.1100000000E+02    0.2718200174E-01    0.3056580506E-01    0.3622362018E-01    0.1867143438E-02    0.1680292070E-01
    0.1300000000E+02    0.3171515950E-01    0.3523838885E-01    0.4192426568E-01    0.2152708691E-02    0.1944912772E-01
    0.1500000000E+02    0.3613704967E-01    0.3968242034E-01    0.4739592534E-01    0.2424345735E-02    0.2198957028E-01
    0.1700000000E+02    0.4045272685E-01    0.4391232738E-01    0.5265287090E-01    0.2682932979E-02    0.2443083002E-01
    0.1900000000E+02    0.4466693283E-01    0.4794137500E-01    0.5770819696E-01    0.2929278008E-02    0.2677894615E-01
    0.2100000000E+02    0.4878412053E-01    0.5178177993E-01    0.6257394037E-01    0.3164124559E-02    0.2903947045E-01
    0.2300000000E+02    0.5280847577E-01    0.5544481169E-01    0.6726118543E-01    0.3388158688E-02    0.3121751572E-01
    0.2500000000E+02    0.5674393713E-01    0.5894088233E-01    0.7178015671E-01    0.3602014231E-02    0.3331779852E-01
    0.2700000000E+02    0.6059421401E-01    0.6227962599E-01    0.7614030120E-01    0.3806277660E-02    0.3534467704E-01
    0.2900000000E+02    0.6436280318E-01    0.6546996990E-01    0.8035036119E-01    0.4001492404E-02    0.3730218464E-01
    0.3100000000E+02    0.6805300387E-01    0.6852019762E-01    0.8441843917E-01    0.4188162701E-02    0.3919405978E-01
    0.3300000000E+02    0.7166793166E-01    0.7143800565E-01    0.8835205555E-01    0.4366757051E-02    0.4102377257E-01
    0.3500000000E+02    0.7521053113E-01    0.7423055421E-01    0.9215820034E-01    0.4537711308E-02    0.4279454862E-01
    0.3700000000E+02    0.7868358755E-01    0.7690451275E-01    0.9584337931E-01    0.4701431447E-02    0.4450939029E-01
    0.3900000000E+02    0.8208973756E-01    0.7946610102E-01    0.9941365550E-01    0.4858296073E-02    0.4617109581E-01
    0.4100000000E+02    0.8543147909E-01    0.8192112594E-01    0.1028746864E+00    0.5008658662E-02    0.4778227645E-01
    0.4300000000E+02    0.8871118036E-01    0.8427501505E-01    0.1062317577E+00    0.5152849598E-02    0.4934537194E-01
    0.4500000000E+02    0.9193108837E-01    0.8653284669E-01    0.1094898131E+00    0.5291178013E-02    0.5086266448E-01
    0.4700000000E+02    0.9509333651E-01    0.8869937735E-01    0.1126534823E+00    0.5423933450E-02    0.5233629129E-01
    0.4900000000E+02    0.9819995184E-01    0.9077906649E-01    0.1157271051E+00    0.5551387377E-02    0.5376825605E-01
    0.1000000000E+02    0.2487202600E-01    0.2813894780E-01    0.3328261285E-01    0.1718841939E-02    0.1543793520E-01
    0.3000000000E+02    0.6621750321E-01    0.6701210412E-01    0.8240166490E-01    0.4095865527E-02    0.3825610339E-01
    0.5000000000E+02    0.9973300319E-01    0.9178766346E-01    0.1172314318E+00    0.5613206506E-02    0.5446920736E-01
    0.7000000000E+02    0.1278947459E+00    0.1082910007E+00    0.1434576570E+00    0.6625477597E-02    0.6670139532E-01
    0.9000000000E+02    0.1521959938E+00    0.1195906805E+00    0.1640731682E+00    0.7319510925E-02    0.7633491203E-01
    0.1100000000E+03    0.1735940080E+00    0.1274466968E+00    0.1808090224E+00    0.7802519617E-02    0.8416978701E-01
    0.1300000000E+03    0.1927330814E+00    0.1329345062E+00    0.1947392225E+00    0.8140068705E-02    0.9070270818E-01
    0.1500000000E+03    0.2100644888E+00    0.1367443375E+00    0.2065673276E+00    0.8374282196E-02    0.9625925439E-01
    0.1700000000E+03    0.2259150069E+00    0.1393368809E+00    0.2167746616E+00    0.8533312385E-02    0.1010623027E+00
    0.1900000000E+03    0.2405280471E+00    0.1410296116E+00    0.2257023960E+00    0.8636590057E-02    0.1052699301E+00
    0.2100000000E+03    0.2540893971E+00    0.1420471927E+00    0.2335996060E+00    0.8697890345E-02    0.1089976123E+00
    0.2300000000E+03    0.2667439096E+00    0.1425521950E+00    0.2406527291E+00    0.8727201614E-02    0.1123318373E+00
    0.2500000000E+03    0.2786066580E+00    0.1426645073E+00    0.2470043351E+00    0.8731906748E-02    0.1153387821E+00
    0.2700000000E+03    0.2897705929E+00    0.1424739878E+00    0.2527654873E+00    0.8717553337E-02    0.1180700294E+00
    0.2900000000E+03    0.3003119217E+00    0.1420489321E+00    0.2580241185E+00    0.8688369502E-02    0.1205664430E+00
    0.3100000000E+03    0.3102939665E+00    0.1414418767E+00    0.2628508504E+00    0.8647617581E-02    0.1228608610E+00
    0.3300000000E+03    0.3197699832E+00    0.1406936582E+00    0.2673031263E+00    0.8597841723E-02    0.1249800085E+00
    0.3500000000E+03    0.3287852556E+00    0.1398363059E+00    0.2714282032E+00    0.8541044437E-02    0.1269458843E+00
    0.3700000000E+03    0.3373786735E+00    0.1388951361E+00    0.2752653569E+00    0.8478814577E-02    0.1287767819E+00
    0.3900000000E+03    0.3455839402E+00    0.1378902920E+00    0.2788475324E+00    0.8412421511E-02    0.1304880545E+00
    0.4100000000E+03    0.3534305061E+00    0.1368378904E+00    0.2822025966E+00    0.8342885339E-02    0.1320926959E+00
    0.4300000000E+03    0.3609443006E+00    0.1357508860E+00    0.2853543018E+00    0.8271029903E-02    0.1336017875E+00
    0.4500000000E+03    0.3681483102E+00    0.1346397305E+00    0.2883230352E+00    0.8197523238E-02    0.1350248458E+00
    0.4700000000E+03    0.3750630417E+00    0.1335128796E+00    0.2911264084E+00    0.8122908778E-02    0.1363700959E+00
    0.4900000000E+03    0.3817068947E+00    0.1323771871E+00    0.2937797257E+00    0.8047629623E-02    0.1376446891E+00
    0.1000000000E+03    0.1632120423E+00    0.1238703668E+00    0.1728478278E+00    0.7582591952E-02    0.8044101094E-01
    0.3000000000E+03    0.3053693176E+00    0.1417653663E+00    0.2604876124E+00    0.8669266061E-02    0.1217371062E+00
    0.5000000000E+03    0.3849324915E+00    0.1318078064E+00    0.2950543589E+00    0.8009856597E-02    0.1382574743E+00
    0.7000000000E+03    0.4385314432E+00    0.1208467840E+00    0.3151747408E+00    0.7278250544E-02    0.1479762966E+00
    0.9000000000E+03    0.4772163019E+00    0.1114703829E+00    0.3288754132E+00    0.6646011873E-02    0.1546519917E+00
    0.1100000000E+04    0.5062899723E+00    0.1037322639E+00    0.3390366947E+00    0.6120710916E-02    0.1596401709E+00
    0.1300000000E+04    0.5287915939E+00    0.9733625767E-01    0.3469899349E+00    0.5684989683E-02    0.1635702373E+00
    0.1500000000E+04    0.5466198066E+00    0.9199088115E-01    0.3534502705E+00    0.5320493411E-02    0.1667816293E+00
    0.1700000000E+04    0.5610241662E+00    0.8746422937E-01    0.3588423642E+00    0.5012129910E-02    0.1694766448E+00
    0.1900000000E+04    0.5728581120E+00    0.8358076872E-01    0.3634372016E+00    0.4748223552E-02    0.1717848036E+00
    0.2100000000E+04    0.5827218385E+00    0.8020881889E-01    0.3674173381E+00    0.4519873554E-02    0.1737936289E+00
    0.2300000000E+04    0.5910478872E+00    0.7724909101E-01    0.3709110780E+00    0.4320285277E-02    0.1755648115E+00
    0.2500000000E+04    0.5981546259E+00    0.7462593383E-01    0.3740117184E+00    0.4144231777E-02    0.1771433315E+00
    0.2700000000E+04    0.6042807764E+00    0.7228099084E-01    0.3767890242E+00    0.3987650833E-02    0.1785629098E+00
    0.2900000000E+04    0.6096083220E+00    0.7016866962E-01    0.3792963975E+00    0.3847350417E-02    0.1798494213E+00
    0.3100000000E+04    0.6142780653E+00    0.6825290392E-01    0.3815755348E+00    0.3720794414E-02    0.1810231160E+00
    0.3300000000E+04    0.6184004148E+00    0.6650482311E-01    0.3836595530E+00    0.3605946186E-02    0.1821001128E+00
    0.3500000000E+04    0.6220630042E+00    0.6490105788E-01    0.3855751481E+00    0.3501153498E-02    0.1830934333E+00
    0.3700000000E+04    0.6253361642E+00    0.6342249462E-01    0.3873441214E+00    0.3405063086E-02    0.1840137332E+00
    0.3900000000E+04    0.6282769128E+00    0.6205334892E-01    0.3889844837E+00    0.3316556592E-02    0.1848698332E+00
    0.4100000000E+04    0.6309319071E+00    0.6078046868E-01    0.3905112671E+00    0.3234702038E-02    0.1856691092E+00
    0.4300000000E+04    0.6333396528E+00    0.5959280399E-01    0.3919371339E+00    0.3158716689E-02    0.1864177858E+00
    0.4500000000E+04    0.6355321810E+00    0.5848099950E-01    0.3932728388E+00    0.3087938375E-02    0.1871211594E+00
    0.4700000000E+04    0.6375363313E+00    0.5743707800E-01    0.3945275855E+00    0.3021803108E-02    0.1877837705E+00
    0.4900000000E+04    0.6393747464E+00    0.5645419220E-01    0.3957093041E+00    0.2959827494E-02    0.1884095380E+00
    0.1000000000E+04    0.4927294442E+00    0.1074136195E+00    0.3342947006E+00    0.6370944756E-02    0.1573080168E+00
    0.3000000000E+04    0.6120179079E+00    0.6918816796E-01    0.3804622538E+00    0.3782491843E-02    0.1804492804E+00
    0.5000000000E+04    0.6402379264E+00    0.5598375773E-01    0.3962749628E+00    0.2930267034E-02    0.1887096867E+00
    0.7000000000E+04    0.6522237782E+00    0.4869272435E-01    0.4050270668E+00    0.2481162229E-02    0.1934103478E+00
    0.9000000000E+04    0.6587540610E+00    0.4385165843E-01    0.4107886523E+00    0.2192960374E-02    0.1965746678E+00
    0.1100000000E+05    0.6628370460E+00    0.4031318840E-01    0.4149508226E+00    0.1987581496E-02    0.1989047184E+00
    0.1300000000E+05    0.6656225028E+00    0.3756985115E-01    0.4181385774E+00    0.1831448443E-02    0.2007198033E+00
    0.1500000000E+05    0.6676405237E+00    0.3535637548E-01    0.4206805188E+00    0.1707437987E-02    0.2021895807E+00
    0.1700000000E+05    0.6691681919E+00    0.3351810008E-01    0.4227683043E+00    0.1605775832E-02    0.2034139397E+00
    0.1900000000E+05    0.6703640154E+00    0.3195763027E-01    0.4245223211E+00    0.1520417136E-02    0.2044561645E+00
    0.2100000000E+05    0.6713250583E+00    0.3061001113E-01    0.4260225291E+00    0.1447392684E-02    0.2053586222E+00
    0.2300000000E+05    0.6721140100E+00    0.2942995315E-01    0.4273244057E+00    0.1383972099E-02    0.2061509258E+00
    0.2500000000E+05    0.6727731290E+00    0.2838473752E-01    0.4284678161E+00    0.1328206084E-02    0.2068545028E+00
    0.2700000000E+05    0.6733319212E+00    0.2745003099E-01    0.4294822457E+00    0.1278660044E-02    0.2074853064E+00
    0.2900000000E+05    0.6738116036E+00    0.2660729390E-01    0.4303900359E+00    0.1234251122E-02    0.2080555002E+00
    0.3100000000E+05    0.6742278180E+00    0.2584210864E-01    0.4312084663E+00    0.1194144270E-02    0.2085745481E+00
    0.3300000000E+05    0.6745923465E+00    0.2514306455E-01    0.4319511400E+00    0.1157683608E-02    0.2090499432E+00
    0.3500000000E+05    0.6749142305E+00    0.2450099219E-01    0.4326289314E+00    0.1124345719E-02    0.2094877088E+00
    0.3700000000E+05    0.6752005229E+00    0.2390842413E-01    0.4332506524E+00    0.1093707042E-02    0.2098927513E+00
    0.3900000000E+05    0.6754568052E+00    0.2335920691E-01    0.4338235286E+00    0.1065420579E-02    0.2102691149E+00
    0.4100000000E+05    0.6756875519E+00    0.2284821637E-01    0.4343535491E+00    0.1039198931E-02    0.2106201679E+00
    0.4300000000E+05    0.6758963913E+00    0.2237114513E-01    0.4348457255E+00    0.1014801723E-02    0.2109487427E+00
    0.4500000000E+05    0.6760862965E+00    0.2192434161E-01    0.4353042875E+00    0.9920261274E-03    0.2112572410E+00
    0.4700000000E+05    0.6762597267E+00    0.2150468633E-01    0.4357328335E+00    0.9706996302E-03    0.2115477152E+00
    0.4900000000E+05    0.6764187334E+00    0.2110949570E-01    0.4361344462E+00    0.9506744317E-03    0.2118219313E+00
    0.1000000000E+05    0.6610077714E+00    0.4195950885E-01    0.4130206294E+00    0.2082577836E-02    0.1978190025E+00
    0.3000000000E+05    0.6740268328E+00    0.2621578062E-01    0.4308094975E+00    0.1213704498E-02    0.2083209096E+00
    0.5000000000E+05    0.6764933779E+00    0.2092033622E-01    0.4363259979E+00    0.9411092913E-03    0.2119534286E+00
    0.7000000000E+05    0.6775323058E+00    0.1799243033E-01    0.4392306120E+00    0.7947345444E-03    0.2140125419E+00
    0.9000000000E+05    0.6781044164E+00    0.1606046795E-01    0.4410779276E+00    0.6999339184E-03    0.2154025021E+00
    0.1100000000E+06    0.6784665378E+00    0.1465996066E-01    0.4423769052E+00    0.6321460131E-03    0.2164312462E+00
    0.1300000000E+06    0.6787163378E+00    0.1358312871E-01    0.4433495586E+00    0.5805856388E-03    0.2172374627E+00
    0.1500000000E+06    0.6788990564E+00    0.1272096269E-01    0.4441100165E+00    0.5396713889E-03    0.2178944453E+00
    0.1700000000E+06    0.6790385175E+00    0.1200994134E-01    0.4447236429E+00    0.5061859901E-03    0.2184452227E+00
    0.1900000000E+06    0.6791484589E+00    0.1141017200E-01    0.4452308710E+00    0.4781269939E-03    0.2189170188E+00
    0.2100000000E+06    0.6792373582E+00    0.1089515050E-01    0.4456582022E+00    0.4541741543E-03    0.2193280536E+00
    0.2300000000E+06    0.6793107308E+00    0.1044647668E-01    0.4460238089E+00    0.4334170100E-03    0.2196910671E+00
    0.2500000000E+06    0.6793723191E+00    0.1005091741E-01    0.4463406132E+00    0.4152046353E-03    0.2200152859E+00
    0.2700000000E+06    0.6794247524E+00    0.9698675485E-02    0.4466180809E+00    0.3990576697E-03    0.2203075875E+00
    0.2900000000E+06    0.6794699318E+00    0.9382319313E-02    0.4468633216E+00    0.3846142471E-03    0.2205732237E+00
    0.3100000000E+06    0.6795092662E+00    0.9096094290E-02    0.4470817891E+00    0.3715953932E-03    0.2208162875E+00
    0.3300000000E+06    0.6795438215E+00    0.8835464667E-02    0.4472777442E+00    0.3597821146E-03    0.2210400252E+00
    0.3500000000E+06    0.6795744195E+00    0.8596799850E-02    0.4474545685E+00    0.3489997801E-03    0.2212470513E+00
    0.3700000000E+06    0.6796017037E+00    0.8377154176E-02    0.4476149834E+00    0.3391072014E-03    0.2214394999E+00
    0.3900000000E+06    0.6796261851E+00    0.8174108919E-02    0.4477612062E+00    0.3299888280E-03    0.2216191332E+00
    0.4100000000E+06    0.6796482750E+00    0.7985656727E-02    0.4478950634E+00    0.3215490586E-03    0.2217874224E+00
    0.4300000000E+06    0.6796683077E+00    0.7810115643E-02    0.4480180741E+00    0.3137080230E-03    0.2219456069E+00
    0.4500000000E+06    0.6796865580E+00    0.7646064140E-02    0.4481315134E+00    0.3063984044E-03    0.2220947397E+00
    0.4700000000E+06    0.6797032541E+00    0.7492291365E-02    0.4482364600E+00    0.2995630130E-03    0.2222357229E+00
    0.4900000000E+06    0.6797185864E+00    0.7347758540E-02    0.4483338331E+00    0.2931529091E-03    0.2223693340E+00
    0.1000000000E+06    0.6783037727E+00    0.1531009661E-01    0.4417784215E+00    0.6635137358E-03    0.2159511584E+00
    0.3000000000E+06    0.6794902563E+00    0.9235748229E-02    0.4469756120E+00    0.3779416311E-03    0.2206973573E+00
    0.5000000000E+06    0.6797257924E+00    0.7278671954E-02    0.4483799305E+00    0.2900939338E-03    0.2224335895E+00
    0.7000000000E+06    0.6798266805E+00    0.6217122421E-02    0.4490476075E+00    0.2435225278E-03    0.2234569085E+00
    0.9000000000E+06    0.6798827597E+00    0.5524664957E-02    0.4494342372E+00    0.2136145618E-03    0.2241687054E+00
    0.1100000000E+07    0.6799184777E+00    0.5026630676E-02    0.4496822088E+00    0.1923588827E-03    0.2247085432E+00
    0.1300000000E+07    0.6799432304E+00    0.4645926154E-02    0.4498513331E+00    0.1762669033E-03    0.2251404106E+00
    0.1500000000E+07    0.6799614013E+00    0.4342497401E-02    0.4499713455E+00    0.1635450450E-03    0.2254986580E+00
    0.1700000000E+07    0.6799753114E+00    0.4093179183E-02    0.4500587581E+00    0.1531649157E-03    0.2258037344E+00
    0.1900000000E+07    0.6799863045E+00    0.3883510780E-02    0.4501234911E+00    0.1444892570E-03    0.2260687417E+00
    0.2100000000E+07    0.6799952129E+00    0.3703932472E-02    0.4501718667E+00    0.1370994847E-03    0.2263025497E+00
    0.2300000000E+07    0.6800025794E+00    0.3547835457E-02    0.4502081039E+00    0.1307078674E-03    0.2265114261E+00
    0.2500000000E+07    0.6800087734E+00    0.3410483959E-02    0.4502351238E+00    0.1251092741E-03    0.2266999549E+00
    0.2700000000E+07    0.6800140548E+00    0.3288382883E-02    0.4502550109E+00    0.1201530166E-03    0.2268715840E+00
    0.2900000000E+07    0.6800186121E+00    0.3178888417E-02    0.4502692907E+00    0.1157255945E-03    0.2270289691E+00
    0.3100000000E+07    0.6800225850E+00    0.3079958419E-02    0.4502791037E+00    0.1117396817E-03    0.2271741961E+00
    0.3300000000E+07    0.6800260794E+00    0.2989986862E-02    0.4502853184E+00    0.1081268520E-03    0.2273089323E+00
    0.3500000000E+07    0.6800291773E+00    0.2907690805E-02    0.4502886065E+00    0.1048326305E-03    0.2274345299E+00
    0.3700000000E+07    0.6800319426E+00    0.2832031250E-02    0.4502894951E+00    0.1018130417E-03    0.2275521003E+00
    0.3900000000E+07    0.6800344264E+00    0.2762156489E-02    0.4502884025E+00    0.9903214522E-04    0.2276625670E+00
    0.4100000000E+07    0.6800366697E+00    0.2697360764E-02    0.4502856645E+00    0.9646024436E-04    0.2277667059E+00
    0.4300000000E+07    0.6800387061E+00    0.2637053563E-02    0.4502815534E+00    0.9407255854E-04    0.2278651744E+00
    0.4500000000E+07    0.6800405628E+00    0.2580736470E-02    0.4502762915E+00    0.9184822544E-04    0.2279585342E+00
    0.4700000000E+07    0.6800422629E+00    0.2527985456E-02    0.4502700621E+00    0.8976953974E-04    0.2280472690E+00
    0.4900000000E+07    0.6800438254E+00    0.2478437170E-02    0.4502630172E+00    0.8782136502E-04    0.2281317982E+00
    0.1000000000E+07    0.6799024004E+00    0.5257416238E-02    0.4495707860E+00    0.2021807844E-03    0.2244551279E+00
    0.3000000000E+07    0.6800206643E+00    0.3128211932E-02    0.4502746959E+00    0.1136821022E-03    0.2271029897E+00
    0.5000000000E+07    0.6800445602E+00    0.2454764403E-02    0.4502592295E+00    0.8689207638E-04    0.2281726018E+00
    0.7000000000E+07    0.6800548818E+00    0.2091931720E-02    0.4501625557E+00    0.7277644248E-04    0.2288363305E+00
    0.9000000000E+07    0.6800606538E+00    0.1856166083E-02    0.4500527729E+00    0.6374372335E-04    0.2293143557E+00
    0.1100000000E+08    0.6800643482E+00    0.1687037325E-02    0.4499447676E+00    0.5733967087E-04    0.2296864654E+00
    0.1300000000E+08    0.6800669190E+00    0.1557999173E-02    0.4498423685E+00    0.5250002791E-04    0.2299903614E+00
    0.1500000000E+08    0.6800688132E+00    0.1455305124E-02    0.4497463335E+00    0.4867926130E-04    0.2302467718E+00
    0.1700000000E+08    0.6800702679E+00    0.1371024791E-02    0.4496564635E+00    0.4556528687E-04    0.2304682830E+00
    0.1900000000E+08    0.6800714211E+00    0.1300217521E-02    0.4495722707E+00    0.4296506763E-04    0.2306630966E+00
    0.2100000000E+08    0.6800723581E+00    0.1239622452E-02    0.4494932098E+00    0.4075199610E-04    0.2308368470E+00
    0.2300000000E+08    0.6800731349E+00    0.1186988375E-02    0.4494187597E+00    0.3883915285E-04    0.2309935682E+00
    0.2500000000E+08    0.6800737895E+00    0.1140703993E-02    0.4493484493E+00    0.3716463774E-04    0.2311362447E+00
    0.2700000000E+08    0.6800743490E+00    0.1099581345E-02    0.4492818629E+00    0.3568302211E-04    0.2312671454E+00
