  Pressure (Pa) 22mC5-400 (mol/kg) 2mC6-400 (mol/kg) 3mC6-400 (mol/kg) 33mC5-400 (mol/kg) C7-400 (mol/kg)
    0.1000000000E+01    0.2646693646E-02    0.2376817122E-02    0.3155734413E-02    0.2580381622E-03    0.3413915612E-02
    0.3000000000E+01    0.7839270048E-02    0.6932198319E-02    0.9231074285E-02    0.7526677235E-03    0.9987444986E-02
    0.5000000000E+01    0.1290247835E-01    0.1123942419E-01    0.1501140302E-01    0.1220452192E-02    0.1624322810E-01
    0.7000000000E+01    0.1784205206E-01    0.1531629482E-01    0.2051845063E-01    0.1663316985E-02    0.2220463551E-01
    0.9000000000E+01    0.2266338133E-01    0.1917895618E-01    0.2577184657E-01    0.2083008385E-02    0.2789278034E-01
    0.1100000000E+02    0.2737153824E-01    0.2284208966E-01    0.3078936820E-01    0.2481114086E-02    0.3332678510E-01
    0.1300000000E+02    0.3197129998E-01    0.2631907586E-01    0.3558715474E-01    0.2859080955E-02    0.3852401166E-01
    0.1500000000E+02    0.3646717001E-01    0.2962213666E-01    0.4017989222E-01    0.3218230426E-02    0.4350025982E-01
    0.1700000000E+02    0.4086339739E-01    0.3276245892E-01    0.4458097394E-01    0.3559771910E-02    0.4826993978E-01
    0.1900000000E+02    0.4516399454E-01    0.3575030251E-01    0.4880264004E-01    0.3884814500E-02    0.5284622204E-01
    0.2100000000E+02    0.4937275355E-01    0.3859509495E-01    0.5285609943E-01    0.4194377225E-02    0.5724116844E-01
    0.2300000000E+02    0.5349326113E-01    0.4130551461E-01    0.5675163648E-01    0.4489398062E-02    0.6146584679E-01
    0.2500000000E+02    0.5752891234E-01    0.4388956401E-01    0.6049870475E-01    0.4770741881E-02    0.6553043159E-01
    0.2700000000E+02    0.6148292331E-01    0.4635463464E-01    0.6410600952E-01    0.5039207457E-02    0.6944429274E-01
    0.2900000000E+02    0.6535834290E-01    0.4870756439E-01    0.6758158070E-01    0.5295533695E-02    0.7321607385E-01
    0.3100000000E+02    0.6915806346E-01    0.5095468854E-01    0.7093283729E-01    0.5540405150E-02    0.7685376156E-01
    0.3300000000E+02    0.7288483084E-01    0.5310188523E-01    0.7416664466E-01    0.5774456949E-02    0.8036474710E-01
    0.3500000000E+02    0.7654125354E-01    0.5515461601E-01    0.7728936544E-01    0.5998279177E-02    0.8375588095E-01
    0.3700000000E+02    0.8012981127E-01    0.5711796212E-01    0.8030690493E-01    0.6212420812E-02    0.8703352170E-01
    0.3900000000E+02    0.8365286285E-01    0.5899665702E-01    0.8322475161E-01    0.6417393237E-02    0.9020357958E-01
    0.4100000000E+02    0.8711265351E-01    0.6079511564E-01    0.8604801351E-01    0.6613673412E-02    0.9327155553E-01
    0.4300000000E+02    0.9051132170E-01    0.6251746070E-01    0.8878145069E-01    0.6801706714E-02    0.9624257617E-01
    0.4500000000E+02    0.9385090541E-01    0.6416754641E-01    0.9142950461E-01    0.6981909508E-02    0.9912142531E-01
    0.4700000000E+02    0.9713334804E-01    0.6574897994E-01    0.9399632440E-01    0.7154671466E-02    0.1019125723E+00
    0.4900000000E+02    0.1003605039E+00    0.6726514083E-01    0.9648579069E-01    0.7320357667E-02    0.1046201974E+00
    0.1000000000E+02    0.2503130110E-01    0.2103459889E-01    0.2830904688E-01    0.2284665909E-02    0.3064042631E-01
    0.3000000000E+02    0.6726749062E-01    0.4984397456E-01    0.6927230688E-01    0.5419360471E-02    0.7505120414E-01
    0.5000000000E+02    0.1019539056E+00    0.6799974226E-01    0.9770266088E-01    0.7400655192E-02    0.1059439225E+00
    0.7000000000E+02    0.1313098072E+00    0.7993866680E-01    0.1187491326E+00    0.8707908063E-02    0.1288633429E+00
    0.9000000000E+02    0.1567308465E+00    0.8798042572E-01    0.1350586084E+00    0.9591731338E-02    0.1466619845E+00
    0.1100000000E+03    0.1791409245E+00    0.9345151870E-01    0.1481352607E+00    0.1019550200E-01    0.1609620923E+00
    0.1300000000E+03    0.1991777703E+00    0.9716157959E-01    0.1588994759E+00    0.1060680956E-01    0.1727570275E+00
    0.1500000000E+03    0.2172971819E+00    0.9962993022E-01    0.1679473941E+00    0.1088191003E-01    0.1826906600E+00
    0.1700000000E+03    0.2338346881E+00    0.1012029698E+00    0.1756829832E+00    0.1105839114E-01    0.1911996111E+00
    0.1900000000E+03    0.2490436347E+00    0.1021191711E+00    0.1823902393E+00    0.1116218309E-01    0.1985910477E+00
    0.2100000000E+03    0.2631195892E+00    0.1025470285E+00    0.1882750019E+00    0.1121165154E-01    0.2050877581E+00
    0.2300000000E+03    0.2762164809E+00    0.1026082004E+00    0.1934903516E+00    0.1122009406E-01    0.2108555409E+00
    0.2500000000E+03    0.2884575727E+00    0.1023921455E+00    0.1981526641E+00    0.1119731944E-01    0.2160205264E+00
    0.2700000000E+03    0.2999431008E+00    0.1019656706E+00    0.2023521094E+00    0.1115067842E-01    0.2206805080E+00
    0.2900000000E+03    0.3107557105E+00    0.1013793278E+00    0.2061597215E+00    0.1108575474E-01    0.2249125772E+00
    0.3100000000E+03    0.3209643973E+00    0.1006718009E+00    0.2096322835E+00    0.1100683937E-01    0.2287784000E+00
    0.3300000000E+03    0.3306274139E+00    0.9987297562E-01    0.2128157788E+00    0.1091726269E-01    0.2323279466E+00
    0.3500000000E+03    0.3397944485E+00    0.9900612676E-01    0.2157478783E+00    0.1081963154E-01    0.2356021809E+00
    0.3700000000E+03    0.3485082800E+00    0.9808950295E-01    0.2184597659E+00    0.1071600103E-01    0.2386350345E+00
    0.3900000000E+03    0.3568060515E+00    0.9713749036E-01    0.2209774986E+00    0.1060800103E-01    0.2414548788E+00
    0.4100000000E+03    0.3647202629E+00    0.9616147910E-01    0.2233230362E+00    0.1049693046E-01    0.2440856390E+00
    0.4300000000E+03    0.3722795522E+00    0.9517051561E-01    0.2255150293E+00    0.1038382835E-01    0.2465476478E+00
    0.4500000000E+03    0.3795093176E+00    0.9417179931E-01    0.2275694312E+00    0.1026952819E-01    0.2488583083E+00
    0.4700000000E+03    0.3864322166E+00    0.9317106421E-01    0.2294999772E+00    0.1015469963E-01    0.2510326130E+00
    0.4900000000E+03    0.3930685708E+00    0.9217287483E-01    0.2313185640E+00    0.1003988105E-01    0.2530835562E+00
    0.1000000000E+03    0.1682671850E+00    0.9097798561E-01    0.1419337452E+00    0.9922208039E-02    0.1541767438E+00
    0.3000000000E+03    0.3159316802E+00    0.1010386675E+00    0.2079347896E+00    0.1104781851E-01    0.2268879078E+00
    0.5000000000E+03    0.3962850882E+00    0.9167589942E-01    0.2321891638E+00    0.9982614205E-02    0.2540663637E+00
    0.7000000000E+03    0.4492126204E+00    0.8242218535E-01    0.2456536559E+00    0.8905339394E-02    0.2693581102E+00
    0.9000000000E+03    0.4868162574E+00    0.7482749937E-01    0.2544943827E+00    0.8007901744E-02    0.2795140131E+00
    0.1100000000E+04    0.5147708023E+00    0.6872436420E-01    0.2608602698E+00    0.7279885294E-02    0.2869011789E+00
    0.1300000000E+04    0.5362440198E+00    0.6377971448E-01    0.2657206946E+00    0.6686867049E-02    0.2925932089E+00
    0.1500000000E+04    0.5531698739E+00    0.5971364734E-01    0.2695853744E+00    0.6198033839E-02    0.2971574118E+00
    0.1700000000E+04    0.5667976197E+00    0.5631707511E-01    0.2727512772E+00    0.5789594890E-02    0.3009258137E+00
    0.1900000000E+04    0.5779679720E+00    0.5343744952E-01    0.2754046659E+00    0.5443799435E-02    0.3041075497E+00
    0.2100000000E+04    0.5872653483E+00    0.5096318847E-01    0.2776690637E+00    0.5147446191E-02    0.3068418634E+00
    0.2300000000E+04    0.5951070956E+00    0.4881173930E-01    0.2796300417E+00    0.4890642791E-02    0.3092255799E+00
    0.2500000000E+04    0.6017982025E+00    0.4692114454E-01    0.2813489998E+00    0.4665890353E-02    0.3113284231E+00
    0.2700000000E+04    0.6075660706E+00    0.4524420349E-01    0.2828712874E+00    0.4467431157E-02    0.3132020665E+00
    0.2900000000E+04    0.6125832832E+00    0.4374442927E-01    0.2842312199E+00    0.4290787120E-02    0.3148857397E+00
    0.3100000000E+04    0.6169829025E+00    0.4239322481E-01    0.2854553041E+00    0.4132431897E-02    0.3164098411E+00
    0.3300000000E+04    0.6208689810E+00    0.4116788603E-01    0.2865643814E+00    0.3989555829E-02    0.3177983449E+00
    0.3500000000E+04    0.6243239297E+00    0.4005017093E-01    0.2875750930E+00    0.3859895582E-02    0.3190704504E+00
    0.3700000000E+04    0.6274137780E+00    0.3902526018E-01    0.2885009081E+00    0.3741609190E-02    0.3202417415E+00
    0.3900000000E+04    0.6301919890E+00    0.3808099188E-01    0.2893528596E+00    0.3633183336E-02    0.3213250192E+00
    0.4100000000E+04    0.6327022688E+00    0.3720729108E-01    0.2901400823E+00    0.3533363731E-02    0.3223309106E+00
    0.4300000000E+04    0.6349806636E+00    0.3639573910E-01    0.2908702121E+00    0.3441102267E-02    0.3232683226E+00
    0.4500000000E+04    0.6370571439E+00    0.3563924482E-01    0.2915496875E+00    0.3355516472E-02    0.3241447847E+00
    0.4700000000E+04    0.6389568157E+00    0.3493179101E-01    0.2921839803E+00    0.3275858090E-02    0.3249667120E+00
    0.4900000000E+04    0.6407008561E+00    0.3426823659E-01    0.2927777739E+00    0.3201488503E-02    0.3257396088E+00
    0.1000000000E+04    0.5017632742E+00    0.7161079289E-01    0.2579106470E+00    0.7624841427E-02    0.2834695981E+00
    0.3000000000E+04    0.6148532075E+00    0.4305179391E-01    0.2848588274E+00    0.4209513550E-02    0.3156661102E+00
    0.5000000000E+04    0.6415202411E+00    0.3395151567E-01    0.2930607667E+00    0.3166112560E-02    0.3261091820E+00
    0.7000000000E+04    0.6529400246E+00    0.2911560674E-01    0.2973332474E+00    0.2636581072E-02    0.3318007636E+00
    0.9000000000E+04    0.6592051942E+00    0.2598022762E-01    0.3000304767E+00    0.2304975500E-02    0.3355314278E+00
    0.1100000000E+05    0.6631435609E+00    0.2372603157E-01    0.3019167554E+00    0.2072754234E-02    0.3382278785E+00
    0.1300000000E+05    0.6658417247E+00    0.2199968665E-01    0.3033232755E+00    0.1898529277E-02    0.3402993230E+00
    0.1500000000E+05    0.6678031299E+00    0.2062002013E-01    0.3044193532E+00    0.1761579751E-02    0.3419584671E+00
    0.1700000000E+05    0.6692920594E+00    0.1948300884E-01    0.3053015041E+00    0.1650253709E-02    0.3433284014E+00
    0.1900000000E+05    0.6704602561E+00    0.1852396165E-01    0.3060291867E+00    0.1557434530E-02    0.3444860190E+00
    0.2100000000E+05    0.6714009375E+00    0.1770018344E-01    0.3066412327E+00    0.1478498511E-02    0.3454821943E+00
    0.2300000000E+05    0.6721744747E+00    0.1698216883E-01    0.3071641843E+00    0.1410293969E-02    0.3463521302E+00
    0.2500000000E+05    0.6728216625E+00    0.1634876492E-01    0.3076168608E+00    0.1350588659E-02    0.3471210781E+00
    0.2700000000E+05    0.6733710458E+00    0.1578434523E-01    0.3080130126E+00    0.1297751228E-02    0.3478076940E+00
    0.2900000000E+05    0.6738431890E+00    0.1527707400E-01    0.3083629431E+00    0.1250557951E-02    0.3484261063E+00
    0.3100000000E+05    0.6742532793E+00    0.1481779536E-01    0.3086745391E+00    0.1208070399E-02    0.3489872406E+00
    0.3300000000E+05    0.6746127733E+00    0.1439929717E-01    0.3089539502E+00    0.1169555193E-02    0.3494997002E+00
    0.3500000000E+05    0.6749304754E+00    0.1401580856E-01    0.3092060481E+00    0.1134429738E-02    0.3499703661E+00
    0.3700000000E+05    0.6752132618E+00    0.1366264808E-01    0.3094347473E+00    0.1102224542E-02    0.3504048181E+00
    0.3900000000E+05    0.6754665807E+00    0.1333597171E-01    0.3096432321E+00    0.1072556444E-02    0.3508076363E+00
    0.4100000000E+05    0.6756948042E+00    0.1303258886E-01    0.3098341216E+00    0.1045109211E-02    0.3511826209E+00
    0.4300000000E+05    0.6759014813E+00    0.1274982557E-01    0.3100095918E+00    0.1019619206E-02    0.3515329557E+00
    0.4500000000E+05    0.6760895225E+00    0.1248542135E-01    0.3101714664E+00    0.9958646464E-03    0.3518613317E+00
    0.4700000000E+05    0.6762613373E+00    0.1223745010E-01    0.3103212869E+00    0.9736574243E-03    0.3521700414E+00
    0.4900000000E+05    0.6764189374E+00    0.1200425884E-01    0.3104603651E+00    0.9528368016E-03    0.3524610518E+00
    0.1000000000E+05    0.6613768001E+00    0.2477093212E-01    0.3010487814E+00    0.2179738238E-02    0.3369767075E+00
    0.3000000000E+05    0.6740552020E+00    0.1504192514E-01    0.3085231141E+00    0.1228775867E-02    0.3487132491E+00
    0.5000000000E+05    0.6764929465E+00    0.1189275181E-01    0.3105262338E+00    0.9429024855E-03    0.3526004599E+00
    0.7000000000E+05    0.6775247861E+00    0.1017583824E-01    0.3114836993E+00    0.7917397197E-03    0.3547720508E+00
    0.9000000000E+05    0.6780945301E+00    0.9052115204E-02    0.3120440045E+00    0.6946927594E-03    0.3562270010E+00
    0.1100000000E+06    0.6784558047E+00    0.8242002338E-02    0.3124084919E+00    0.6257068214E-03    0.3572990490E+00
    0.1300000000E+06    0.6787053540E+00    0.7621663458E-02    0.3126614719E+00    0.5734623855E-03    0.3581367917E+00
    0.1500000000E+06    0.6788880828E+00    0.7126578452E-02    0.3128448055E+00    0.5321449911E-03    0.3588181479E+00
    0.1700000000E+06    0.6790276742E+00    0.6719347863E-02    0.3129817352E+00    0.4984217886E-03    0.3593885998E+00
    0.1900000000E+06    0.6791378010E+00    0.6376582183E-02    0.3130862343E+00    0.4702275897E-03    0.3598767980E+00
    0.2100000000E+06    0.6792269091E+00    0.6082795154E-02    0.3131672196E+00    0.4462057278E-03    0.3603018509E+00
    0.2300000000E+06    0.6793004973E+00    0.5827266822E-02    0.3132306522E+00    0.4254234794E-03    0.3606770821E+00
    0.2500000000E+06    0.6793622998E+00    0.5602306765E-02    0.3132806685E+00    0.4072157454E-03    0.3610121189E+00
    0.2700000000E+06    0.6794149413E+00    0.5402233732E-02    0.3133202277E+00    0.3910938407E-03    0.3613141236E+00
    0.2900000000E+06    0.6794603208E+00    0.5222746531E-02    0.3133515018E+00    0.3766895989E-03    0.3615885564E+00
    0.3100000000E+06    0.6794998462E+00    0.5060520279E-02    0.3133761198E+00    0.3637196946E-03    0.3618396670E+00
    0.3300000000E+06    0.6795345834E+00    0.4912938368E-02    0.3133953263E+00    0.3519620752E-03    0.3620708220E+00
    0.3500000000E+06    0.6795653541E+00    0.4777909294E-02    0.3134100876E+00    0.3412399269E-03    0.3622847300E+00
    0.3700000000E+06    0.6795928022E+00    0.4653738298E-02    0.3134211649E+00    0.3314104853E-03    0.3624835997E+00
    0.3900000000E+06    0.6796174393E+00    0.4539035424E-02    0.3134291650E+00    0.3223570520E-03    0.3626692540E+00
    0.4100000000E+06    0.6796396769E+00    0.4432648367E-02    0.3134345770E+00    0.3139831834E-03    0.3628432132E+00
    0.4300000000E+06    0.6796598501E+00    0.4333612584E-02    0.3134377994E+00    0.3062083889E-03    0.3630067575E+00
    0.4500000000E+06    0.6796782341E+00    0.4241113642E-02    0.3134391593E+00    0.2989648941E-03    0.3631609743E+00
    0.4700000000E+06    0.6796950574E+00    0.4154458414E-02    0.3134389277E+00    0.2921951720E-03    0.3633067942E+00
    0.4900000000E+06    0.6797105111E+00    0.4073052760E-02    0.3134373308E+00    0.2858500351E-03    0.3634450193E+00
    0.1000000000E+06    0.6782933530E+00    0.8617601698E-02    0.3122439992E+00    0.6575867087E-03    0.3567992148E+00
    0.3000000000E+06    0.6794807420E+00    0.5139653453E-02    0.3133645575E+00    0.3700404522E-03    0.3617167989E+00
    0.5000000000E+06    0.6797177756E+00    0.4034155539E-02    0.3134360808E+00    0.2828232219E-03    0.3635115050E+00
    0.7000000000E+06    0.6798196063E+00    0.3437681964E-02    0.3133725262E+00    0.2368353640E-03    0.3645715690E+00
    0.9000000000E+06    0.6798763390E+00    0.3049835007E-02    0.3132775409E+00    0.2073974943E-03    0.3653106885E+00
    0.1100000000E+07    0.6799125440E+00    0.2771505802E-02    0.3131761725E+00    0.1865230355E-03    0.3658724882E+00
    0.1300000000E+07    0.6799376779E+00    0.2559105978E-02    0.3130762131E+00    0.1707466023E-03    0.3663228176E+00
    0.1500000000E+07    0.6799561581E+00    0.2390047019E-02    0.3129802621E+00    0.1582911384E-03    0.3666970436E+00
    0.1700000000E+07    0.6799703259E+00    0.2251290681E-02    0.3128890785E+00    0.1481397512E-03    0.3670162358E+00
    0.1900000000E+07    0.6799815382E+00    0.2134710952E-02    0.3128027140E+00    0.1396633203E-03    0.3672939048E+00
    0.2100000000E+07    0.6799906361E+00    0.2034943045E-02    0.3127209453E+00    0.1324491595E-03    0.3675392049E+00
    0.2300000000E+07    0.6799981688E+00    0.1948282409E-02    0.3126434519E+00    0.1262139155E-03    0.3677586107E+00
    0.2500000000E+07    0.6800045102E+00    0.1872077045E-02    0.3125698924E+00    0.1207557789E-03    0.3679568612E+00
    0.2700000000E+07    0.6800099235E+00    0.1804371432E-02    0.3124999364E+00    0.1159266308E-03    0.3681375241E+00
    0.2900000000E+07    0.6800145998E+00    0.1743687499E-02    0.3124332779E+00    0.1116149929E-03    0.3683033494E+00
    0.3100000000E+07    0.6800186808E+00    0.1688884347E-02    0.3123696386E+00    0.1077351550E-03    0.3684564989E+00
    0.3300000000E+07    0.6800222741E+00    0.1639065296E-02    0.3123087686E+00    0.1042199995E-03    0.3685987019E+00
    0.3500000000E+07    0.6800254628E+00    0.1593514467E-02    0.3122504440E+00    0.1010161246E-03    0.3687313617E+00
    0.3700000000E+07    0.6800283120E+00    0.1551652410E-02    0.3121944646E+00    0.9808044381E-04    0.3688556325E+00
    0.3900000000E+07    0.6800308736E+00    0.1513004363E-02    0.3121406515E+00    0.9537776093E-04    0.3689724744E+00
    0.4100000000E+07    0.6800331894E+00    0.1477177099E-02    0.3120888443E+00    0.9287900725E-04    0.3690826941E+00
    0.4300000000E+07    0.6800352934E+00    0.1443841744E-02    0.3120388991E+00    0.9055993669E-04    0.3691869758E+00
    0.4500000000E+07    0.6800372136E+00    0.1412720825E-02    0.3119906864E+00    0.8840014503E-04    0.3692859043E+00
    0.4700000000E+07    0.6800389733E+00    0.1383578369E-02    0.3119440896E+00    0.8638232224E-04    0.3693799836E+00
    0.4900000000E+07    0.6800405920E+00    0.1356212245E-02    0.3118990029E+00    0.8449167504E-04    0.3694696509E+00
    0.1000000000E+07    0.6798962393E+00    0.2900416089E-02    0.3132269772E+00    0.1961638197E-03    0.3656086173E+00
    0.3000000000E+07    0.6800167073E+00    0.1715611736E-02    0.3124010971E+00    0.1096256637E-03    0.3683813919E+00
    0.5000000000E+07    0.6800413537E+00    0.1343139889E-02    0.3118769957E+00    0.8358999451E-04    0.3695129511E+00
    0.7000000000E+07    0.6800520931E+00    0.1142979882E-02    0.3114970263E+00    0.6990748352E-04    0.3702187877E+00
    0.9000000000E+07    0.6800581427E+00    0.1013128449E-02    0.3111982530E+00    0.6116626890E-04    0.3707288704E+00
    0.1100000000E+08    0.6800620396E+00    0.9200874814E-03    0.3109516298E+00    0.5497623736E-04    0.3711269133E+00
    0.1300000000E+08    0.6800647672E+00    0.8491658867E-03    0.3107413992E+00    0.5030265340E-04    0.3714526048E+00
    0.1500000000E+08    0.6800667876E+00    0.7927654239E-03    0.3105580466E+00    0.4661576434E-04    0.3717278222E+00
    0.1700000000E+08    0.6800683470E+00    0.7465068746E-03    0.3103953790E+00    0.4361280633E-04    0.3719658781E+00
    0.1900000000E+08    0.6800695889E+00    0.7076641394E-03    0.3102491357E+00    0.4110665656E-04    0.3721754630E+00
    0.2100000000E+08    0.6800706024E+00    0.6744391881E-03    0.3101162575E+00    0.3897466945E-04    0.3723625565E+00
    0.2300000000E+08    0.6800714462E+00    0.6455914334E-03    0.3099944724E+00    0.3713269484E-04    0.3725314456E+00
    0.2500000000E+08    0.6800721602E+00    0.6202333843E-03    0.3098820458E+00    0.3552083568E-04    0.3726853056E+00
    0.2700000000E+08    0.6800727727E+00    0.5977110199E-03    0.3097776231E+00    0.3409515361E-04    0.3728265533E+00
