  Pressure (Pa) 22mC5-400 (mol/kg) 2mC6-400 (mol/kg) 3mC6-400 (mol/kg) 33mC5-400 (mol/kg) C7-400 (mol/kg)
    0.1000000000E+01    0.2647027401E-02    0.2367567343E-02    0.3140535230E-02    0.1285235541E-03    0.6795107356E-02
    0.3000000000E+01    0.7842176311E-02    0.6854207101E-02    0.9102301461E-02    0.3721579278E-03    0.1969761839E-01
    0.5000000000E+01    0.1291029306E-01    0.1103606220E-01    0.1467403300E-01    0.5993430301E-03    0.3175997609E-01
    0.7000000000E+01    0.1785688610E-01    0.1494144632E-01    0.1989368053E-01    0.8116085809E-03    0.4306380427E-01
    0.9000000000E+01    0.2268714112E-01    0.1859520039E-01    0.2479439787E-01    0.1010296278E-02    0.5368041765E-01
    0.1100000000E+02    0.2740594433E-01    0.2201921846E-01    0.2940527795E-01    0.1196588312E-02    0.6367240274E-01
    0.1300000000E+02    0.3201790376E-01    0.2523287995E-01    0.3375195718E-01    0.1371530807E-02    0.7309491628E-01
    0.1500000000E+02    0.3652736885E-01    0.2825340717E-01    0.3785711499E-01    0.1536053191E-02    0.8199675836E-01
    0.1700000000E+02    0.4093844832E-01    0.3109616296E-01    0.4174088907E-01    0.1690984334E-02    0.9042126469E-01
    0.1900000000E+02    0.4525502663E-01    0.3377489972E-01    0.4542122253E-01    0.1837066035E-02    0.9840705258E-01
    0.2100000000E+02    0.4948077911E-01    0.3630196912E-01    0.4891415567E-01    0.1974964381E-02    0.1059886477E+00
    0.2300000000E+02    0.5361918587E-01    0.3868849934E-01    0.5223407229E-01    0.2105279349E-02    0.1131970138E+00
    0.2500000000E+02    0.5767354466E-01    0.4094454581E-01    0.5539390871E-01    0.2228552964E-02    0.1200600015E+00
    0.2700000000E+02    0.6164698263E-01    0.4307921989E-01    0.5840533193E-01    0.2345276264E-02    0.1266027315E+00
    0.2900000000E+02    0.6554246731E-01    0.4510079919E-01    0.6127889199E-01    0.2455895272E-02    0.1328479219E+00
    0.3100000000E+02    0.6936281670E-01    0.4701682257E-01    0.6402415298E-01    0.2560816134E-02    0.1388161699E+00
    0.3300000000E+02    0.7311070858E-01    0.4883417228E-01    0.6664980589E-01    0.2660409560E-02    0.1445261945E+00
    0.3500000000E+02    0.7678868919E-01    0.5055914519E-01    0.6916376643E-01    0.2755014679E-02    0.1499950467E+00
    0.3700000000E+02    0.8039918125E-01    0.5219751480E-01    0.7157325984E-01    0.2844942390E-02    0.1552382918E+00
    0.3900000000E+02    0.8394449135E-01    0.5375458547E-01    0.7388489487E-01    0.2930478293E-02    0.1602701685E+00
    0.4100000000E+02    0.8742681694E-01    0.5523523989E-01    0.7610472839E-01    0.3011885255E-02    0.1651037278E+00
    0.4300000000E+02    0.9084825269E-01    0.5664398084E-01    0.7823832207E-01    0.3089405661E-02    0.1697509550E+00
    0.4500000000E+02    0.9421079649E-01    0.5798496798E-01    0.8029079216E-01    0.3163263412E-02    0.1742228768E+00
    0.4700000000E+02    0.9751635501E-01    0.5926205045E-01    0.8226685340E-01    0.3233665671E-02    0.1785296555E+00
    0.4900000000E+02    0.1007667489E+00    0.6047879566E-01    0.8417085784E-01    0.3300804430E-02    0.1826806727E+00
    0.1000000000E+02    0.2506017992E-01    0.2033466079E-01    0.2713439058E-01    0.1104923426E-02    0.5875088086E-01
    0.3000000000E+02    0.6746186337E-01    0.4607156072E-01    0.6266699743E-01    0.2509044019E-02    0.1358654523E+00
    0.5000000000E+02    0.1023718057E+00    0.6106558596E-01    0.8509710812E-01    0.3333206188E-02    0.1847005074E+00
    0.7000000000E+02    0.1319610332E+00    0.7032375278E-01    0.1006710422E+00    0.3847041004E-02    0.2187136342E+00
    0.9000000000E+02    0.1576053609E+00    0.7618393942E-01    0.1121882334E+00    0.4176361481E-02    0.2439428133E+00
    0.1100000000E+03    0.1802209930E+00    0.7989165897E-01    0.1210954493E+00    0.4388225259E-02    0.2635118661E+00
    0.1300000000E+03    0.2004433412E+00    0.8217151125E-01    0.1282181683E+00    0.4521698948E-02    0.2792050214E+00
    0.1500000000E+03    0.2187282887E+00    0.8347239573E-01    0.1340630595E+00    0.4601038822E-02    0.2921185540E+00
    0.1700000000E+03    0.2354124839E+00    0.8408582713E-01    0.1389590876E+00    0.4642043893E-02    0.3029649716E+00
    0.1900000000E+03    0.2507507849E+00    0.8420816282E-01    0.1431295883E+00    0.4655395324E-02    0.3122284892E+00
    0.2100000000E+03    0.2649403611E+00    0.8397556715E-01    0.1467317937E+00    0.4648532471E-02    0.3202503444E+00
    0.2300000000E+03    0.2781366941E+00    0.8348471317E-01    0.1498797848E+00    0.4626763881E-02    0.3272783705E+00
    0.2500000000E+03    0.2904644887E+00    0.8280557249E-01    0.1526584643E+00    0.4593954066E-02    0.3334971946E+00
    0.2700000000E+03    0.3020252931E+00    0.8198960136E-01    0.1551324067E+00    0.4552963455E-02    0.3390473760E+00
    0.2900000000E+03    0.3129029331E+00    0.8107513858E-01    0.1573516563E+00    0.4505938846E-02    0.3440379512E+00
    0.3100000000E+03    0.3231674601E+00    0.8009105710E-01    0.1593556373E+00    0.4454510182E-02    0.3485548997E+00
    0.3300000000E+03    0.3328780694E+00    0.7905928947E-01    0.1611758588E+00    0.4399926888E-02    0.3526670050E+00
    0.3500000000E+03    0.3420852903E+00    0.7799660856E-01    0.1628378284E+00    0.4343154202E-02    0.3564300014E+00
    0.3700000000E+03    0.3508326519E+00    0.7691590475E-01    0.1643624323E+00    0.4284942441E-02    0.3598895686E+00
    0.3900000000E+03    0.3591579681E+00    0.7582711603E-01    0.1657669494E+00    0.4225877567E-02    0.3630835314E+00
    0.4100000000E+03    0.3670943388E+00    0.7473791437E-01    0.1670658072E+00    0.4166418627E-02    0.3660435023E+00
    0.4300000000E+03    0.3746709400E+00    0.7365421860E-01    0.1682711544E+00    0.4106925814E-02    0.3687961242E+00
    0.4500000000E+03    0.3819136528E+00    0.7258058162E-01    0.1693932994E+00    0.4047681739E-02    0.3713640251E+00
    0.4700000000E+03    0.3888455690E+00    0.7152048579E-01    0.1704410507E+00    0.3988907719E-02    0.3737665577E+00
    0.4900000000E+03    0.3954874016E+00    0.7047657020E-01    0.1714219840E+00    0.3930776364E-02    0.3760203811E+00
    0.1000000000E+03    0.1692469181E+00    0.7825312500E-01    0.1169066239E+00    0.4294080139E-02    0.2543020452E+00
    0.3000000000E+03    0.3181079102E+00    0.8059029053E-01    0.1583784261E+00    0.4480689300E-02    0.3463509821E+00
    0.5000000000E+03    0.3987054427E+00    0.6996131833E-01    0.1718894770E+00    0.3901994768E-02    0.3770961114E+00
    0.7000000000E+03    0.4515469504E+00    0.6075850178E-01    0.1789385165E+00    0.3379081890E-02    0.3934646855E+00
    0.9000000000E+03    0.4889558554E+00    0.5359604341E-01    0.1833680416E+00    0.2961876724E-02    0.4039346888E+00
    0.1100000000E+04    0.5166917494E+00    0.4803929874E-01    0.1864495144E+00    0.2632809265E-02    0.4113365666E+00
    0.1300000000E+04    0.5379550336E+00    0.4366167158E-01    0.1887360696E+00    0.2370663191E-02    0.4169115239E+00
    0.1500000000E+04    0.5546909936E+00    0.4014766900E-01    0.1905103246E+00    0.2158690186E-02    0.4212983921E+00
    0.1700000000E+04    0.5681513810E+00    0.3727488371E-01    0.1919330161E+00    0.1984622095E-02    0.4248629836E+00
    0.1900000000E+04    0.5791758808E+00    0.3488671543E-01    0.1931028772E+00    0.1839584202E-02    0.4278314433E+00
    0.2100000000E+04    0.5883466402E+00    0.3287151664E-01    0.1940841849E+00    0.1717118004E-02    0.4303518928E+00
    0.2300000000E+04    0.5960784730E+00    0.3114835390E-01    0.1949207341E+00    0.1612465129E-02    0.4325258413E+00
    0.2500000000E+04    0.6026739677E+00    0.2965752616E-01    0.1956434786E+00    0.1522069272E-02    0.4344254353E+00
    0.2700000000E+04    0.6083583995E+00    0.2835424138E-01    0.1962749668E+00    0.1443233555E-02    0.4361035131E+00
    0.2900000000E+04    0.6133025266E+00    0.2720435212E-01    0.1968320446E+00    0.1373883858E-02    0.4375997560E+00
    0.3100000000E+04    0.6176378690E+00    0.2618143683E-01    0.1973275717E+00    0.1312403687E-02    0.4389446083E+00
    0.3300000000E+04    0.6214671855E+00    0.2526477031E-01    0.1977715480E+00    0.1257517497E-02    0.4401618605E+00
    0.3500000000E+04    0.6248718050E+00    0.2443788975E-01    0.1981718759E+00    0.1208207138E-02    0.4412704032E+00
    0.3700000000E+04    0.6279168515E+00    0.2368756610E-01    0.1985348897E+00    0.1163651222E-02    0.4422854488E+00
    0.3900000000E+04    0.6306550291E+00    0.2300305522E-01    0.1988657302E+00    0.1123180547E-02    0.4432194008E+00
    0.4100000000E+04    0.6331294061E+00    0.2237554538E-01    0.1991686170E+00    0.1086244909E-02    0.4440824848E+00
    0.4300000000E+04    0.6353754907E+00    0.2179774414E-01    0.1994470484E+00    0.1052388118E-02    0.4448832159E+00
    0.4500000000E+04    0.6374227979E+00    0.2126356596E-01    0.1997039508E+00    0.1021228959E-02    0.4456287480E+00
    0.4700000000E+04    0.6392960467E+00    0.2076789315E-01    0.1999417927E+00    0.9924465551E-03    0.4463251409E+00
    0.4900000000E+04    0.6410160840E+00    0.2030639101E-01    0.2001626717E+00    0.9657689819E-03    0.4469775656E+00
    0.1000000000E+04    0.5037937694E+00    0.5064617262E-01    0.1850335269E+00    0.2787735319E-02    0.4079211559E+00
    0.3000000000E+04    0.6155392976E+00    0.2667843240E-01    0.1970868203E+00    0.1342246683E-02    0.4382894869E+00
    0.5000000000E+04    0.6418242848E+00    0.2008727730E-01    0.2002673213E+00    0.9531456806E-03    0.4472887032E+00
    0.7000000000E+04    0.6530965687E+00    0.1683468357E-01    0.2017945390E+00    0.7695409567E-03    0.4520130002E+00
    0.9000000000E+04    0.6592904781E+00    0.1481652107E-01    0.2027000913E+00    0.6598978900E-03    0.4550421188E+00
    0.1100000000E+05    0.6631893630E+00    0.1340682091E-01    0.2033002670E+00    0.5856306129E-03    0.4571992771E+00
    0.1300000000E+05    0.6658635830E+00    0.1234895574E-01    0.2037265540E+00    0.5312646535E-03    0.4588387129E+00
    0.1500000000E+05    0.6678095186E+00    0.1151619745E-01    0.2040439682E+00    0.4893296586E-03    0.4601411415E+00
    0.1700000000E+05    0.6692879800E+00    0.1083786259E-01    0.2042885349E+00    0.4557467410E-03    0.4612096419E+00
    0.1900000000E+05    0.6704488427E+00    0.1027099201E-01    0.2044819008E+00    0.4280844792E-03    0.4621078648E+00
    0.2100000000E+05    0.6713842474E+00    0.9787756371E-02    0.2046378882E+00    0.4047950571E-03    0.4628775234E+00
    0.2300000000E+05    0.6721539099E+00    0.9369217107E-02    0.2047657519E+00    0.3848415688E-03    0.4635472501E+00
    0.2500000000E+05    0.6727982079E+00    0.9001971027E-02    0.2048719288E+00    0.3675004850E-03    0.4641374424E+00
    0.2700000000E+05    0.6733454108E+00    0.8676224854E-02    0.2049610380E+00    0.3522498591E-03    0.4646630807E+00
    0.2900000000E+05    0.6738158959E+00    0.8384630884E-02    0.2050364816E+00    0.3387025963E-03    0.4651354501E+00
    0.3100000000E+05    0.6742247192E+00    0.8121551728E-02    0.2051008215E+00    0.3265648216E-03    0.4655632376E+00
    0.3300000000E+05    0.6745832440E+00    0.7882578806E-02    0.2051560243E+00    0.3156089231E-03    0.4659532552E+00
    0.3500000000E+05    0.6749002063E+00    0.7664207090E-02    0.2052036242E+00    0.3056555328E-03    0.4663109310E+00
    0.3700000000E+05    0.6751824318E+00    0.7463609433E-02    0.2052448362E+00    0.2965611483E-03    0.4666406520E+00
    0.3900000000E+05    0.6754353307E+00    0.7278476306E-02    0.2052806344E+00    0.2882094214E-03    0.4669460081E+00
    0.4100000000E+05    0.6756632461E+00    0.7106899631E-02    0.2053118089E+00    0.2805048980E-03    0.4672299698E+00
    0.4300000000E+05    0.6758697046E+00    0.6947287029E-02    0.2053390073E+00    0.2733684346E-03    0.4674950192E+00
    0.4500000000E+05    0.6760575992E+00    0.6798297486E-02    0.2053627651E+00    0.2667337849E-03    0.4677432496E+00
    0.4700000000E+05    0.6762293257E+00    0.6658792385E-02    0.2053835289E+00    0.2605450203E-03    0.4679764402E+00
    0.4900000000E+05    0.6763868848E+00    0.6527797736E-02    0.2054016739E+00    0.2547545538E-03    0.4681961147E+00
    0.1000000000E+05    0.6614397133E+00    0.1405614451E-01    0.2030278467E+00    0.6195878980E-03    0.4562016389E+00
    0.3000000000E+05    0.6740272331E+00    0.8249826885E-02    0.2050699049E+00    0.3324730568E-03    0.4653544535E+00
    0.5000000000E+05    0.6764608884E+00    0.6465225085E-02    0.2054098656E+00    0.2519957080E-03    0.4683013011E+00
    0.7000000000E+05    0.6774936933E+00    0.5506963168E-02    0.2054925118E+00    0.2103240290E-03    0.4699364230E+00
    0.9000000000E+05    0.6780650007E+00    0.4884770229E-02    0.2054953387E+00    0.1838583558E-03    0.4710295039E+00
    0.1100000000E+06    0.6784277827E+00    0.4438511555E-02    0.2054665626E+00    0.1651725651E-03    0.4718344927E+00
    0.1300000000E+06    0.6786786743E+00    0.4098035676E-02    0.2054239418E+00    0.1510884576E-03    0.4724637024E+00
    0.1500000000E+06    0.6788625794E+00    0.3827057806E-02    0.2053751948E+00    0.1399895176E-03    0.4729757824E+00
    0.1700000000E+06    0.6790032028E+00    0.3604655767E-02    0.2053240311E+00    0.1309556981E-03    0.4734048746E+00
    0.1900000000E+06    0.6791142401E+00    0.3417797704E-02    0.2052723468E+00    0.1234199595E-03    0.4737724461E+00
    0.2100000000E+06    0.6792041575E+00    0.3257883041E-02    0.2052211436E+00    0.1170113875E-03    0.4740927964E+00
    0.2300000000E+06    0.6792784703E+00    0.3118974083E-02    0.2051709534E+00    0.1114758607E-03    0.4743758874E+00
    0.2500000000E+06    0.6793409259E+00    0.2996820714E-02    0.2051220506E+00    0.1066326988E-03    0.4746289131E+00
    0.2700000000E+06    0.6793941598E+00    0.2888289222E-02    0.2050745635E+00    0.1023494736E-03    0.4748572236E+00
    0.2900000000E+06    0.6794400799E+00    0.2791011088E-02    0.2050285362E+00    0.9852662952E-04    0.4750648969E+00
    0.3100000000E+06    0.6794801011E+00    0.2703158115E-02    0.2049839640E+00    0.9508769547E-04    0.4752551062E+00
    0.3300000000E+06    0.6795152950E+00    0.2623293441E-02    0.2049408140E+00    0.9197283727E-04    0.4754303659E+00
    0.3500000000E+06    0.6795464884E+00    0.2550269910E-02    0.2048990376E+00    0.8913448085E-04    0.4755926986E+00
    0.3700000000E+06    0.6795743292E+00    0.2483158963E-02    0.2048585782E+00    0.8653426454E-04    0.4757437541E+00
    0.3900000000E+06    0.6795993323E+00    0.2421199786E-02    0.2048193757E+00    0.8414086819E-04    0.4758848944E+00
    0.4100000000E+06    0.6796219122E+00    0.2363762206E-02    0.2047813693E+00    0.8192843614E-04    0.4760172554E+00
    0.4300000000E+06    0.6796424064E+00    0.2310319166E-02    0.2047444994E+00    0.7987541111E-04    0.4761417940E+00
    0.4500000000E+06    0.6796610923E+00    0.2260425971E-02    0.2047087083E+00    0.7796365821E-04    0.4762593232E+00
    0.4700000000E+06    0.6796782003E+00    0.2213704429E-02    0.2046739410E+00    0.7617779762E-04    0.4763705389E+00
    0.4900000000E+06    0.6796939230E+00    0.2169830568E-02    0.2046401453E+00    0.7450468950E-04    0.4764760413E+00
    0.1000000000E+06    0.6782645956E+00    0.4645181741E-02    0.2054834354E+00    0.1737949155E-03    0.4714591752E+00
    0.3000000000E+06    0.6794607542E+00    0.2746004060E-02    0.2050060698E+00    0.9676324411E-04    0.4751620142E+00
    0.5000000000E+06    0.6797013166E+00    0.2148872695E-02    0.2046235963E+00    0.7370682312E-04    0.4765268155E+00
    0.7000000000E+06    0.6798051704E+00    0.1827974000E-02    0.2043332236E+00    0.6160471538E-04    0.4773390034E+00
    0.9000000000E+06    0.6798632628E+00    0.1619806209E-02    0.2041000497E+00    0.5387800846E-04    0.4779085046E+00
    0.1100000000E+07    0.6799004655E+00    0.1470663164E-02    0.2039051901E+00    0.4840868017E-04    0.4783433251E+00
    0.1300000000E+07    0.6799263737E+00    0.1356988378E-02    0.2037377178E+00    0.4428054064E-04    0.4786931582E+00
    0.1500000000E+07    0.6799454785E+00    0.1266597667E-02    0.2035907935E+00    0.4102477018E-04    0.4789847777E+00
    0.1700000000E+07    0.6799601648E+00    0.1192468536E-02    0.2034598611E+00    0.3837352728E-04    0.4792341790E+00
    0.1900000000E+07    0.6799718169E+00    0.1130229404E-02    0.2033417342E+00    0.3616131926E-04    0.4794516449E+00
    0.2100000000E+07    0.6799812945E+00    0.1076996972E-02    0.2032340968E+00    0.3427970211E-04    0.4796441590E+00
    0.2300000000E+07    0.6799891594E+00    0.1030781892E-02    0.2031352122E+00    0.3265428390E-04    0.4798166706E+00
    0.2500000000E+07    0.6799957948E+00    0.9901610595E-03    0.2030437445E+00    0.3123212204E-04    0.4799728097E+00
    0.2700000000E+07    0.6800014711E+00    0.9540857752E-03    0.2029586435E+00    0.2997438533E-04    0.4801153138E+00
    0.2900000000E+07    0.6800063843E+00    0.9217638317E-03    0.2028790688E+00    0.2885186573E-04    0.4802462963E+00
    0.3100000000E+07    0.6800106804E+00    0.8925840466E-03    0.2028043367E+00    0.2784211862E-04    0.4803674214E+00
    0.3300000000E+07    0.6800144702E+00    0.8660662865E-03    0.2027338842E+00    0.2692757668E-04    0.4804800220E+00
    0.3500000000E+07    0.6800178394E+00    0.8418273898E-03    0.2026672412E+00    0.2609426871E-04    0.4805851815E+00
    0.3700000000E+07    0.6800208552E+00    0.8195573356E-03    0.2026040118E+00    0.2533092671E-04    0.4806837919E+00
    0.3900000000E+07    0.6800235712E+00    0.7990022036E-03    0.2025438590E+00    0.2462834966E-04    0.4807765962E+00
    0.4100000000E+07    0.6800260306E+00    0.7799517508E-03    0.2024864935E+00    0.2397894094E-04    0.4808642191E+00
    0.4300000000E+07    0.6800282688E+00    0.7622301954E-03    0.2024316655E+00    0.2337636632E-04    0.4809471915E+00
    0.4500000000E+07    0.6800303146E+00    0.7456892718E-03    0.2023791573E+00    0.2281529681E-04    0.4810259672E+00
    0.4700000000E+07    0.6800321924E+00    0.7302029244E-03    0.2023287783E+00    0.2229121281E-04    0.4811009380E+00
    0.4900000000E+07    0.6800339223E+00    0.7156632015E-03    0.2022803606E+00    0.2180025285E-04    0.4811724438E+00
    0.1000000000E+07    0.6798836964E+00    0.1539714284E-02    0.2039986402E+00    0.5093365576E-04    0.4781388777E+00
    0.3000000000E+07    0.6800086019E+00    0.9068137890E-03    0.2028411351E+00    0.2833409056E-04    0.4803080010E+00
    0.5000000000E+07    0.6800347372E+00    0.7087187341E-03    0.2022568401E+00    0.2156613804E-04    0.4812069916E+00
    0.7000000000E+07    0.6800463020E+00    0.6024640187E-03    0.2018608306E+00    0.1801620317E-04    0.4817717579E+00
    0.9000000000E+07    0.6800528984E+00    0.5336136602E-03    0.2015603227E+00    0.1575102791E-04    0.4821817167E+00
    0.1100000000E+08    0.6800571933E+00    0.4843232174E-03    0.2013178613E+00    0.1414836135E-04    0.4825026381E+00
    0.1300000000E+08    0.6800602282E+00    0.4467760169E-03    0.2011145003E+00    0.1293914394E-04    0.4827658542E+00
    0.1500000000E+08    0.6800624956E+00    0.4169328196E-03    0.2009393016E+00    0.1198574909E-04    0.4829886996E+00
    0.1700000000E+08    0.6800642595E+00    0.3924672429E-03    0.2007853689E+00    0.1120957631E-04    0.4831817536E+00
    0.1900000000E+08    0.6800656744E+00    0.3719319254E-03    0.2006480705E+00    0.1056207508E-04    0.4833519389E+00
    0.2100000000E+08    0.6800668370E+00    0.3543727083E-03    0.2005241436E+00    0.1001143977E-04    0.4835040290E+00
    0.2300000000E+08    0.6800678111E+00    0.3391315289E-03    0.2004112024E+00    0.9535857167E-05    0.4836414518E+00
    0.2500000000E+08    0.6800686403E+00    0.3257377976E-03    0.2003074489E+00    0.9119806751E-05    0.4837667507E+00
    0.2700000000E+08    0.6800693557E+00    0.3138448373E-03    0.2002114942E+00    0.8751907082E-05    0.4838818638E+00
