  Pressure (Pa) 22mC5-400 (mol/kg) 2mC6-400 (mol/kg) 3mC6-400 (mol/kg) 33mC5-400 (mol/kg) C7-400 (mol/kg)
    0.1000000000E+01    0.2638589938E-02    0.5526893191E-02    0.5246707725E-03    0.2571490428E-03    0.5108402598E-02
    0.3000000000E+01    0.7769313412E-02    0.1601399675E-01    0.1527649666E-02    0.7451305762E-03    0.1487573120E-01
    0.5000000000E+01    0.1271592436E-01    0.2580322705E-01    0.2473508079E-02    0.1200702547E-02    0.2408922851E-01
    0.7000000000E+01    0.1749073584E-01    0.3495673355E-01    0.3367292014E-02    0.1626750413E-02    0.3279775435E-01
    0.9000000000E+01    0.2210495058E-01    0.4352959371E-01    0.4213461996E-02    0.2025831175E-02    0.4104450340E-01
    0.1100000000E+02    0.2656878438E-01    0.5157078935E-01    0.5015975976E-02    0.2400218748E-02    0.4886780705E-01
    0.1300000000E+02    0.3089157326E-01    0.5912402547E-01    0.5778358507E-02    0.2751942000E-02    0.5630180250E-01
    0.1500000000E+02    0.3508186702E-01    0.6622842027E-01    0.6503758788E-02    0.3082816810E-02    0.6337699417E-01
    0.1700000000E+02    0.3914751094E-01    0.7291908960E-01    0.7194999595E-02    0.3394473221E-02    0.7012072707E-01
    0.1900000000E+02    0.4309571765E-01    0.7922764416E-01    0.7854618736E-02    0.3688378531E-02    0.7655758783E-01
    0.2100000000E+02    0.4693313017E-01    0.8518261441E-01    0.8484904336E-02    0.3965857031E-02    0.8270974608E-01
    0.2300000000E+02    0.5066587766E-01    0.9080981505E-01    0.9087924988E-02    0.4228106934E-02    0.8859724615E-01
    0.2500000000E+02    0.5429962469E-01    0.9613265905E-01    0.9665555630E-02    0.4476214960E-02    0.9423825746E-01
    0.2700000000E+02    0.5783961488E-01    0.1011724291E+00    0.1021949983E-01    0.4711168934E-02    0.9964929019E-01
    0.2900000000E+02    0.6129070977E-01    0.1059485128E+00    0.1075130907E-01    0.4933868727E-02    0.1048453818E+00
    0.3100000000E+02    0.6465742339E-01    0.1104786083E+00    0.1126239946E-01    0.5145135769E-02    0.1098402589E+00
    0.3300000000E+02    0.6794395313E-01    0.1147789022E+00    0.1175406628E-01    0.5345721356E-02    0.1146464780E+00
    0.3500000000E+02    0.7115420742E-01    0.1188642273E+00    0.1222749671E-01    0.5536313932E-02    0.1192755485E+00
    0.3700000000E+02    0.7429183043E-01    0.1227481995E+00    0.1268378097E-01    0.5717545473E-02    0.1237380409E+00
    0.3900000000E+02    0.7736022437E-01    0.1264433396E+00    0.1312392209E-01    0.5889997118E-02    0.1280436809E+00
    0.4100000000E+02    0.8036256955E-01    0.1299611797E+00    0.1354884450E-01    0.6054204140E-02    0.1322014330E+00
    0.4300000000E+02    0.8330184237E-01    0.1333123588E+00    0.1395940171E-01    0.6210660343E-02    0.1362195745E+00
    0.4500000000E+02    0.8618083169E-01    0.1365067061E+00    0.1435638298E-01    0.6359821967E-02    0.1401057604E+00
    0.4700000000E+02    0.8900215360E-01    0.1395533163E+00    0.1474051934E-01    0.6502111163E-02    0.1438670813E+00
    0.4900000000E+02    0.9176826476E-01    0.1424606162E+00    0.1511248889E-01    0.6637919083E-02    0.1475101153E+00
    0.1000000000E+02    0.2435506213E-01    0.4761380301E-01    0.4619946273E-02    0.2215979464E-02    0.4500686107E-01
    0.3000000000E+02    0.6298434481E-01    0.1082432639E+00    0.1100936049E-01    0.5040882832E-02    0.1073671615E+00
    0.5000000000E+02    0.9313134345E-01    0.1438644902E+00    0.1529410974E-01    0.6703507011E-02    0.1492892015E+00
    0.7000000000E+02    0.1179878687E+00    0.1662546834E+00    0.1841924155E-01    0.7750504155E-02    0.1799365157E+00
    0.9000000000E+02    0.1392641569E+00    0.1809070511E+00    0.2083076011E-01    0.8436904209E-02    0.2036373803E+00
    0.1100000000E+03    0.1579665486E+00    0.1907079893E+00    0.2276808347E-01    0.8896776465E-02    0.2227171069E+00
    0.1300000000E+03    0.1747301538E+00    0.1973082044E+00    0.2437199136E-01    0.9206848915E-02    0.2385440539E+00
    0.1500000000E+03    0.1899782479E+00    0.2017136408E+00    0.2573109425E-01    0.9413923962E-02    0.2519801475E+00
    0.1700000000E+03    0.2040055365E+00    0.2045684097E+00    0.2690419417E-01    0.9548004650E-02    0.2635977803E+00
    0.1900000000E+03    0.2170247188E+00    0.2063015935E+00    0.2793199758E-01    0.9629106103E-02    0.2737934818E+00
    0.2100000000E+03    0.2291940054E+00    0.2072084294E+00    0.2884367618E-01    0.9671022884E-02    0.2828516174E+00
    0.2300000000E+03    0.2406341414E+00    0.2074975923E+00    0.2966074692E-01    0.9683523707E-02    0.2909820782E+00
    0.2500000000E+03    0.2514393491E+00    0.2073199457E+00    0.3039947267E-01    0.9673686337E-02    0.2983436099E+00
    0.2700000000E+03    0.2616845980E+00    0.2067866712E+00    0.3107240478E-01    0.9646739675E-02    0.3050588102E+00
    0.2900000000E+03    0.2714305732E+00    0.2059810623E+00    0.3168940716E-01    0.9606611800E-02    0.3112240896E+00
    0.3100000000E+03    0.2807271549E+00    0.2049664068E+00    0.3225835542E-01    0.9556296440E-02    0.3169164735E+00
    0.3300000000E+03    0.2896159097E+00    0.2037913804E+00    0.3278562600E-01    0.9498103897E-02    0.3221983648E+00
    0.3500000000E+03    0.2981319089E+00    0.2024938155E+00    0.3327644595E-01    0.9433836488E-02    0.3271209491E+00
    0.3700000000E+03    0.3063050782E+00    0.2011033835E+00    0.3373514781E-01    0.9364913513E-02    0.3317266783E+00
    0.3900000000E+03    0.3141612151E+00    0.1996435359E+00    0.3416535856E-01    0.9292461772E-02    0.3360511126E+00
    0.4100000000E+03    0.3217227673E+00    0.1981329300E+00    0.3457014198E-01    0.9217382107E-02    0.3401243078E+00
    0.4300000000E+03    0.3290094349E+00    0.1965864903E+00    0.3495210727E-01    0.9140398990E-02    0.3439718748E+00
    0.4500000000E+03    0.3360386425E+00    0.1950162079E+00    0.3531349306E-01    0.9062097947E-02    0.3476158002E+00
    0.4700000000E+03    0.3428259127E+00    0.1934317507E+00    0.3565623315E-01    0.8982954104E-02    0.3510750872E+00
    0.4900000000E+03    0.3493851649E+00    0.1918409319E+00    0.3598200850E-01    0.8903354199E-02    0.3543662632E+00
    0.1000000000E+03    0.1488910789E+00    0.1862909007E+00    0.2184829922E-01    0.8689438252E-02    0.2136538521E+00
    0.3000000000E+03    0.2761322695E+00    0.2054965312E+00    0.3197945904E-01    0.9582569496E-02    0.3141251959E+00
    0.5000000000E+03    0.3525832559E+00    0.1910451629E+00    0.3613900094E-01    0.8863484205E-02    0.3559533989E+00
    0.7000000000E+03    0.4070862697E+00    0.1758055364E+00    0.3866413161E-01    0.8093398228E-02    0.3815875551E+00
    0.9000000000E+03    0.4481155905E+00    0.1627176509E+00    0.4044148365E-01    0.7422812738E-02    0.3997637454E+00
    0.1100000000E+04    0.4799318340E+00    0.1518175252E+00    0.4179480399E-01    0.6858774065E-02    0.4136883440E+00
    0.1300000000E+04    0.5051354080E+00    0.1427329201E+00    0.4287696851E-01    0.6385676111E-02    0.4248819533E+00
    0.1500000000E+04    0.5254515869E+00    0.1350919191E+00    0.4377181568E-01    0.5986348508E-02    0.4341815889E+00
    0.1700000000E+04    0.5420762920E+00    0.1285915913E+00    0.4453009161E-01    0.5646193874E-02    0.4420955453E+00
    0.1900000000E+04    0.5558622922E+00    0.1229975339E+00    0.4518474611E-01    0.5353593948E-02    0.4489548312E+00
    0.2100000000E+04    0.5674308478E+00    0.1181305555E+00    0.4575832921E-01    0.5099478603E-02    0.4549865841E+00
    0.2300000000E+04    0.5772427508E+00    0.1138534218E+00    0.4626691819E-01    0.4876786421E-02    0.4603531402E+00
    0.2500000000E+04    0.5856452145E+00    0.1100602436E+00    0.4672235740E-01    0.4679996738E-02    0.4651743651E+00
    0.2700000000E+04    0.5929036279E+00    0.1066685125E+00    0.4713361018E-01    0.4504761952E-02    0.4695411600E+00
    0.2900000000E+04    0.5992235031E+00    0.1036132529E+00    0.4750761338E-01    0.4347628697E-02    0.4735240145E+00
    0.3100000000E+04    0.6047659071E+00    0.1008427454E+00    0.4784983849E-01    0.4205828987E-02    0.4771786318E+00
    0.3300000000E+04    0.6096584815E+00    0.9831539126E-01    0.4816467222E-01    0.4077124029E-02    0.4805497511E+00
    0.3500000000E+04    0.6140034228E+00    0.9599739628E-01    0.4845568171E-01    0.3959687036E-02    0.4836738146E+00
    0.3700000000E+04    0.6178833375E+00    0.9386104625E-01    0.4872580392E-01    0.3852014758E-02    0.4865808757E+00
    0.3900000000E+04    0.6213655896E+00    0.9188341027E-01    0.4897748370E-01    0.3752860207E-02    0.4892959906E+00
    0.4100000000E+04    0.6245055671E+00    0.9004535649E-01    0.4921277619E-01    0.3661181090E-02    0.4918402540E+00
    0.4300000000E+04    0.6273491606E+00    0.8833079780E-01    0.4943342422E-01    0.3576099949E-02    0.4942315802E+00
    0.4500000000E+04    0.6299346645E+00    0.8672610834E-01    0.4964091744E-01    0.3496873097E-02    0.4964853030E+00
    0.4700000000E+04    0.6322942482E+00    0.8521966807E-01    0.4983653832E-01    0.3422866226E-02    0.4986146415E+00
    0.4900000000E+04    0.6344551050E+00    0.8380150415E-01    0.5002139815E-01    0.3353535087E-02    0.5006310654E+00
    0.1000000000E+04    0.4649864682E+00    0.1570155499E+00    0.4115930251E-01    0.7128311581E-02    0.4071398037E+00
    0.3000000000E+04    0.6020832338E+00    0.1021952117E+00    0.4768240216E-01    0.4274962941E-02    0.4753893354E+00
    0.5000000000E+04    0.6354683747E+00    0.8312278846E-01    0.5011010031E-01    0.3320473607E-02    0.5016001131E+00
    0.7000000000E+04    0.6494240146E+00    0.7260248486E-01    0.5150018068E-01    0.2818729214E-02    0.5169278526E+00
    0.9000000000E+04    0.6569013812E+00    0.6560449716E-01    0.5243306721E-01    0.2497069244E-02    0.5273915191E+00
    0.1100000000E+05    0.6615115438E+00    0.6047420223E-01    0.5311533600E-01    0.2267744663E-02    0.5351580168E+00
    0.1300000000E+05    0.6646209203E+00    0.5648385064E-01    0.5364227282E-01    0.2093200719E-02    0.5412361463E+00
    0.1500000000E+05    0.6668525745E+00    0.5325407984E-01    0.5406493738E-01    0.1954357812E-02    0.5461708123E+00
    0.1700000000E+05    0.6685288293E+00    0.5056390534E-01    0.5441354740E-01    0.1840351743E-02    0.5502868002E+00
    0.1900000000E+05    0.6698323583E+00    0.4827412754E-01    0.5470730492E-01    0.1744473266E-02    0.5537918413E+00
    0.2100000000E+05    0.6708740969E+00    0.4629182066E-01    0.5495908511E-01    0.1662319955E-02    0.5568260600E+00
    0.2300000000E+05    0.6717251642E+00    0.4455210412E-01    0.5517789156E-01    0.1590863966E-02    0.5594879969E+00
    0.2500000000E+05    0.6724331855E+00    0.4300803164E-01    0.5537023744E-01    0.1527943231E-02    0.5618493137E+00
    0.2700000000E+05    0.6730312182E+00    0.4162463007E-01    0.5554096759E-01    0.1471965883E-02    0.5639635842E+00
    0.2900000000E+05    0.6735429061E+00    0.4037520719E-01    0.5569377116E-01    0.1421729637E-02    0.5658717980E+00
    0.3100000000E+05    0.6739855971E+00    0.3923896975E-01    0.5583151374E-01    0.1376306686E-02    0.5676059403E+00
    0.3300000000E+05    0.6743723011E+00    0.3819943343E-01    0.5595645971E-01    0.1334967726E-02    0.5691913968E+00
    0.3500000000E+05    0.6747129623E+00    0.3724332988E-01    0.5607042529E-01    0.1297130263E-02    0.5706486157E+00
    0.3700000000E+05    0.6750153095E+00    0.3635983644E-01    0.5617488651E-01    0.1262322526E-02    0.5719942829E+00
    0.3900000000E+05    0.6752854387E+00    0.3554002117E-01    0.5627105693E-01    0.1230157687E-02    0.5732421717E+00
    0.4100000000E+05    0.6755282218E+00    0.3477643523E-01    0.5635994471E-01    0.1200315084E-02    0.5744037684E+00
    0.4300000000E+05    0.6757475981E+00    0.3406280828E-01    0.5644239524E-01    0.1172526288E-02    0.5754887408E+00
    0.4500000000E+05    0.6759467871E+00    0.3339381749E-01    0.5651912341E-01    0.1146564610E-02    0.5765052941E+00
    0.4700000000E+05    0.6761284453E+00    0.3276490975E-01    0.5659073836E-01    0.1122237080E-02    0.5774604444E+00
    0.4900000000E+05    0.6762947835E+00    0.3217216328E-01    0.5665776275E-01    0.1099378237E-02    0.5783602331E+00
    0.1000000000E+05    0.6594531932E+00    0.6286318223E-01    0.5279809726E-01    0.2373843398E-02    0.5315334202E+00
    0.3000000000E+05    0.6737719789E+00    0.3979405683E-01    0.5576437152E-01    0.1398466035E-02    0.5667589091E+00
    0.5000000000E+05    0.6763727993E+00    0.3188827029E-01    0.5668969698E-01    0.1088454170E-02    0.5787910302E+00
    0.7000000000E+05    0.6774538815E+00    0.2747974509E-01    0.5717032266E-01    0.9208359966E-03    0.5854683611E+00
    0.9000000000E+05    0.6780453396E+00    0.2455618817E-01    0.5747067840E-01    0.8118175610E-03    0.5898846168E+00
    0.1100000000E+06    0.6784182930E+00    0.2242974965E-01    0.5767790763E-01    0.7336391485E-03    0.5930920630E+00
    0.1300000000E+06    0.6786749502E+00    0.2079081480E-01    0.5783005464E-01    0.6740517772E-03    0.5955623495E+00
    0.1500000000E+06    0.6788623870E+00    0.1947621120E-01    0.5794664291E-01    0.6266932974E-03    0.5975432301E+00
    0.1700000000E+06    0.6790052953E+00    0.1839052501E-01    0.5803881938E-01    0.5878858673E-03    0.5991792073E+00
    0.1900000000E+06    0.6791178711E+00    0.1747366807E-01    0.5811345236E-01    0.5553350703E-03    0.6005611004E+00
    0.2100000000E+06    0.6792088553E+00    0.1668562779E-01    0.5817502352E-01    0.5275252604E-03    0.6017492887E+00
    0.2300000000E+06    0.6792839240E+00    0.1599857314E-01    0.5822659133E-01    0.5034095386E-03    0.6027857148E+00
    0.2500000000E+06    0.6793469235E+00    0.1539245606E-01    0.5827031947E-01    0.4822384015E-03    0.6037005603E+00
    0.2700000000E+06    0.6794005528E+00    0.1485241316E-01    0.5830778472E-01    0.4634592345E-03    0.6045161821E+00
    0.2900000000E+06    0.6794467616E+00    0.1436715623E-01    0.5834016493E-01    0.4466544369E-03    0.6052495475E+00
    0.3100000000E+06    0.6794869934E+00    0.1392793497E-01    0.5836835873E-01    0.4315017709E-03    0.6059138018E+00
    0.3300000000E+06    0.6795223401E+00    0.1352784588E-01    0.5839306423E-01    0.4177480748E-03    0.6065193105E+00
    0.3500000000E+06    0.6795536426E+00    0.1316135845E-01    0.5841483243E-01    0.4051913232E-03    0.6070743749E+00
    0.3700000000E+06    0.6795815591E+00    0.1282398209E-01    0.5843410422E-01    0.3936680724E-03    0.6075857331E+00
    0.3900000000E+06    0.6796066123E+00    0.1251202698E-01    0.5845123679E-01    0.3830444781E-03    0.6080589202E+00
    0.4100000000E+06    0.6796292224E+00    0.1222242895E-01    0.5846652265E-01    0.3732097443E-03    0.6084985322E+00
    0.4300000000E+06    0.6796497313E+00    0.1195261905E-01    0.5848020375E-01    0.3640712604E-03    0.6089084214E+00
    0.4500000000E+06    0.6796684198E+00    0.1170042499E-01    0.5849248194E-01    0.3555509369E-03    0.6092918454E+00
    0.4700000000E+06    0.6796855208E+00    0.1146399551E-01    0.5850352701E-01    0.3475824042E-03    0.6096515798E+00
    0.4900000000E+06    0.6797012288E+00    0.1124174174E-01    0.5851348282E-01    0.3401088455E-03    0.6099900069E+00
    0.1000000000E+06    0.6782507925E+00    0.2341760504E-01    0.5758292786E-01    0.7698380511E-03    0.5916024233E+00
    0.3000000000E+06    0.6794675495E+00    0.1414225951E-01    0.5835473752E-01    0.4388887868E-03    0.6055896102E+00
    0.5000000000E+06    0.6797086129E+00    0.1113549442E-01    0.5851809130E-01    0.3365421127E-03    0.6101518845E+00
    0.7000000000E+06    0.6798121269E+00    0.9502256511E-02    0.5857512937E-01    0.2822234713E-03    0.6126494493E+00
    0.9000000000E+06    0.6798698347E+00    0.8436401133E-02    0.5859560646E-01    0.2473307542E-03    0.6142914113E+00
    0.1100000000E+07    0.6799066981E+00    0.7669737154E-02    0.5859994184E-01    0.2225331698E-03    0.6154805530E+00
    0.1300000000E+07    0.6799323174E+00    0.7083728631E-02    0.5859616754E-01    0.2037628026E-03    0.6163952697E+00
    0.1500000000E+07    0.6799511760E+00    0.6616739026E-02    0.5858801417E-01    0.1889268501E-03    0.6171285401E+00
    0.1700000000E+07    0.6799656505E+00    0.6233102116E-02    0.5857740975E-01    0.1768248791E-03    0.6177342957E+00
    0.1900000000E+07    0.6799771188E+00    0.5910545927E-02    0.5856542670E-01    0.1667128473E-03    0.6182462954E+00
    0.2100000000E+07    0.6799864348E+00    0.5634343581E-02    0.5855269363E-01    0.1581019624E-03    0.6186869145E+00
    0.2300000000E+07    0.6799941567E+00    0.5394312682E-02    0.5853959305E-01    0.1506562103E-03    0.6190716592E+00
    0.2500000000E+07    0.6800006642E+00    0.5183156056E-02    0.5852636391E-01    0.1441360327E-03    0.6194116677E+00
    0.2700000000E+07    0.6800062254E+00    0.4995488007E-02    0.5851315792E-01    0.1383654542E-03    0.6197151784E+00
    0.2900000000E+07    0.6800110343E+00    0.4827234568E-02    0.5850007207E-01    0.1332119323E-03    0.6199884368E+00
    0.3100000000E+07    0.6800152353E+00    0.4675248942E-02    0.5848716814E-01    0.1285734962E-03    0.6202362773E+00
    0.3300000000E+07    0.6800189380E+00    0.4537056431E-02    0.5847448480E-01    0.1243702502E-03    0.6204625094E+00
    0.3500000000E+07    0.6800222270E+00    0.4410680258E-02    0.5846204528E-01    0.1205385936E-03    0.6206701824E+00
    0.3700000000E+07    0.6800251687E+00    0.4294519603E-02    0.5844986244E-01    0.1170271882E-03    0.6208617704E+00
    0.3900000000E+07    0.6800278158E+00    0.4187262296E-02    0.5843794209E-01    0.1137940806E-03    0.6210393054E+00
    0.4100000000E+07    0.6800302112E+00    0.4087821096E-02    0.5842628523E-01    0.1108046089E-03    0.6212044741E+00
    0.4300000000E+07    0.6800323895E+00    0.3995286369E-02    0.5841488959E-01    0.1080298523E-03    0.6213586903E+00
    0.4500000000E+07    0.6800343792E+00    0.3908890406E-02    0.5840375074E-01    0.1054454654E-03    0.6215031495E+00
    0.4700000000E+07    0.6800362043E+00    0.3827980134E-02    0.5839286279E-01    0.1030307891E-03    0.6216388703E+00
    0.4900000000E+07    0.6800378845E+00    0.3751995977E-02    0.5838221893E-01    0.1007681637E-03    0.6217667271E+00
    0.1000000000E+07    0.6798900921E+00    0.8025002708E-02    0.5859913996E-01    0.2339913651E-03    0.6149285482E+00
    0.3000000000E+07    0.6800132033E+00    0.4749376348E-02    0.5849359452E-01    0.1308337613E-03    0.6201152757E+00
    0.5000000000E+07    0.6800386757E+00    0.3715697742E-02    0.5837698625E-01    0.9968903699E-04    0.6218279466E+00
    0.7000000000E+07    0.6800498733E+00    0.3159792668E-02    0.5828330944E-01    0.8331131441E-04    0.6227785204E+00
    0.9000000000E+07    0.6800562290E+00    0.2799088584E-02    0.5820607547E-01    0.7284721300E-04    0.6234112274E+00
    0.1100000000E+08    0.6800603508E+00    0.2540641369E-02    0.5814050096E-01    0.6543772716E-04    0.6238745522E+00
    0.1300000000E+08    0.6800632538E+00    0.2343657008E-02    0.5808353144E-01    0.5984429113E-04    0.6242345453E+00
    0.1500000000E+08    0.6800654165E+00    0.2187027406E-02    0.5803315474E-01    0.5543256627E-04    0.6245257870E+00
    0.1700000000E+08    0.6800670949E+00    0.2058583732E-02    0.5798798655E-01    0.5183994234E-04    0.6247684250E+00
    0.1900000000E+08    0.6800684383E+00    0.1950749569E-02    0.5794703676E-01    0.4884228432E-04    0.6249751259E+00
    0.2100000000E+08    0.6800695401E+00    0.1858527334E-02    0.5790957356E-01    0.4629268063E-04    0.6251543202E+00
    0.2300000000E+08    0.6800704616E+00    0.1778468676E-02    0.5787504106E-01    0.4409033064E-04    0.6253118740E+00
    0.2500000000E+08    0.6800712449E+00    0.1708106670E-02    0.5784300707E-01    0.4216348693E-04    0.6254520173E+00
    0.2700000000E+08    0.6800719198E+00    0.1645623371E-02    0.5781312893E-01    0.4045952000E-04    0.6255778909E+00
