  Pressure (Pa) 22mC5-400 (mol/kg) 2mC6-400 (mol/kg) 3mC6-400 (mol/kg) 33mC5-400 (mol/kg) C7-400 (mol/kg)
    0.1000000000E+01    0.2647883958E-02    0.1587395289E-02    0.5269777863E-03    0.5816223594E-03    0.5130779327E-02
    0.3000000000E+01    0.7849634866E-02    0.4645847715E-02    0.1547273821E-02    0.1702366361E-02    0.1506609098E-01
    0.5000000000E+01    0.1293034721E-01    0.7557391657E-02    0.2525109066E-02    0.2769440543E-02    0.2458981537E-01
    0.7000000000E+01    0.1789494910E-01    0.1033117313E-01    0.3463169787E-02    0.3786184607E-02    0.3372795345E-01
    0.9000000000E+01    0.2274809757E-01    0.1297560559E-01    0.4363918527E-02    0.4755670502E-02    0.4250434236E-01
    0.1100000000E+02    0.2749419694E-01    0.1549844221E-01    0.5229616977E-02    0.5680728857E-02    0.5094087650E-01
    0.1300000000E+02    0.3213741574E-01    0.1790683961E-01    0.6062346092E-02    0.6563972309E-02    0.5905770202E-01
    0.1500000000E+02    0.3668170228E-01    0.2020741434E-01    0.6864023839E-02    0.7407816167E-02    0.6687338841E-01
    0.1700000000E+02    0.4113079897E-01    0.2240629302E-01    0.7636420890E-02    0.8214496750E-02    0.7440508021E-01
    0.1900000000E+02    0.4548825566E-01    0.2450915697E-01    0.8381174535E-02    0.8986087696E-02    0.8166863156E-01
    0.2100000000E+02    0.4975744180E-01    0.2652128194E-01    0.9099801046E-02    0.9724514514E-02    0.8867872575E-01
    0.2300000000E+02    0.5394155782E-01    0.2844757371E-01    0.9793706687E-02    0.1043156759E-01    0.9544898169E-01
    0.2500000000E+02    0.5804364559E-01    0.3029259996E-01    0.1046419755E-01    0.1110891385E-01    0.1019920490E+00
    0.2700000000E+02    0.6206659816E-01    0.3206061887E-01    0.1111248834E-01    0.1175810719E-01    0.1083196929E+00
    0.2900000000E+02    0.6601316876E-01    0.3375560488E-01    0.1173971025E-01    0.1238059791E-01    0.1144428708E+00
    0.3100000000E+02    0.6988597919E-01    0.3538127184E-01    0.1234691809E-01    0.1297774118E-01    0.1203718004E+00
    0.3300000000E+02    0.7368752755E-01    0.3694109400E-01    0.1293509656E-01    0.1355080471E-01    0.1261160214E+00
    0.3500000000E+02    0.7742019552E-01    0.3843832495E-01    0.1350516611E-01    0.1410097567E-01    0.1316844511E+00
    0.3700000000E+02    0.8108625510E-01    0.3987601478E-01    0.1405798802E-01    0.1462936692E-01    0.1370854345E+00
    0.3900000000E+02    0.8468787482E-01    0.4125702567E-01    0.1459436916E-01    0.1513702278E-01    0.1423267899E+00
    0.4100000000E+02    0.8822712564E-01    0.4258404609E-01    0.1511506622E-01    0.1562492417E-01    0.1474158496E+00
    0.4300000000E+02    0.9170598639E-01    0.4385960364E-01    0.1562078956E-01    0.1609399329E-01    0.1523594976E+00
    0.4500000000E+02    0.9512634889E-01    0.4508607689E-01    0.1611220671E-01    0.1654509799E-01    0.1571642033E+00
    0.4700000000E+02    0.9849002264E-01    0.4626570609E-01    0.1658994560E-01    0.1697905564E-01    0.1618360527E+00
    0.4900000000E+02    0.1017987394E+00    0.4740060300E-01    0.1705459744E-01    0.1739663673E-01    0.1663807761E+00
    0.1000000000E+02    0.2513426252E-01    0.1425176281E-01    0.4801014962E-02    0.5223584977E-02    0.4676379328E-01
    0.3000000000E+02    0.6795863505E-01    0.3457688071E-01    0.1204575281E-01    0.1268225678E-01    0.1174310052E+00
    0.5000000000E+02    0.1034330097E+00    0.4795190386E-01    0.1728219109E-01    0.1759951484E-01    0.1686071654E+00
    0.7000000000E+02    0.1336011075E+00    0.5705801626E-01    0.2126661614E-01    0.2095367339E-01    0.2076205354E+00
    0.9000000000E+02    0.1597868390E+00    0.6338716210E-01    0.2441512016E-01    0.2328916856E-01    0.2385056146E+00
    0.1100000000E+03    0.1828872379E+00    0.6783171962E-01    0.2697605274E-01    0.2493180809E-01    0.2636719840E+00
    0.1300000000E+03    0.2035331304E+00    0.7095526915E-01    0.2910710919E-01    0.2608753395E-01    0.2846506224E+00
    0.1500000000E+03    0.2221822653E+00    0.7312918295E-01    0.3091341946E-01    0.2689221527E-01    0.3024628102E+00
    0.1700000000E+03    0.2391758376E+00    0.7460666833E-01    0.3246788337E-01    0.2743863017E-01    0.3178171610E+00
    0.1900000000E+03    0.2547741531E+00    0.7556526115E-01    0.3382272027E-01    0.2779194773E-01    0.3312215720E+00
    0.2100000000E+03    0.2691798958E+00    0.7613237276E-01    0.3501636956E-01    0.2799903535E-01    0.3430501371E+00
    0.2300000000E+03    0.2825537530E+00    0.7640125382E-01    0.3607779157E-01    0.2809427568E-01    0.3535848657E+00
    0.2500000000E+03    0.2950251766E+00    0.7644130178E-01    0.3702924591E-01    0.2810332346E-01    0.3630426445E+00
    0.2700000000E+03    0.3066999639E+00    0.7630490536E-01    0.3788814242E-01    0.2804560133E-01    0.3715932052E+00
    0.2900000000E+03    0.3176657043E+00    0.7603210184E-01    0.3866830769E-01    0.2793599912E-01    0.3793714236E+00
    0.3100000000E+03    0.3279957641E+00    0.7565381424E-01    0.3938087228E-01    0.2778605581E-01    0.3864859385E+00
    0.3300000000E+03    0.3377522495E+00    0.7519414446E-01    0.4003490520E-01    0.2760479764E-01    0.3930253178E+00
    0.3500000000E+03    0.3469882420E+00    0.7467202498E-01    0.4063787618E-01    0.2739934234E-01    0.3990625523E+00
    0.3700000000E+03    0.3557495076E+00    0.7410242672E-01    0.4119599807E-01    0.2717534157E-01    0.4046583850E+00
    0.3900000000E+03    0.3640758214E+00    0.7349725421E-01    0.4171448420E-01    0.2693730923E-01    0.4098638154E+00
    0.4100000000E+03    0.3720020032E+00    0.7286601718E-01    0.4219774461E-01    0.2668886820E-01    0.4147220083E+00
    0.4300000000E+03    0.3795587385E+00    0.7221634011E-01    0.4264953732E-01    0.2643293777E-01    0.4192697677E+00
    0.4500000000E+03    0.3867732344E+00    0.7155435259E-01    0.4307308652E-01    0.2617187762E-01    0.4235386860E+00
    0.4700000000E+03    0.3936697482E+00    0.7088499128E-01    0.4347117558E-01    0.2590759924E-01    0.4275560517E+00
    0.4900000000E+03    0.4002700179E+00    0.7021223530E-01    0.4384622118E-01    0.2564165316E-01    0.4313455708E+00
    0.1000000000E+03    0.1716783624E+00    0.6580410157E-01    0.2575761769E-01    0.2418214999E-01    0.2516928358E+00
    0.3000000000E+03    0.3229060779E+00    0.7585449923E-01    0.3903243105E-01    0.2786545509E-01    0.3830056974E+00
    0.5000000000E+03    0.4034652537E+00    0.6987561235E-01    0.4402577252E-01    0.2550845777E-01    0.4331614617E+00
    0.7000000000E+03    0.4556952215E+00    0.6347008371E-01    0.4680132327E-01    0.2295809316E-01    0.4613912384E+00
    0.9000000000E+03    0.4924322197E+00    0.5808839251E-01    0.4861898945E-01    0.2079465786E-01    0.4800803310E+00
    0.1100000000E+04    0.5195728245E+00    0.5370623679E-01    0.4992306161E-01    0.1902287500E-01    0.4936200312E+00
    0.1300000000E+04    0.5403422891E+00    0.5012048901E-01    0.5091483482E-01    0.1756948515E-01    0.5040096725E+00
    0.1500000000E+04    0.5566778133E+00    0.4714675216E-01    0.5170031543E-01    0.1636413275E-01    0.5123069046E+00
    0.1700000000E+04    0.5698154129E+00    0.4464362616E-01    0.5234127666E-01    0.1535133860E-01    0.5191306477E+00
    0.1900000000E+04    0.5805793251E+00    0.4250656713E-01    0.5287644491E-01    0.1448931078E-01    0.5248704458E+00
    0.2100000000E+04    0.5895386680E+00    0.4065844544E-01    0.5333147991E-01    0.1374679261E-01    0.5297853737E+00
    0.2300000000E+04    0.5970978586E+00    0.3904182044E-01    0.5372413810E-01    0.1310026567E-01    0.5340553501E+00
    0.2500000000E+04    0.6035513702E+00    0.3761333835E-01    0.5406714467E-01    0.1253184005E-01    0.5378097545E+00
    0.2700000000E+04    0.6091181896E+00    0.3633980144E-01    0.5436988600E-01    0.1202773579E-01    0.5411443326E+00
    0.2900000000E+04    0.6139642037E+00    0.3519542296E-01    0.5463945509E-01    0.1157720240E-01    0.5441316658E+00
    0.3100000000E+04    0.6182171454E+00    0.3415989825E-01    0.5488132333E-01    0.1117174846E-01    0.5468279128E+00
    0.3300000000E+04    0.6219768130E+00    0.3321703424E-01    0.5509978667E-01    0.1080458790E-01    0.5492772980E+00
    0.3500000000E+04    0.6253222062E+00    0.3235376352E-01    0.5529827056E-01    0.1047023770E-01    0.5515151863E+00
    0.3700000000E+04    0.6283166036E+00    0.3155942534E-01    0.5547954361E-01    0.1016422231E-01    0.5535702409E+00
    0.3900000000E+04    0.6310112375E+00    0.3082523462E-01    0.5564587055E-01    0.9882853830E-02    0.5554659727E+00
    0.4100000000E+04    0.6334479935E+00    0.3014388459E-01    0.5579912388E-01    0.9623066652E-02    0.5572218723E+00
    0.4300000000E+04    0.6356614234E+00    0.2950924600E-01    0.5594086673E-01    0.9382291696E-02    0.5588542526E+00
    0.4500000000E+04    0.6376802635E+00    0.2891613673E-01    0.5607241535E-01    0.9158359738E-02    0.5603768849E+00
    0.4700000000E+04    0.6395285950E+00    0.2836014347E-01    0.5619488684E-01    0.8949426348E-02    0.5618014863E+00
    0.4900000000E+04    0.6412267392E+00    0.2783748227E-01    0.5630923612E-01    0.8753913052E-02    0.5631380972E+00
    0.1000000000E+04    0.5069600739E+00    0.5578472819E-01    0.4931944594E-01    0.1986411126E-01    0.4873373364E+00
    0.3000000000E+04    0.6161580122E+00    0.3466514922E-01    0.5476355988E-01    0.1136929927E-01    0.5455131728E+00
    0.5000000000E+04    0.6420249883E+00    0.2758761322E-01    0.5636362625E-01    0.8660756734E-02    0.5637761595E+00
    0.7000000000E+04    0.6531828071E+00    0.2374125419E-01    0.5717509718E-01    0.7253985332E-02    0.5735066394E+00
    0.9000000000E+04    0.6593351993E+00    0.2121811874E-01    0.5767570847E-01    0.6360978964E-02    0.5797707924E+00
    0.1100000000E+05    0.6632164692E+00    0.1939163314E-01    0.5801857927E-01    0.5730166731E-02    0.5842301543E+00
    0.1300000000E+05    0.6658825020E+00    0.1798675264E-01    0.5826932874E-01    0.5254101487E-02    0.5876108326E+00
    0.1500000000E+05    0.6678244434E+00    0.1686071392E-01    0.5846117134E-01    0.4878318081E-02    0.5902868599E+00
    0.1700000000E+05    0.6693009333E+00    0.1593082563E-01    0.5861286808E-01    0.4571898039E-02    0.5924729442E+00
    0.1900000000E+05    0.6704608543E+00    0.1514532666E-01    0.5873587868E-01    0.4315817227E-02    0.5943022307E+00
    0.2100000000E+05    0.6713958599E+00    0.1446988500E-01    0.5883762744E-01    0.4097642418E-02    0.5958622202E+00
    0.2300000000E+05    0.6721654134E+00    0.1388068220E-01    0.5892315056E-01    0.3908857941E-02    0.5972130824E+00
    0.2500000000E+05    0.6728097562E+00    0.1336058932E-01    0.5899599286E-01    0.3743408498E-02    0.5983977263E+00
    0.2700000000E+05    0.6733570826E+00    0.1289692063E-01    0.5905872635E-01    0.3596854161E-02    0.5994476802E+00
    0.2900000000E+05    0.6738277271E+00    0.1248004788E-01    0.5911326526E-01    0.3465855105E-02    0.6003866969E+00
    0.3100000000E+05    0.6742367218E+00    0.1210251006E-01    0.5916106533E-01    0.3347844040E-02    0.6012330555E+00
    0.3300000000E+05    0.6745954163E+00    0.1175842162E-01    0.5920325441E-01    0.3240810526E-02    0.6020010819E+00
    0.3500000000E+05    0.6749125393E+00    0.1144306743E-01    0.5924072051E-01    0.3143154633E-02    0.6027021832E+00
    0.3700000000E+05    0.6751949127E+00    0.1115261847E-01    0.5927417281E-01    0.3053585034E-02    0.6033455702E+00
    0.3900000000E+05    0.6754479451E+00    0.1088392786E-01    0.5930418483E-01    0.2971046429E-02    0.6039387719E+00
    0.4100000000E+05    0.6756759791E+00    0.1063438162E-01    0.5933122557E-01    0.2894666794E-02    0.6044880113E+00
    0.4300000000E+05    0.6758825416E+00    0.1040178759E-01    0.5935568244E-01    0.2823718371E-02    0.6049984818E+00
    0.4500000000E+05    0.6760705265E+00    0.1018429146E-01    0.5937787837E-01    0.2757588359E-02    0.6054745571E+00
    0.4700000000E+05    0.6762423305E+00    0.9980312428E-02    0.5939808475E-01    0.2695756557E-02    0.6059199498E+00
    0.4900000000E+05    0.6763999552E+00    0.9788493262E-02    0.5941653135E-01    0.2637778119E-02    0.6063378348E+00
    0.1000000000E+05    0.6614738924E+00    0.2023946915E-01    0.5786165511E-01    0.6021324360E-02    0.5821687469E+00
    0.3000000000E+05    0.6740391496E+00    0.1228676141E-01    0.5913793067E-01    0.3405362798E-02    0.6008204845E+00
    0.5000000000E+05    0.6764739875E+00    0.9696770798E-02    0.5942515710E-01    0.2610112122E-02    0.6065373309E+00
    0.7000000000E+05    0.6775069640E+00    0.8284784678E-02    0.5954048488E-01    0.2189029902E-02    0.6095830306E+00
    0.9000000000E+05    0.6780780531E+00    0.7361225321E-02    0.5959538185E-01    0.1918690308E-02    0.6115516189E+00
    0.1100000000E+06    0.6784404940E+00    0.6695886476E-02    0.5962262554E-01    0.1726584950E-02    0.6129601455E+00
    0.1300000000E+06    0.6786910167E+00    0.6186754425E-02    0.5963527695E-01    0.1581165085E-02    0.6140336104E+00
    0.1500000000E+06    0.6788745604E+00    0.5780678862E-02    0.5963951707E-01    0.1466214642E-02    0.6148877558E+00
    0.1700000000E+06    0.6790148423E+00    0.5446856665E-02    0.5963861747E-01    0.1372436180E-02    0.6155890264E+00
    0.1900000000E+06    0.6791255619E+00    0.5166028805E-02    0.5963445176E-01    0.1294068268E-02    0.6161786622E+00
    0.2100000000E+06    0.6792151853E+00    0.4925447687E-02    0.5962815727E-01    0.1227326329E-02    0.6166838016E+00
    0.2300000000E+06    0.6792892263E+00    0.4716291904E-02    0.5962045585E-01    0.1169608757E-02    0.6171231365E+00
    0.2500000000E+06    0.6793514307E+00    0.4532235034E-02    0.5961182183E-01    0.1119060725E-02    0.6175100208E+00
    0.2700000000E+06    0.6794044319E+00    0.4368604929E-02    0.5960257556E-01    0.1074319648E-02    0.6178542847E+00
    0.2900000000E+06    0.6794501359E+00    0.4221865444E-02    0.5959293815E-01    0.1034359188E-02    0.6181633489E+00
    0.3100000000E+06    0.6794899559E+00    0.4089283893E-02    0.5958306488E-01    0.9983896841E-03    0.6184429349E+00
    0.3300000000E+06    0.6795249621E+00    0.3968710320E-02    0.5957306619E-01    0.9657923796E-03    0.6186975358E+00
    0.3500000000E+06    0.6795559798E+00    0.3858426697E-02    0.5956302144E-01    0.9360746831E-03    0.6189307361E+00
    0.3700000000E+06    0.6795836557E+00    0.3757041259E-02    0.5955298798E-01    0.9088389464E-03    0.6191454359E+00
    0.3900000000E+06    0.6796085038E+00    0.3663412843E-02    0.5954300735E-01    0.8837601906E-03    0.6193440103E+00
    0.4100000000E+06    0.6796309377E+00    0.3576595628E-02    0.5953310963E-01    0.8605698980E-03    0.6195284259E+00
    0.4300000000E+06    0.6796512940E+00    0.3495798095E-02    0.5952331647E-01    0.8390440114E-03    0.6197003273E+00
    0.4500000000E+06    0.6796698495E+00    0.3420352063E-02    0.5951364326E-01    0.8189939081E-03    0.6198611016E+00
    0.4700000000E+06    0.6796868338E+00    0.3349688996E-02    0.5950410069E-01    0.8002595154E-03    0.6200119288E+00
    0.4900000000E+06    0.6797024390E+00    0.3283321655E-02    0.5949469598E-01    0.7827039921E-03    0.6201538193E+00
    0.1000000000E+06    0.6782774847E+00    0.7004305160E-02    0.5961140489E-01    0.1815350952E-02    0.6123081158E+00
    0.3000000000E+06    0.6794707078E+00    0.4153950922E-02    0.5958802323E-01    0.1015917640E-02    0.6183065214E+00
    0.5000000000E+06    0.6797097760E+00    0.3251615246E-02    0.5949004682E-01    0.7743308541E-03    0.6202216904E+00
    0.7000000000E+06    0.6798127284E+00    0.2765861342E-02    0.5940458951E-01    0.6472302248E-03    0.6212698518E+00
    0.9000000000E+06    0.6798702021E+00    0.2450510845E-02    0.5933190499E-01    0.5659996462E-03    0.6219615069E+00
    0.1100000000E+07    0.6799069460E+00    0.2224485462E-02    0.5926916111E-01    0.5084702850E-03    0.6224649051E+00
    0.1300000000E+07    0.6799324961E+00    0.2052173023E-02    0.5921408173E-01    0.4650351076E-03    0.6228542085E+00
    0.1500000000E+07    0.6799513110E+00    0.1915137671E-02    0.5916502683E-01    0.4307726361E-03    0.6231679851E+00
    0.1700000000E+07    0.6799657563E+00    0.1802747367E-02    0.5912081245E-01    0.4028690612E-03    0.6234285882E+00
    0.1900000000E+07    0.6799772039E+00    0.1708380725E-02    0.5908056574E-01    0.3795848662E-03    0.6236500106E+00
    0.2100000000E+07    0.6799865049E+00    0.1627669189E-02    0.5904362803E-01    0.3597797284E-03    0.6238415321E+00
    0.2300000000E+07    0.6799942154E+00    0.1557597910E-02    0.5900949126E-01    0.3426711568E-03    0.6240095897E+00
    0.2500000000E+07    0.6800007142E+00    0.1496009778E-02    0.5897775584E-01    0.3277021446E-03    0.6241588125E+00
    0.2700000000E+07    0.6800062685E+00    0.1441314956E-02    0.5894810201E-01    0.3144640751E-03    0.6242926291E+00
    0.2900000000E+07    0.6800110719E+00    0.1392312310E-02    0.5892027001E-01    0.3026495497E-03    0.6244136427E+00
    0.3100000000E+07    0.6800152684E+00    0.1348075086E-02    0.5889404599E-01    0.2920223235E-03    0.6245238712E+00
    0.3300000000E+07    0.6800189674E+00    0.1307875187E-02    0.5886925179E-01    0.2823974709E-03    0.6246249074E+00
    0.3500000000E+07    0.6800222533E+00    0.1271131531E-02    0.5884573744E-01    0.2736279101E-03    0.6247180284E+00
    0.3700000000E+07    0.6800251923E+00    0.1237373938E-02    0.5882337549E-01    0.2655950102E-03    0.6248042721E+00
    0.3900000000E+07    0.6800278373E+00    0.1206217291E-02    0.5880205673E-01    0.2582018966E-03    0.6248844924E+00
    0.4100000000E+07    0.6800302307E+00    0.1177342712E-02    0.5878168685E-01    0.2513685841E-03    0.6249593993E+00
    0.4300000000E+07    0.6800324074E+00    0.1150483581E-02    0.5876218383E-01    0.2450283768E-03    0.6250295890E+00
    0.4500000000E+07    0.6800343957E+00    0.1125415011E-02    0.5874347592E-01    0.2391251623E-03    0.6250955663E+00
    0.4700000000E+07    0.6800362195E+00    0.1101945800E-02    0.5872549996E-01    0.2336113500E-03    0.6251577622E+00
    0.4900000000E+07    0.6800378986E+00    0.1079912205E-02    0.5870820009E-01    0.2284462786E-03    0.6252165474E+00
    0.1000000000E+07    0.6798903909E+00    0.2329140142E-02    0.5929944963E-01    0.5350320948E-03    0.6222308981E+00
    0.3000000000E+07    0.6800132385E+00    0.1369647485E-02    0.5890696887E-01    0.2972001027E-03    0.6244699970E+00
    0.5000000000E+07    0.6800386893E+00    0.1069388880E-02    0.5869978795E-01    0.2259833973E-03    0.6252447629E+00
    0.7000000000E+07    0.6800498808E+00    0.9084103792E-03    0.5855743406E-01    0.1886465711E-03    0.6256892189E+00
    0.9000000000E+07    0.6800562340E+00    0.8041441754E-03    0.5844863713E-01    0.1648327803E-03    0.6259928329E+00
    0.1100000000E+08    0.6800603545E+00    0.7295266614E-03    0.5836046178E-01    0.1479904174E-03    0.6262200038E+00
    0.1300000000E+08    0.6800632567E+00    0.6727048114E-03    0.5828627613E-01    0.1352870996E-03    0.6263997942E+00
    0.1500000000E+08    0.6800654189E+00    0.6275547642E-03    0.5822221736E-01    0.1252743230E-03    0.6265476148E+00
    0.1700000000E+08    0.6800670970E+00    0.5905501611E-03    0.5816583456E-01    0.1171249895E-03    0.6266725480E+00
    0.1900000000E+08    0.6800684401E+00    0.5594974640E-03    0.5811547373E-01    0.1103283074E-03    0.6267803636E+00
    0.2100000000E+08    0.6800695418E+00    0.5329508489E-03    0.5806996527E-01    0.1045497156E-03    0.6268749391E+00
    0.2300000000E+08    0.6800704632E+00    0.5099133213E-03    0.5802845125E-01    0.9955980125E-04    0.6269589965E+00
    0.2500000000E+08    0.6800712464E+00    0.4896720254E-03    0.5799028351E-01    0.9519535924E-04    0.6270345151E+00
    0.2700000000E+08    0.6800719211E+00    0.4717018851E-03    0.5795496025E-01    0.9133672678E-04    0.6271029759E+00
