  Pressure (Pa) 22mC5-400 (mol/kg) 2mC6-400 (mol/kg) 3mC6-400 (mol/kg) 33mC5-400 (mol/kg) C7-400 (mol/kg)
    0.1000000000E+01    0.2638760380E-02    0.5539556347E-02    0.2104454365E-02    0.1932984512E-03    0.1707460655E-02
    0.3000000000E+01    0.7770774512E-02    0.1612130807E-01    0.6159678142E-02    0.5625470059E-03    0.4998206999E-02
    0.5000000000E+01    0.1271979486E-01    0.2608439844E-01    0.1002307419E-01    0.9102154231E-03    0.8133946385E-02
    0.7000000000E+01    0.1749797880E-01    0.3547742240E-01    0.1370895426E-01    0.1237997931E-02    0.1112622873E-01
    0.9000000000E+01    0.2211639459E-01    0.4434411217E-01    0.1723021802E-01    0.1547419225E-02    0.1398546517E-01
    0.1100000000E+02    0.2658514162E-01    0.5272392560E-01    0.2059852401E-01    0.1839854982E-02    0.1672106578E-01
    0.1300000000E+02    0.3091345494E-01    0.6065255145E-01    0.2382443625E-01    0.2116549479E-02    0.1934155786E-01
    0.1500000000E+02    0.3510979658E-01    0.6816234510E-01    0.2691755050E-01    0.2378630782E-02    0.2185468768E-01
    0.1700000000E+02    0.3918193545E-01    0.7528270534E-01    0.2988660339E-01    0.2627123883E-02    0.2426750848E-01
    0.1900000000E+02    0.4313701757E-01    0.8204040151E-01    0.3273956712E-01    0.2862962108E-02    0.2658645680E-01
    0.2100000000E+02    0.4698162781E-01    0.8845985831E-01    0.3548373180E-01    0.3086997046E-02    0.2881741890E-01
    0.2300000000E+02    0.5072184450E-01    0.9456340461E-01    0.3812577736E-01    0.3300007220E-02    0.3096578876E-01
    0.2500000000E+02    0.5436328770E-01    0.1003714914E+00    0.4067183656E-01    0.3502705686E-02    0.3303651886E-01
    0.2700000000E+02    0.5791116208E-01    0.1059028830E+00    0.4312755031E-01    0.3695746709E-02    0.3503416478E-01
    0.2900000000E+02    0.6137029498E-01    0.1111748260E+00    0.4549811634E-01    0.3879731637E-02    0.3696292451E-01
    0.3100000000E+02    0.6474517046E-01    0.1162031981E+00    0.4778833225E-01    0.4055214094E-02    0.3882667312E-01
    0.3300000000E+02    0.6803995959E-01    0.1210026394E+00    0.5000263359E-01    0.4222704574E-02    0.4062899350E-01
    0.3500000000E+02    0.7125854766E-01    0.1255866702E+00    0.5214512767E-01    0.4382674515E-02    0.4237320361E-01
    0.3700000000E+02    0.7440455854E-01    0.1299677941E+00    0.5421962359E-01    0.4535559931E-02    0.4406238073E-01
    0.3900000000E+02    0.7748137661E-01    0.1341575916E+00    0.5622965910E-01    0.4681764636E-02    0.4569938311E-01
    0.4100000000E+02    0.8049216650E-01    0.1381668019E+00    0.5817852452E-01    0.4821663136E-02    0.4728686929E-01
    0.4300000000E+02    0.8343989085E-01    0.1420053979E+00    0.6006928424E-01    0.4955603208E-02    0.4882731537E-01
    0.4500000000E+02    0.8632732646E-01    0.1456826522E+00    0.6190479589E-01    0.5083908218E-02    0.5032303060E-01
    0.4700000000E+02    0.8915707882E-01    0.1492071966E+00    0.6368772775E-01    0.5206879202E-02    0.5177617132E-01
    0.4900000000E+02    0.9193159534E-01    0.1525870764E+00    0.6542057425E-01    0.5324796737E-02    0.5318875351E-01
    0.1000000000E+02    0.2436888038E-01    0.4859256496E-01    0.1893280640E-01    0.1695679638E-02    0.1536816757E-01
    0.3000000000E+02    0.6306799721E-01    0.1137185158E+00    0.4665298276E-01    0.3968502808E-02    0.3790269476E-01
    0.5000000000E+02    0.9329886472E-01    0.1542251327E+00    0.6626895096E-01    0.5381942966E-02    0.5388042960E-01
    0.7000000000E+02    0.1182364112E+00    0.1809705067E+00    0.8110149726E-01    0.6314639891E-02    0.6598435751E-01
    0.9000000000E+02    0.1395865798E+00    0.1993390278E+00    0.9284968527E-01    0.6954409780E-02    0.7558813528E-01
    0.1100000000E+03    0.1583551311E+00    0.2122848580E+00    0.1024781216E+00    0.7404339574E-02    0.8347212484E-01
    0.1300000000E+03    0.1751776993E+00    0.2215540405E+00    0.1105778009E+00    0.7725389471E-02    0.9011473185E-01
    0.1500000000E+03    0.1904783532E+00    0.2282392689E+00    0.1175325743E+00    0.7955733053E-02    0.9582686602E-01
    0.1700000000E+03    0.2045525880E+00    0.2330560400E+00    0.1236035385E+00    0.8120385241E-02    0.1008201315E+00
    0.1900000000E+03    0.2176138068E+00    0.2364903963E+00    0.1289750755E+00    0.8236353814E-02    0.1052440445E+00
    0.2100000000E+03    0.2298208235E+00    0.2388826917E+00    0.1337814982E+00    0.8315560657E-02    0.1092075800E+00
    0.2300000000E+03    0.2412948927E+00    0.2404774144E+00    0.1381232368E+00    0.8366579536E-02    0.1127922666E+00
    0.2500000000E+03    0.2521306665E+00    0.2414540323E+00    0.1420770788E+00    0.8395712212E-02    0.1160604732E+00
    0.2700000000E+03    0.2624034779E+00    0.2419467546E+00    0.1457028764E+00    0.8407678014E-02    0.1190608386E+00
    0.2900000000E+03    0.2721743207E+00    0.2420575698E+00    0.1490480705E+00    0.8406068939E-02    0.1218319354E+00
    0.3100000000E+03    0.2814933397E+00    0.2418650721E+00    0.1521508230E+00    0.8393657827E-02    0.1244048077E+00
    0.3300000000E+03    0.2904023298E+00    0.2414305723E+00    0.1550422364E+00    0.8372611809E-02    0.1268047692E+00
    0.3500000000E+03    0.2989365609E+00    0.2408024146E+00    0.1577479561E+00    0.8344643140E-02    0.1290527026E+00
    0.3700000000E+03    0.3071261324E+00    0.2400190802E+00    0.1602893508E+00    0.8311117707E-02    0.1311660162E+00
    0.3900000000E+03    0.3149969953E+00    0.2391114552E+00    0.1626843945E+00    0.8273134351E-02    0.1331593599E+00
    0.4100000000E+03    0.3225717334E+00    0.2381045120E+00    0.1649483351E+00    0.8231583698E-02    0.1350451674E+00
    0.4300000000E+03    0.3298701687E+00    0.2370185713E+00    0.1670942098E+00    0.8187192375E-02    0.1368340746E+00
    0.4500000000E+03    0.3369098352E+00    0.2358702623E+00    0.1691332445E+00    0.8140556640E-02    0.1385352437E+00
    0.4700000000E+03    0.3437063543E+00    0.2346732594E+00    0.1710751691E+00    0.8092168234E-02    0.1401566197E+00
    0.4900000000E+03    0.3502737353E+00    0.2334388548E+00    0.1729284677E+00    0.8042434476E-02    0.1417051332E+00
    0.1000000000E+03    0.1492475258E+00    0.2063607582E+00    0.9788569283E-01    0.7198600928E-02    0.7971015661E-01
    0.3000000000E+03    0.2768875243E+00    0.2419950557E+00    0.1506276638E+00    0.8401066010E-02    0.1231414504E+00
    0.5000000000E+03    0.3534754964E+00    0.2328106166E+00    0.1738242431E+00    0.8017171237E-02    0.1424539958E+00
    0.7000000000E+03    0.4080096863E+00    0.2198571632E+00    0.1884905422E+00    0.7498624528E-02    0.1547540291E+00
    0.9000000000E+03    0.4490198721E+00    0.2078683156E+00    0.1991448602E+00    0.7018113406E-02    0.1637388085E+00
    0.1100000000E+04    0.4807934886E+00    0.1974891217E+00    0.2074737586E+00    0.6600633079E-02    0.1707940305E+00
    0.1300000000E+04    0.5059449530E+00    0.1886087426E+00    0.2142866967E+00    0.6242669341E-02    0.1765870056E+00
    0.1500000000E+04    0.5262068721E+00    0.1809849688E+00    0.2200339320E+00    0.5935268792E-02    0.1814899995E+00
    0.1700000000E+04    0.5427788792E+00    0.1743859054E+00    0.2249915945E+00    0.5669553196E-02    0.1857318917E+00
    0.1900000000E+04    0.5565154847E+00    0.1686189188E+00    0.2293412077E+00    0.5437977373E-02    0.1894634828E+00
    0.2100000000E+04    0.5680386281E+00    0.1635307166E+00    0.2332084692E+00    0.5234431762E-02    0.1927894081E+00
    0.2300000000E+04    0.5778092217E+00    0.1590007876E+00    0.2366840058E+00    0.5054046232E-02    0.1957852477E+00
    0.2500000000E+04    0.5861743168E+00    0.1549343847E+00    0.2398353011E+00    0.4892948620E-02    0.1985073762E+00
    0.2700000000E+04    0.5933990116E+00    0.1512566073E+00    0.2427139484E+00    0.4748049870E-02    0.2009989616E+00
    0.2900000000E+04    0.5996884797E+00    0.1479077722E+00    0.2453602689E+00    0.4616870405E-02    0.2032937895E+00
    0.3100000000E+04    0.6052034460E+00    0.1448398949E+00    0.2478063653E+00    0.4497404973E-02    0.2054187965E+00
    0.3300000000E+04    0.6100712277E+00    0.1420140380E+00    0.2500782075E+00    0.4388018942E-02    0.2073958013E+00
    0.3500000000E+04    0.6143937242E+00    0.1393983157E+00    0.2521970959E+00    0.4287369034E-02    0.2092427216E+00
    0.3700000000E+04    0.6182532752E+00    0.1369663849E+00    0.2541807138E+00    0.4194342642E-02    0.2109744497E+00
    0.3900000000E+04    0.6217170084E+00    0.1346962971E+00    0.2560438984E+00    0.4108011169E-02    0.2126034951E+00
    0.4100000000E+04    0.6248401036E+00    0.1325696185E+00    0.2577992180E+00    0.4027593935E-02    0.2141404656E+00
    0.4300000000E+04    0.6276682687E+00    0.1305707503E+00    0.2594574095E+00    0.3952430055E-02    0.2155944325E+00
    0.4500000000E+04    0.6302396382E+00    0.1286863992E+00    0.2610277155E+00    0.3881956394E-02    0.2169732124E+00
    0.4700000000E+04    0.6325862418E+00    0.1269051608E+00    0.2625181476E+00    0.3815690134E-02    0.2182835873E+00
    0.4900000000E+04    0.6347351502E+00    0.1252171903E+00    0.2639356943E+00    0.3753214905E-02    0.2195314784E+00
    0.1000000000E+04    0.4658712905E+00    0.2024781248E+00    0.2035375294E+00    0.6801463517E-02    0.1674561699E+00
    0.3000000000E+04    0.6025341412E+00    0.1463413333E+00    0.2466065978E+00    0.4555783253E-02    0.2043760533E+00
    0.5000000000E+04    0.6357427985E+00    0.1244054647E+00    0.2646190813E+00    0.3723284200E-02    0.2201336424E+00
    0.7000000000E+04    0.6496202306E+00    0.1114821834E+00    0.2756190495E+00    0.3256992061E-02    0.2298807621E+00
    0.9000000000E+04    0.6570556145E+00    0.1025035821E+00    0.2833419934E+00    0.2944584656E-02    0.2367930236E+00
    0.1100000000E+05    0.6616401168E+00    0.9571266118E-01    0.2891906451E+00    0.2714496085E-02    0.2420721095E+00
    0.1300000000E+05    0.6647323422E+00    0.9030378696E-01    0.2938383019E+00    0.2534917356E-02    0.2462982978E+00
    0.1500000000E+05    0.6669517693E+00    0.8584257041E-01    0.2976573911E+00    0.2389169005E-02    0.2497941986E+00
    0.1700000000E+05    0.6686188754E+00    0.8206882458E-01    0.3008742143E+00    0.2267496095E-02    0.2527567183E+00
    0.1900000000E+05    0.6699152981E+00    0.7881478171E-01    0.3036358597E+00    0.2163734964E-02    0.2553143528E+00
    0.2100000000E+05    0.6709513505E+00    0.7596619370E-01    0.3060429135E+00    0.2073760309E-02    0.2575552961E+00
    0.2300000000E+05    0.6717977571E+00    0.7344191031E-01    0.3081669559E+00    0.1994685353E-02    0.2595425221E+00
    0.2500000000E+05    0.6725018820E+00    0.7118232415E-01    0.3100605859E+00    0.1924417033E-02    0.2613224521E+00
    0.2700000000E+05    0.6730966025E+00    0.6914243689E-01    0.3117634906E+00    0.1861393203E-02    0.2629302155E+00
    0.2900000000E+05    0.6736054354E+00    0.6728749610E-01    0.3133062858E+00    0.1804419557E-02    0.2643929886E+00
    0.3100000000E+05    0.6740456355E+00    0.6559014017E-01    0.3147130396E+00    0.1752564250E-02    0.2657321920E+00
    0.3300000000E+05    0.6744301437E+00    0.6402846761E-01    0.3160029830E+00    0.1705087443E-02    0.2669649854E+00
    0.3500000000E+05    0.6747688517E+00    0.6258469441E-01    0.3171917018E+00    0.1661392809E-02    0.2681053090E+00
    0.3700000000E+05    0.6750694477E+00    0.6124419753E-01    0.3182919856E+00    0.1620993307E-02    0.2691646292E+00
    0.3900000000E+05    0.6753379957E+00    0.5999481889E-01    0.3193144463E+00    0.1583486491E-02    0.2701524811E+00
    0.4100000000E+05    0.6755793421E+00    0.5882634948E-01    0.3202679757E+00    0.1548536356E-02    0.2710768719E+00
    0.4300000000E+05    0.6757974059E+00    0.5773014075E-01    0.3211600914E+00    0.1515859750E-02    0.2719445849E+00
    0.4500000000E+05    0.6759953898E+00    0.5669880729E-01    0.3219971995E+00    0.1485216065E-02    0.2727614127E+00
    0.4700000000E+05    0.6761759364E+00    0.5572599659E-01    0.3227847989E+00    0.1456399289E-02    0.2735323372E+00
    0.4900000000E+05    0.6763412452E+00    0.5480620846E-01    0.3235276416E+00    0.1429231815E-02    0.2742616718E+00
    0.1000000000E+05    0.6595931924E+00    0.9889744710E-01    0.2864486007E+00    0.2821749932E-02    0.2395919619E+00
    0.3000000000E+05    0.6738332219E+00    0.6642059884E-01    0.3140253685E+00    0.1777902199E-02    0.2650768781E+00
    0.5000000000E+05    0.6764187740E+00    0.5436467624E-01    0.3238835914E+00    0.1416217607E-02    0.2746119360E+00
    0.7000000000E+05    0.6774927393E+00    0.4742371426E-01    0.3294209490E+00    0.1213964471E-02    0.2801346018E+00
    0.9000000000E+05    0.6780798582E+00    0.4273151749E-01    0.3330959064E+00    0.1079766104E-02    0.2838915839E+00
    0.1100000000E+06    0.6784497993E+00    0.3927276024E-01    0.3357644067E+00    0.9821954334E-03    0.2866782654E+00
    0.1300000000E+06    0.6787041996E+00    0.3657999303E-01    0.3378153279E+00    0.9070559907E-03    0.2888609081E+00
    0.1500000000E+06    0.6788898590E+00    0.3440282484E-01    0.3394547441E+00    0.8468493101E-03    0.2906358662E+00
    0.1700000000E+06    0.6790313173E+00    0.3259299294E-01    0.3408035711E+00    0.7971844643E-03    0.2921195505E+00
    0.1900000000E+06    0.6791426788E+00    0.3105617718E-01    0.3419381247E+00    0.7552936939E-03    0.2933861286E+00
    0.2100000000E+06    0.6792326254E+00    0.2972903922E-01    0.3429092929E+00    0.7193329320E-03    0.2944854884E+00
    0.2300000000E+06    0.6793067931E+00    0.2856720700E-01    0.3437524991E+00    0.6880191334E-03    0.2954526403E+00
    0.2500000000E+06    0.6793690000E+00    0.2753851837E-01    0.3444932699E+00    0.6604279444E-03    0.2963130067E+00
    0.2700000000E+06    0.6794219244E+00    0.2661899856E-01    0.3451505315E+00    0.6358740708E-03    0.2970855735E+00
    0.2900000000E+06    0.6794675005E+00    0.2579035128E-01    0.3457386547E+00    0.6138371154E-03    0.2977848564E+00
    0.3100000000E+06    0.6795071601E+00    0.2503833211E-01    0.3462687755E+00    0.5939137601E-03    0.2984221777E+00
    0.3300000000E+06    0.6795419856E+00    0.2435165886E-01    0.3467496746E+00    0.5757858912E-03    0.2990065217E+00
    0.3500000000E+06    0.6795728106E+00    0.2372126080E-01    0.3471883819E+00    0.5591987390E-03    0.2995451251E+00
    0.3700000000E+06    0.6796002874E+00    0.2313974870E-01    0.3475906011E+00    0.5439455101E-03    0.3000438939E+00
    0.3900000000E+06    0.6796249339E+00    0.2260103265E-01    0.3479610151E+00    0.5298563496E-03    0.3005077044E+00
    0.4100000000E+06    0.6796471662E+00    0.2210004122E-01    0.3483035091E+00    0.5167902581E-03    0.3009406246E+00
    0.4300000000E+06    0.6796673228E+00    0.2163251160E-01    0.3486213374E+00    0.5046290738E-03    0.3013460800E+00
    0.4500000000E+06    0.6796856817E+00    0.2119483043E-01    0.3489172488E+00    0.4932729209E-03    0.3017269793E+00
    0.4700000000E+06    0.6797024734E+00    0.2078391139E-01    0.3491935838E+00    0.4826367216E-03    0.3020858114E+00
    0.4900000000E+06    0.6797178904E+00    0.2039709998E-01    0.3494523489E+00    0.4726474887E-03    0.3024247204E+00
    0.1000000000E+06    0.6782836851E+00    0.4088442519E-01    0.3345255287E+00    0.1027514592E-02    0.2853776447E+00
    0.3000000000E+06    0.6794879954E+00    0.2540552764E-01    0.3460103696E+00    0.6036328222E-03    0.2981106538E+00
    0.5000000000E+06    0.6797251352E+00    0.2021200437E-01    0.3495756931E+00    0.4678754497E-03    0.3025872945E+00
    0.7000000000E+06    0.6798264973E+00    0.1735160448E-01    0.3514379901E+00    0.3948159665E-03    0.3051370719E+00
    0.9000000000E+06    0.6798827843E+00    0.1546917698E-01    0.3526106118E+00    0.3474891382E-03    0.3068615630E+00
    0.1100000000E+07    0.6799186146E+00    0.1410717523E-01    0.3534263439E+00    0.3136567326E-03    0.3081388533E+00
    0.1300000000E+07    0.6799434363E+00    0.1306146460E-01    0.3540304011E+00    0.2879333048E-03    0.3091400076E+00
    0.1500000000E+07    0.6799616537E+00    0.1222517550E-01    0.3544973631E+00    0.2675295140E-03    0.3099557040E+00
    0.1700000000E+07    0.6799755972E+00    0.1153614099E-01    0.3548698724E+00    0.2508370297E-03    0.3106392893E+00
    0.1900000000E+07    0.6799866157E+00    0.1095537464E-01    0.3551742518E+00    0.2368547751E-03    0.3112245678E+00
    0.2100000000E+07    0.6799955440E+00    0.1045700553E-01    0.3554277124E+00    0.2249227817E-03    0.3117341892E+00
    0.2300000000E+07    0.6800029267E+00    0.1002309162E-01    0.3556420258E+00    0.2145859960E-03    0.3121840042E+00
    0.2500000000E+07    0.6800091342E+00    0.9640740779E-02    0.3558255388E+00    0.2055191433E-03    0.3125854997E+00
    0.2700000000E+07    0.6800144272E+00    0.9300415764E-02    0.3559843488E+00    0.1974827315E-03    0.3129472422E+00
    0.2900000000E+07    0.6800189945E+00    0.8994887208E-02    0.3561230215E+00    0.1902960082E-03    0.3132757753E+00
    0.3100000000E+07    0.6800229762E+00    0.8718560596E-02    0.3562450490E+00    0.1838196552E-03    0.3135762003E+00
    0.3300000000E+07    0.6800264786E+00    0.8467028841E-02    0.3563531508E+00    0.1779443316E-03    0.3138525639E+00
    0.3500000000E+07    0.6800295836E+00    0.8236766132E-02    0.3564494788E+00    0.1725828641E-03    0.3141081256E+00
    0.3700000000E+07    0.6800323554E+00    0.8024913159E-02    0.3565357593E+00    0.1676647875E-03    0.3143455457E+00
    0.3900000000E+07    0.6800348451E+00    0.7829123105E-02    0.3566133944E+00    0.1631324434E-03    0.3145670218E+00
    0.4100000000E+07    0.6800370940E+00    0.7647449069E-02    0.3566835353E+00    0.1589381368E-03    0.3147743878E+00
    0.4300000000E+07    0.6800391354E+00    0.7478260339E-02    0.3567471366E+00    0.1550420278E-03    0.3149691888E+00
    0.4500000000E+07    0.6800409970E+00    0.7320179172E-02    0.3568049968E+00    0.1514105441E-03    0.3151527377E+00
    0.4700000000E+07    0.6800427015E+00    0.7172032379E-02    0.3568577893E+00    0.1480151690E-03    0.3153261587E+00
    0.4900000000E+07    0.6800442683E+00    0.7032813794E-02    0.3569060861E+00    0.1448315030E-03    0.3154904211E+00
    0.1000000000E+07    0.6799024886E+00    0.1473916113E-01    0.3530516166E+00    0.3293106140E-03    0.3075427165E+00
    0.3000000000E+07    0.6800210513E+00    0.8853372803E-02    0.3561859306E+00    0.1869764663E-03    0.3134292273E+00
    0.5000000000E+07    0.6800450051E+00    0.6966276447E-02    0.3569287043E+00    0.1433123782E-03    0.3155693850E+00
    0.7000000000E+07    0.6800553592E+00    0.5944641392E-02    0.3572334039E+00    0.1201976346E-03    0.3168238559E+00
    0.9000000000E+07    0.6800611546E+00    0.5278991030E-02    0.3573800922E+00    0.1053675108E-03    0.3176925550E+00
    0.1100000000E+08    0.6800648674E+00    0.4800627510E-02    0.3574532017E+00    0.9483507982E-04    0.3183489529E+00
    0.1300000000E+08    0.6800674538E+00    0.4435187665E-02    0.3574869600E+00    0.8686572213E-04    0.3188724136E+00
    0.1500000000E+08    0.6800693615E+00    0.4144071344E-02    0.3574977809E+00    0.8056823451E-04    0.3193054524E+00
    0.1700000000E+08    0.6800708282E+00    0.3904969923E-02    0.3574944478E+00    0.7543190695E-04    0.3196733302E+00
    0.1900000000E+08    0.6800719921E+00    0.3703965382E-02    0.3574820382E+00    0.7114041722E-04    0.3199922024E+00
    0.2100000000E+08    0.6800729389E+00    0.3531861177E-02    0.3574636603E+00    0.6748607102E-04    0.3202729874E+00
    0.2300000000E+08    0.6800737247E+00    0.3382302177E-02    0.3574413016E+00    0.6432615048E-04    0.3205233888E+00
    0.2500000000E+08    0.6800743877E+00    0.3250736012E-02    0.3574162778E+00    0.6155893967E-04    0.3207490319E+00
    0.2700000000E+08    0.6800749550E+00    0.3133804002E-02    0.3573894832E+00    0.5910973922E-04    0.3209541424E+00
