  Pressure (Pa) 22mC5-400 (mol/kg) 2mC6-400 (mol/kg) 3mC6-400 (mol/kg) 33mC5-400 (mol/kg) C7-400 (mol/kg)
    0.1000000000E+01    0.2645156652E-02    0.3135874482E-02    0.1038811456E-02    0.6384114305E-04    0.1348641834E-01
    0.3000000000E+01    0.7825919034E-02    0.8966960478E-02    0.2967684102E-02    0.1826164160E-03    0.3853701274E-01
    0.5000000000E+01    0.1286666398E-01    0.1427596238E-01    0.4721256868E-02    0.2908417237E-03    0.6132183443E-01
    0.7000000000E+01    0.1777422593E-01    0.1912933347E-01    0.6322855035E-02    0.3898624908E-03    0.8214190257E-01
    0.9000000000E+01    0.2255498858E-01    0.2358235505E-01    0.7791821070E-02    0.4807973713E-03    0.1012468767E+00
    0.1100000000E+02    0.2721492152E-01    0.2768142543E-01    0.9144331145E-02    0.5645847911E-03    0.1188455807E+00
    0.1300000000E+02    0.3175961333E-01    0.3146580521E-01    0.1039401860E-01    0.6420184251E-03    0.1351140402E+00
    0.1500000000E+02    0.3619430167E-01    0.3496896407E-01    0.1155245559E-01    0.7137745636E-03    0.1502016911E+00
    0.1700000000E+02    0.4052390040E-01    0.3821963153E-01    0.1262952922E-01    0.7804334547E-03    0.1642362300E+00
    0.1900000000E+02    0.4475302440E-01    0.4124262494E-01    0.1363373813E-01    0.8424961177E-03    0.1773274373E+00
    0.2100000000E+02    0.4888601200E-01    0.4405950820E-01    0.1457242853E-01    0.9003977136E-03    0.1895702223E+00
    0.2300000000E+02    0.5292694550E-01    0.4668912039E-01    0.1545198359E-01    0.9545182696E-03    0.2010470651E+00
    0.2500000000E+02    0.5687966990E-01    0.4914800332E-01    0.1627797675E-01    0.1005191352E-02    0.2118299936E+00
    0.2700000000E+02    0.6074780994E-01    0.5145075013E-01    0.1705529644E-01    0.1052711133E-02    0.2219821935E+00
    0.2900000000E+02    0.6453478577E-01    0.5361029135E-01    0.1778824859E-01    0.1097338187E-02    0.2315593293E+00
    0.3100000000E+02    0.6824382725E-01    0.5563813136E-01    0.1848064111E-01    0.1139304285E-02    0.2406106354E+00
    0.3300000000E+02    0.7187798710E-01    0.5754454500E-01    0.1913585413E-01    0.1178816370E-02    0.2491798216E+00
    0.3500000000E+02    0.7544015295E-01    0.5933874197E-01    0.1975689865E-01    0.1216059890E-02    0.2573058307E+00
    0.3700000000E+02    0.7893305841E-01    0.6102900514E-01    0.2034646576E-01    0.1251201594E-02    0.2650234732E+00
    0.3900000000E+02    0.8235929333E-01    0.6262280747E-01    0.2090696823E-01    0.1284391896E-02    0.2723639639E+00
    0.4100000000E+02    0.8572131316E-01    0.6412691137E-01    0.2144057569E-01    0.1315766889E-02    0.2793553767E+00
    0.4300000000E+02    0.8902144763E-01    0.6554745343E-01    0.2194924468E-01    0.1345450051E-02    0.2860230317E+00
    0.4500000000E+02    0.9226190879E-01    0.6689001719E-01    0.2243474425E-01    0.1373553719E-02    0.2923898265E+00
    0.4700000000E+02    0.9544479836E-01    0.6815969572E-01    0.2289867804E-01    0.1400180353E-02    0.2984765207E+00
    0.4900000000E+02    0.9857211467E-01    0.6936114571E-01    0.2334250324E-01    0.1425423627E-02    0.3043019810E+00
    0.1000000000E+02    0.2489970091E-01    0.2567353051E-01    0.8481727657E-02    0.5235318709E-03    0.1102228225E+00
    0.3000000000E+02    0.6639885351E-01    0.5464000508E-01    0.1813929426E-01    0.1118640382E-02    0.2361478592E+00
    0.5000000000E+02    0.1001155306E+00    0.6993763259E-01    0.2355729454E-01    0.1437553611E-02    0.3071221795E+00
    0.7000000000E+02    0.1284825700E+00    0.7875372158E-01    0.2706417923E-01    0.1624993617E-02    0.3532667968E+00
    0.9000000000E+02    0.1529771639E+00    0.8398038840E-01    0.2953933925E-01    0.1739148968E-02    0.3859759712E+00
    0.1100000000E+03    0.1745511849E+00    0.8703242692E-01    0.3139071146E-01    0.1808522572E-02    0.4105436120E+00
    0.1300000000E+03    0.1938478780E+00    0.8868900895E-01    0.3283430995E-01    0.1848857716E-02    0.4297772893E+00
    0.1500000000E+03    0.2113192238E+00    0.8941465957E-01    0.3399566459E-01    0.1869579572E-02    0.4453109929E+00
    0.1700000000E+03    0.2272933569E+00    0.8950248372E-01    0.3495294219E-01    0.1876666703E-02    0.4581637103E+00
    0.1900000000E+03    0.2420152206E+00    0.8914546174E-01    0.3575748964E-01    0.1874080238E-02    0.4690057826E+00
    0.2100000000E+03    0.2556721039E+00    0.8847491059E-01    0.3644450466E-01    0.1864535303E-02    0.4782973855E+00
    0.2300000000E+03    0.2684102496E+00    0.8758255218E-01    0.3703896885E-01    0.1849944140E-02    0.4863655949E+00
    0.2500000000E+03    0.2803459845E+00    0.8653381037E-01    0.3755913335E-01    0.1831683551E-02    0.4934497044E+00
    0.2700000000E+03    0.2915733752E+00    0.8537614821E-01    0.3801866205E-01    0.1810762927E-02    0.4997291129E+00
    0.2900000000E+03    0.3021696174E+00    0.8414447144E-01    0.3842800081E-01    0.1787933420E-02    0.5053411578E+00
    0.3100000000E+03    0.3121989079E+00    0.8286472981E-01    0.3879528129E-01    0.1763760914E-02    0.5103928963E+00
    0.3300000000E+03    0.3217152767E+00    0.8155637582E-01    0.3912693465E-01    0.1738676006E-02    0.5149691118E+00
    0.3500000000E+03    0.3307646940E+00    0.8023407859E-01    0.3942811860E-01    0.1713008971E-02    0.5191378905E+00
    0.3700000000E+03    0.3393866604E+00    0.7890894056E-01    0.3970302114E-01    0.1687014683E-02    0.5229545905E+00
    0.3900000000E+03    0.3476154235E+00    0.7758937525E-01    0.3995508073E-01    0.1660890678E-02    0.5264647221E+00
    0.4100000000E+03    0.3554809208E+00    0.7628174969E-01    0.4018714872E-01    0.1634790429E-02    0.5297060735E+00
    0.4300000000E+03    0.3630095184E+00    0.7499086045E-01    0.4040161095E-01    0.1608833247E-02    0.5327103044E+00
    0.4500000000E+03    0.3702245956E+00    0.7372029069E-01    0.4060048016E-01    0.1583111737E-02    0.5355041575E+00
    0.4700000000E+03    0.3771470133E+00    0.7247268048E-01    0.4078546706E-01    0.1557697484E-02    0.5381103908E+00
    0.4900000000E+03    0.3837954912E+00    0.7124993352E-01    0.4095803558E-01    0.1532645437E-02    0.5405485042E+00
    0.1000000000E+03    0.1640835097E+00    0.8571969102E-01    0.3052661734E-01    0.1778251872E-02    0.3990646650E+00
    0.3000000000E+03    0.3072515441E+00    0.8350926367E-01    0.3861646226E-01    0.1775985427E-02    0.5079313191E+00
    0.5000000000E+03    0.3870223439E+00    0.7064831727E-01    0.4104006386E-01    0.1520268711E-02    0.5417098620E+00
    0.7000000000E+03    0.4405430874E+00    0.6005180799E-01    0.4225909821E-01    0.1297311400E-02    0.5591909833E+00
    0.9000000000E+03    0.4790493341E+00    0.5193649430E-01    0.4300602825E-01    0.1120779796E-02    0.5701758593E+00
    0.1100000000E+04    0.5079191335E+00    0.4570594712E-01    0.4351527871E-01    0.9820781192E-03    0.5778409193E+00
    0.1300000000E+04    0.5302224944E+00    0.4084439289E-01    0.4388670335E-01    0.8720213698E-03    0.5835543719E+00
    0.1500000000E+04    0.5478697083E+00    0.3698005644E-01    0.4417052214E-01    0.7834553200E-03    0.5880114240E+00
    0.1700000000E+04    0.5621135326E+00    0.3385285988E-01    0.4439493386E-01    0.7111356838E-03    0.5916061809E+00
    0.1900000000E+04    0.5738069995E+00    0.3128021105E-01    0.4457707187E-01    0.6512560967E-03    0.5945802609E+00
    0.2100000000E+04    0.5835484936E+00    0.2913216450E-01    0.4472798414E-01    0.6010376107E-03    0.5970908005E+00
    0.2300000000E+04    0.5917683410E+00    0.2731469811E-01    0.4485513387E-01    0.5584279829E-03    0.5992448212E+00
    0.2500000000E+04    0.5987827227E+00    0.2575861690E-01    0.4496375496E-01    0.5218913029E-03    0.6011179690E+00
    0.2700000000E+04    0.6048283753E+00    0.2441215480E-01    0.4505763268E-01    0.4902622985E-03    0.6027653702E+00
    0.2900000000E+04    0.6100855500E+00    0.2323598172E-01    0.4513957614E-01    0.4626450833E-03    0.6042282386E+00
    0.3100000000E+04    0.6146935681E+00    0.2219978345E-01    0.4521171622E-01    0.4383421413E-03    0.6055380628E+00
    0.3300000000E+04    0.6187615848E+00    0.2127988236E-01    0.4527570017E-01    0.4168039381E-03    0.6067193558E+00
    0.3500000000E+04    0.6223761781E+00    0.2045755631E-01    0.4533282237E-01    0.3975927215E-03    0.6077915129E+00
    0.3700000000E+04    0.6256067908E+00    0.1971783324E-01    0.4538411477E-01    0.3803561860E-03    0.6087701010E+00
    0.3900000000E+04    0.6285096939E+00    0.1904861446E-01    0.4543041061E-01    0.3648080789E-03    0.6096677731E+00
    0.4100000000E+04    0.6311309142E+00    0.1844002863E-01    0.4547239039E-01    0.3507137480E-03    0.6104949307E+00
    0.4300000000E+04    0.6335084250E+00    0.1788394957E-01    0.4551061560E-01    0.3378792507E-03    0.6112602106E+00
    0.4500000000E+04    0.6356738054E+00    0.1737363231E-01    0.4554555378E-01    0.3261430602E-03    0.6119708506E+00
    0.4700000000E+04    0.6376535107E+00    0.1690343527E-01    0.4557759754E-01    0.3153696847E-03    0.6126329661E+00
    0.4900000000E+04    0.6394698556E+00    0.1646860599E-01    0.4560707905E-01    0.3054447126E-03    0.6132517633E+00
    0.1000000000E+04    0.4944611271E+00    0.4862144308E-01    0.4328242685E-01    0.1047316253E-02    0.5743149297E+00
    0.3000000000E+04    0.6124632758E+00    0.2270199866E-01    0.4517675909E-01    0.4501166613E-03    0.6049006108E+00
    0.5000000000E+04    0.6403228014E+00    0.1626317043E-01    0.4562094907E-01    0.3007694154E-03    0.6135463375E+00
    0.7000000000E+04    0.6521780737E+00    0.1329408796E-01    0.4581466139E-01    0.2344680152E-03    0.6179740239E+00
    0.9000000000E+04    0.6586506912E+00    0.1153067967E-01    0.4591899107E-01    0.1966132282E-03    0.6207627028E+00
    0.1100000000E+05    0.6627052855E+00    0.1033488912E-01    0.4598139620E-01    0.1718183068E-03    0.6227203807E+00
    0.1300000000E+05    0.6654760195E+00    0.9456264652E-02    0.4602095367E-01    0.1541293610E-03    0.6241902676E+00
    0.1500000000E+05    0.6674863759E+00    0.8775330810E-02    0.4604681089E-01    0.1407591443E-03    0.6253456683E+00
    0.1700000000E+05    0.6690102876E+00    0.8227272723E-02    0.4606389063E-01    0.1302253624E-03    0.6262845918E+00
    0.1900000000E+05    0.6702046266E+00    0.7773576583E-02    0.4607506815E-01    0.1216642351E-03    0.6270671105E+00
    0.2100000000E+05    0.6711655504E+00    0.7389752217E-02    0.4608212883E-01    0.1145365905E-03    0.6277323335E+00
    0.2300000000E+05    0.6719552198E+00    0.7059390002E-02    0.4608623524E-01    0.1084873699E-03    0.6283069467E+00
    0.2500000000E+05    0.6726155733E+00    0.6771027633E-02    0.4608817370E-01    0.1032725257E-03    0.6288098574E+00
    0.2700000000E+05    0.6731759167E+00    0.6516383069E-02    0.4608849274E-01    0.9871833346E-04    0.6292548817E+00
    0.2900000000E+05    0.6736573390E+00    0.6289302011E-02    0.4608758498E-01    0.9469746984E-04    0.6296523789E+00
    0.3100000000E+05    0.6740753986E+00    0.6085102043E-02    0.4608573757E-01    0.9111429215E-04    0.6300102883E+00
    0.3300000000E+05    0.6744418227E+00    0.5900148145E-02    0.4608316443E-01    0.8789542526E-04    0.6303348095E+00
    0.3500000000E+05    0.6747656161E+00    0.5731568937E-02    0.4608002743E-01    0.8498354182E-04    0.6306308636E+00
    0.3700000000E+05    0.6750538074E+00    0.5577061636E-02    0.4607645075E-01    0.8233313377E-04    0.6309024126E+00
    0.3900000000E+05    0.6753119621E+00    0.5434754698E-02    0.4607253079E-01    0.7990756572E-04    0.6311526872E+00
    0.4100000000E+05    0.6755445440E+00    0.5303109004E-02    0.4606834315E-01    0.7767697612E-04    0.6313843513E+00
    0.4300000000E+05    0.6757551750E+00    0.5180845418E-02    0.4606394764E-01    0.7561675310E-04    0.6315996240E+00
    0.4500000000E+05    0.6759468242E+00    0.5066890774E-02    0.4605939196E-01    0.7370640840E-04    0.6318003703E+00
    0.4700000000E+05    0.6761219487E+00    0.4960337003E-02    0.4605471443E-01    0.7192873221E-04    0.6319881708E+00
    0.4900000000E+05    0.6762825992E+00    0.4860409761E-02    0.4604994597E-01    0.7026915008E-04    0.6321643751E+00
    0.1000000000E+05    0.6608878450E+00    0.1088207067E-01    0.4595389730E-01    0.1830666694E-03    0.6218181543E+00
    0.3000000000E+05    0.6738734816E+00    0.6184589772E-02    0.4608676394E-01    0.9285619323E-04    0.6298358600E+00
    0.5000000000E+05    0.6763580467E+00    0.4812719561E-02    0.4604753568E-01    0.6947968600E-04    0.6322484977E+00
    0.7000000000E+05    0.6774106224E+00    0.4085586867E-02    0.4599865368E-01    0.5764778106E-04    0.6335339243E+00
    0.9000000000E+05    0.6779928384E+00    0.3616413490E-02    0.4595261291E-01    0.5021737322E-04    0.6343673542E+00
    0.1100000000E+06    0.6783627487E+00    0.3281183041E-02    0.4591085781E-01    0.4500680676E-04    0.6349660356E+00
    0.1300000000E+06    0.6786187743E+00    0.3026083041E-02    0.4587310893E-01    0.4109749600E-04    0.6354242033E+00
    0.1500000000E+06    0.6788066149E+00    0.2823445641E-02    0.4583882105E-01    0.3802710124E-04    0.6357902750E+00
    0.1700000000E+06    0.6789503871E+00    0.2657383352E-02    0.4580747601E-01    0.3553441575E-04    0.6360920421E+00
    0.1900000000E+06    0.6790640238E+00    0.2518030718E-02    0.4577863636E-01    0.3345933796E-04    0.6363467613E+00
    0.2100000000E+06    0.6791561382E+00    0.2398892448E-02    0.4575194392E-01    0.3169758929E-04    0.6365657976E+00
    0.2300000000E+06    0.6792323425E+00    0.2295492935E-02    0.4572710685E-01    0.3017797151E-04    0.6367569871E+00
    0.2500000000E+06    0.6792964510E+00    0.2204633696E-02    0.4570388634E-01    0.2885000548E-04    0.6369259343E+00
    0.2700000000E+06    0.6793511470E+00    0.2123959580E-02    0.4568208550E-01    0.2767678064E-04    0.6370767703E+00
    0.2900000000E+06    0.6793983734E+00    0.2051692571E-02    0.4566154060E-01    0.2663060464E-04    0.6372126175E+00
    0.3100000000E+06    0.6794395718E+00    0.1986461641E-02    0.4564211426E-01    0.2569024352E-04    0.6373358870E+00
    0.3300000000E+06    0.6794758345E+00    0.1927190193E-02    0.4562369024E-01    0.2483910823E-04    0.6374484744E+00
    0.3500000000E+06    0.6795080045E+00    0.1873019370E-02    0.4560616940E-01    0.2406402662E-04    0.6375518944E+00
    0.3700000000E+06    0.6795367425E+00    0.1823254471E-02    0.4558946654E-01    0.2335438998E-04    0.6376473741E+00
    0.3900000000E+06    0.6795625740E+00    0.1777326654E-02    0.4557350794E-01    0.2270154620E-04    0.6377359199E+00
    0.4100000000E+06    0.6795859223E+00    0.1734765031E-02    0.4555822941E-01    0.2209835970E-04    0.6378183661E+00
    0.4300000000E+06    0.6796071318E+00    0.1695175974E-02    0.4554357472E-01    0.2153888637E-04    0.6378954116E+00
    0.4500000000E+06    0.6796264861E+00    0.1658227532E-02    0.4552949432E-01    0.2101812985E-04    0.6379676464E+00
    0.4700000000E+06    0.6796442205E+00    0.1623637521E-02    0.4551594438E-01    0.2053185595E-04    0.6380355733E+00
    0.4900000000E+06    0.6796605321E+00    0.1591164320E-02    0.4550288589E-01    0.2007644965E-04    0.6380996234E+00
    0.1000000000E+06    0.6781963227E+00    0.3436307529E-02    0.4593120397E-01    0.4740766747E-04    0.6346885907E+00
    0.3000000000E+06    0.6794196510E+00    0.2018270748E-02    0.4565169532E-01    0.2614832628E-04    0.6372756957E+00
    0.5000000000E+06    0.6796682073E+00    0.1575655300E-02    0.4549652991E-01    0.1985933349E-04    0.6381303130E+00
    0.7000000000E+06    0.6797763993E+00    0.1338428105E-02    0.4538842205E-01    0.1657056987E-04    0.6386090397E+00
    0.9000000000E+06    0.6798373456E+00    0.1184787954E-02    0.4530521125E-01    0.1447524953E-04    0.6389306925E+00
    0.1100000000E+07    0.6798766203E+00    0.1074839025E-02    0.4523747317E-01    0.1299421534E-04    0.6391683044E+00
    0.1300000000E+07    0.6799041264E+00    0.9911125619E-03    0.4518030622E-01    0.1187756711E-04    0.6393544092E+00
    0.1500000000E+07    0.6799245153E+00    0.9245843689E-03    0.4513082939E-01    0.1099764806E-04    0.6395060819E+00
    0.1700000000E+07    0.6799402647E+00    0.8700582568E-03    0.4508720305E-01    0.1028162008E-04    0.6396333000E+00
    0.1900000000E+07    0.6799528171E+00    0.8243020806E-03    0.4504817978E-01    0.9684524001E-05    0.6397423555E+00
    0.2100000000E+07    0.6799630707E+00    0.7851854729E-03    0.4501287418E-01    0.9176923676E-05    0.6398374494E+00
    0.2300000000E+07    0.6799716142E+00    0.7512394097E-03    0.4498063486E-01    0.8738640362E-05    0.6399215139E+00
    0.2500000000E+07    0.6799788501E+00    0.7214135341E-03    0.4495096843E-01    0.8355322218E-05    0.6399966698E+00
    0.2700000000E+07    0.6799850629E+00    0.6949341725E-03    0.4492349213E-01    0.8016448421E-05    0.6400644966E+00
    0.2900000000E+07    0.6799904597E+00    0.6712171109E-03    0.4489790297E-01    0.7714109205E-05    0.6401261995E+00
    0.3100000000E+07    0.6799951947E+00    0.6498117962E-03    0.4487395697E-01    0.7442229000E-05    0.6401827172E+00
    0.3300000000E+07    0.6799993854E+00    0.6303644007E-03    0.4485145475E-01    0.7196054342E-05    0.6402347941E+00
    0.3500000000E+07    0.6800031227E+00    0.6125926455E-03    0.4483023124E-01    0.6971806168E-05    0.6402830296E+00
    0.3700000000E+07    0.6800064784E+00    0.5962681999E-03    0.4481014823E-01    0.6766437612E-05    0.6403279128E+00
    0.3900000000E+07    0.6800095094E+00    0.5812041012E-03    0.4479108884E-01    0.6577461467E-05    0.6403698478E+00
    0.4100000000E+07    0.6800122620E+00    0.5672455850E-03    0.4477295331E-01    0.6402824817E-05    0.6404091716E+00
    0.4300000000E+07    0.6800147740E+00    0.5542632846E-03    0.4475565585E-01    0.6240816336E-05    0.6404461684E+00
    0.4500000000E+07    0.6800170764E+00    0.5421481080E-03    0.4473912210E-01    0.6089996654E-05    0.6404810797E+00
    0.4700000000E+07    0.6800191952E+00    0.5308073242E-03    0.4472328722E-01    0.5949145296E-05    0.6405141123E+00
    0.4900000000E+07    0.6800211522E+00    0.5201615358E-03    0.4470809429E-01    0.5817219744E-05    0.6405454446E+00
    0.1000000000E+07    0.6798588887E+00    0.1125730216E-02    0.4526977950E-01    0.1367772780E-04    0.6390574485E+00
    0.3000000000E+07    0.6799929018E+00    0.6602495264E-03    0.4488573794E-01    0.7574685102E-05    0.6401550560E+00
    0.5000000000E+07    0.6800220759E+00    0.5150775052E-03    0.4470072263E-01    0.5754319003E-05    0.6405605223E+00
    0.7000000000E+07    0.6800353288E+00    0.4373407231E-03    0.4457740443E-01    0.4801217121E-05    0.6408015585E+00
    0.9000000000E+07    0.6800430467E+00    0.3870257036E-03    0.4448471405E-01    0.4193772781E-05    0.6409703478E+00
    0.1100000000E+08    0.6800481603E+00    0.3510351697E-03    0.4441040720E-01    0.3764370861E-05    0.6410990570E+00
    0.1300000000E+08    0.6800518290E+00    0.3236377245E-03    0.4434837800E-01    0.3440614053E-05    0.6412024897E+00
    0.1500000000E+08    0.6800546071E+00    0.3018739860E-03    0.4429513576E-01    0.3185501052E-05    0.6412886203E+00
    0.1700000000E+08    0.6800567947E+00    0.2840405865E-03    0.4424849582E-01    0.2977914014E-05    0.6413622115E+00
    0.1900000000E+08    0.6800585692E+00    0.2690783377E-03    0.4420699938E-01    0.2804816029E-05    0.6414263239E+00
    0.2100000000E+08    0.6800600423E+00    0.2562893022E-03    0.4416962365E-01    0.2657670710E-05    0.6414830350E+00
    0.2300000000E+08    0.6800612882E+00    0.2451923226E-03    0.4413562366E-01    0.2530626036E-05    0.6415338167E+00
    0.2500000000E+08    0.6800623582E+00    0.2354434419E-03    0.4410443990E-01    0.2419519772E-05    0.6415797477E+00
    0.2700000000E+08    0.6800632891E+00    0.2267893543E-03    0.4407564144E-01    0.2321300724E-05    0.6416216414E+00
