  Pressure (Pa) 22mC5-400 (mol/kg) 2mC6-400 (mol/kg) 3mC6-400 (mol/kg) 33mC5-400 (mol/kg) C7-400 (mol/kg)
    0.1000000000E+01    0.2649234500E-02    0.1580552644E-02    0.4716474614E-02    0.6435025445E-04    0.5102442014E-02
    0.3000000000E+01    0.7861434350E-02    0.4587802025E-02    0.1370097120E-01    0.1868249846E-03    0.1482442309E-01
    0.5000000000E+01    0.1296217742E-01    0.7405169456E-02    0.2213421294E-01    0.3016170592E-03    0.2395272597E-01
    0.7000000000E+01    0.1795555806E-01    0.1004906668E-01    0.3006625678E-01    0.4093913782E-03    0.3254117669E-01
    0.9000000000E+01    0.2284546753E-01    0.1253402107E-01    0.3754125231E-01    0.5107363103E-03    0.4063725401E-01
    0.1100000000E+02    0.2763560641E-01    0.1487294349E-01    0.4459828922E-01    0.6061745923E-03    0.4828299961E-01
    0.1300000000E+02    0.3232949612E-01    0.1707735140E-01    0.5127210288E-01    0.6961724020E-03    0.5551577587E-01
    0.1500000000E+02    0.3693048961E-01    0.1915755561E-01    0.5759366502E-01    0.7811469544E-03    0.6236890036E-01
    0.1700000000E+02    0.4144178128E-01    0.2112281750E-01    0.6359068081E-01    0.8614728930E-03    0.6887217972E-01
    0.1900000000E+02    0.4586641625E-01    0.2298148202E-01    0.6928800911E-01    0.9374876970E-03    0.7505236111E-01
    0.2100000000E+02    0.5020729896E-01    0.2474109074E-01    0.7470801940E-01    0.1009496274E-02    0.8093351575E-01
    0.2300000000E+02    0.5446720119E-01    0.2640847837E-01    0.7987089639E-01    0.1077774883E-02    0.8653736606E-01
    0.2500000000E+02    0.5864876956E-01    0.2798985548E-01    0.8479490083E-01    0.1142574493E-02    0.9188356595E-01
    0.2700000000E+02    0.6275453253E-01    0.2949087977E-01    0.8949659388E-01    0.1204123680E-02    0.9698994192E-01
    0.2900000000E+02    0.6678690686E-01    0.3091671761E-01    0.9399103075E-01    0.1262631120E-02    0.1018727011E+00
    0.3100000000E+02    0.7074820381E-01    0.3227209748E-01    0.9829192844E-01    0.1318287766E-02    0.1065466115E+00
    0.3300000000E+02    0.7464063475E-01    0.3356135637E-01    0.1024118115E+00    0.1371268723E-02    0.1110251587E+00
    0.3500000000E+02    0.7846631657E-01    0.3478848048E-01    0.1063621393E+00    0.1421734905E-02    0.1153206827E+00
    0.3700000000E+02    0.8222727665E-01    0.3595714068E-01    0.1101534168E+00    0.1469834470E-02    0.1194444968E+00
    0.3900000000E+02    0.8592545757E-01    0.3707072385E-01    0.1137952928E+00    0.1515704091E-02    0.1234069933E+00
    0.4100000000E+02    0.8956272149E-01    0.3813236037E-01    0.1172966450E+00    0.1559470073E-02    0.1272177350E+00
    0.4300000000E+02    0.9314085430E-01    0.3914494848E-01    0.1206656560E+00    0.1601249337E-02    0.1308855369E+00
    0.4500000000E+02    0.9666156950E-01    0.4011117589E-01    0.1239098803E+00    0.1641150297E-02    0.1344185381E+00
    0.4700000000E+02    0.1001265118E+00    0.4103353889E-01    0.1270363035E+00    0.1679273634E-02    0.1378242656E+00
    0.4900000000E+02    0.1035372607E+00    0.4191435951E-01    0.1300513951E+00    0.1715712993E-02    0.1411096909E+00
    0.1000000000E+02    0.2525278413E-01    0.1372098613E-01    0.4111975001E-01    0.5591634164E-03    0.4451398144E-01
    0.3000000000E+02    0.6877629952E-01    0.3160293506E-01    0.9616486283E-01    0.1290804497E-02    0.1042348912E+00
    0.5000000000E+02    0.1052227891E+00    0.4233987318E-01    0.1315190837E+00    0.1733328672E-02    0.1427093294E+00
    0.7000000000E+02    0.1364273196E+00    0.4912311624E-01    0.1562760130E+00    0.2015536095E-02    0.1697315844E+00
    0.9000000000E+02    0.1636196853E+00    0.5350051126E-01    0.1746554820E+00    0.2199835574E-02    0.1898514013E+00
    0.1100000000E+03    0.1876560465E+00    0.5632115478E-01    0.1888877388E+00    0.2320469878E-02    0.2054758646E+00
    0.1300000000E+03    0.2091518979E+00    0.5809107878E-01    0.2002648754E+00    0.2397872482E-02    0.2180009305E+00
    0.1500000000E+03    0.2285620520E+00    0.5913025495E-01    0.2095885535E+00    0.2444992201E-02    0.2282935709E+00
    0.1700000000E+03    0.2462306932E+00    0.5965015069E-01    0.2173833193E+00    0.2470412742E-02    0.2369216295E+00
    0.1900000000E+03    0.2624237823E+00    0.5979537380E-01    0.2240073004E+00    0.2480026138E-02    0.2442731770E+00
    0.2100000000E+03    0.2773506614E+00    0.5966751589E-01    0.2297136563E+00    0.2477990388E-02    0.2506228081E+00
    0.2300000000E+03    0.2911788347E+00    0.5933951501E-01    0.2346866085E+00    0.2467306280E-02    0.2561705363E+00
    0.2500000000E+03    0.3040443141E+00    0.5886467101E-01    0.2390635421E+00    0.2450179597E-02    0.2610656678E+00
    0.2700000000E+03    0.3160590090E+00    0.5828250036E-01    0.2429490916E+00    0.2428256532E-02    0.2654220254E+00
    0.2900000000E+03    0.3273161024E+00    0.5762264906E-01    0.2464244147E+00    0.2402781192E-02    0.2693279775E+00
    0.3100000000E+03    0.3378940267E+00    0.5690757223E-01    0.2495534725E+00    0.2374703630E-02    0.2728532339E+00
    0.3300000000E+03    0.3478594490E+00    0.5615440824E-01    0.2523873882E+00    0.2344755543E-02    0.2760535649E+00
    0.3500000000E+03    0.3572695433E+00    0.5537631381E-01    0.2549675385E+00    0.2313504319E-02    0.2789741509E+00
    0.3700000000E+03    0.3661737414E+00    0.5458343049E-01    0.2573277893E+00    0.2281392259E-02    0.2816520050E+00
    0.3900000000E+03    0.3746150999E+00    0.5378359439E-01    0.2594961399E+00    0.2248765469E-02    0.2841177569E+00
    0.4100000000E+03    0.3826313758E+00    0.5298286405E-01    0.2614959512E+00    0.2215895413E-02    0.2863969856E+00
    0.4300000000E+03    0.3902558854E+00    0.5218591738E-01    0.2633468766E+00    0.2182995185E-02    0.2885112301E+00
    0.4500000000E+03    0.3975181924E+00    0.5139635333E-01    0.2650655759E+00    0.2150231919E-02    0.2904787650E+00
    0.4700000000E+03    0.4044446678E+00    0.5061692312E-01    0.2666662694E+00    0.2117736344E-02    0.2923152035E+00
    0.4900000000E+03    0.4110589467E+00    0.4984970909E-01    0.2681611734E+00    0.2085610213E-02    0.2940339698E+00
    0.1000000000E+03    0.1759893816E+00    0.5506815214E-01    0.1821941636E+00    0.2266606560E-02    0.1981220307E+00
    0.3000000000E+03    0.3326855478E+00    0.5727083586E-01    0.2480287719E+00    0.2389017559E-02    0.2711344250E+00
    0.5000000000E+03    0.4142557444E+00    0.4947118586E-01    0.2688723100E+00    0.2069711017E-02    0.2948529165E+00
    0.7000000000E+03    0.4660103124E+00    0.4273954067E-01    0.2794805424E+00    0.1782167930E-02    0.3071907958E+00
    0.9000000000E+03    0.5018302097E+00    0.3755273721E-01    0.2860173602E+00    0.1555186096E-02    0.3149444792E+00
    0.1100000000E+04    0.5279853657E+00    0.3356572979E-01    0.2904931919E+00    0.1377928436E-02    0.3203510204E+00
    0.1300000000E+04    0.5478323786E+00    0.3044789604E-01    0.2937707594E+00    0.1237861037E-02    0.3243784017E+00
    0.1500000000E+04    0.5633476294E+00    0.2795935936E-01    0.2962854686E+00    0.1125322321E-02    0.3275189519E+00
    0.1700000000E+04    0.5757710294E+00    0.2593369875E-01    0.2982822472E+00    0.1033365409E-02    0.3300516539E+00
    0.1900000000E+04    0.5859180091E+00    0.2425526150E-01    0.2999100684E+00    0.9570395583E-03    0.3321473818E+00
    0.2100000000E+04    0.5943452711E+00    0.2284246942E-01    0.3012650590E+00    0.8927853136E-03    0.3339171347E+00
    0.2300000000E+04    0.6014447884E+00    0.2163669779E-01    0.3024121885E+00    0.8380059774E-03    0.3354364200E+00
    0.2500000000E+04    0.6074998442E+00    0.2059500658E-01    0.3033970402E+00    0.7907764695E-03    0.3367585464E+00
    0.2700000000E+04    0.6127198212E+00    0.1968536486E-01    0.3042525952E+00    0.7496466285E-03    0.3379223195E+00
    0.2900000000E+04    0.6172625400E+00    0.1888346923E-01    0.3050033409E+00    0.7135073076E-03    0.3389567222E+00
    0.3100000000E+04    0.6212490260E+00    0.1817058832E-01    0.3056678616E+00    0.6814980507E-03    0.3398838780E+00
    0.3300000000E+04    0.6247735194E+00    0.1753207655E-01    0.3062605314E+00    0.6529425043E-03    0.3407209951E+00
    0.3500000000E+04    0.6279104147E+00    0.1695633152E-01    0.3067926523E+00    0.6273025512E-03    0.3414816789E+00
    0.3700000000E+04    0.6307191665E+00    0.1643405064E-01    0.3072732404E+00    0.6041452610E-03    0.3421768422E+00
    0.3900000000E+04    0.6332478221E+00    0.1595769275E-01    0.3077095810E+00    0.5831187389E-03    0.3428153497E+00
    0.4100000000E+04    0.6355356036E+00    0.1552108265E-01    0.3081076286E+00    0.5639342420E-03    0.3434044850E+00
    0.4300000000E+04    0.6376148261E+00    0.1511911649E-01    0.3084723000E+00    0.5463527718E-03    0.3439502931E+00
    0.4500000000E+04    0.6395123392E+00    0.1474753978E-01    0.3088076929E+00    0.5301749030E-03    0.3444578380E+00
    0.4700000000E+04    0.6412506251E+00    0.1440277794E-01    0.3091172515E+00    0.5152329844E-03    0.3449313968E+00
    0.4900000000E+04    0.6428486445E+00    0.1408180563E-01    0.3094038924E+00    0.5013850967E-03    0.3453746098E+00
    0.1000000000E+04    0.5158624468E+00    0.3543206380E-01    0.2884444111E+00    0.1461182590E-02    0.3178644638E+00
    0.3000000000E+04    0.6193188876E+00    0.1851689908E-01    0.3053453977E+00    0.6970323963E-03    0.3394325330E+00
    0.5000000000E+04    0.6436001812E+00    0.1392941980E-01    0.3095394107E+00    0.4948329161E-03    0.3455858292E+00
    0.7000000000E+04    0.6541360421E+00    0.1166770371E-01    0.3114942442E+00    0.3995399995E-03    0.3487834147E+00
    0.9000000000E+04    0.6599800032E+00    0.1026466876E-01    0.3126302764E+00    0.3426217962E-03    0.3508281084E+00
    0.1100000000E+05    0.6636848894E+00    0.9284902224E-02    0.3133716452E+00    0.3040565757E-03    0.3522848474E+00
    0.1300000000E+05    0.6662400307E+00    0.8549906888E-02    0.3138915006E+00    0.2758198064E-03    0.3533941592E+00
    0.1500000000E+05    0.6681073977E+00    0.7971514792E-02    0.3142742759E+00    0.2540368909E-03    0.3542779113E+00
    0.1700000000E+05    0.6695311484E+00    0.7500540010E-02    0.3145662304E+00    0.2365914803E-03    0.3550052968E+00
    0.1900000000E+05    0.6706522890E+00    0.7107086144E-02    0.3147948962E+00    0.2222215523E-03    0.3556189077E+00
    0.2100000000E+05    0.6715578771E+00    0.6771785960E-02    0.3149777098E+00    0.2101234580E-03    0.3561465972E+00
    0.2300000000E+05    0.6723045414E+00    0.6481460437E-02    0.3151262610E+00    0.1997586779E-03    0.3566074573E+00
    0.2500000000E+05    0.6729306944E+00    0.6226783548E-02    0.3152485583E+00    0.1907513661E-03    0.3570150774E+00
    0.2700000000E+05    0.6734633051E+00    0.6000942044E-02    0.3153503145E+00    0.1828303470E-03    0.3573794336E+00
    0.2900000000E+05    0.6739218614E+00    0.5798824906E-02    0.3154357145E+00    0.1757944816E-03    0.3577080402E+00
    0.3100000000E+05    0.6743207940E+00    0.5616511488E-02    0.3155078938E+00    0.1694910550E-03    0.3580066825E+00
    0.3300000000E+05    0.6746710155E+00    0.5450936303E-02    0.3155692478E+00    0.1638017785E-03    0.3582798984E+00
    0.3500000000E+05    0.6749809306E+00    0.5299662593E-02    0.3156216372E+00    0.1586334316E-03    0.3585313059E+00
    0.3700000000E+05    0.6752571165E+00    0.5160725236E-02    0.3156665292E+00    0.1539114312E-03    0.3587638310E+00
    0.3900000000E+05    0.6755047942E+00    0.5032519197E-02    0.3157050954E+00    0.1495753068E-03    0.3589798697E+00
    0.4100000000E+05    0.6757281604E+00    0.4913718669E-02    0.3157382829E+00    0.1455754468E-03    0.3591814063E+00
    0.4300000000E+05    0.6759306271E+00    0.4803217397E-02    0.3157668646E+00    0.1418707175E-03    0.3593701004E+00
    0.4500000000E+05    0.6761149964E+00    0.4700083917E-02    0.3157914776E+00    0.1384266886E-03    0.3595473528E+00
    0.4700000000E+05    0.6762835913E+00    0.4603527475E-02    0.3158126515E+00    0.1352142929E-03    0.3597143556E+00
    0.4900000000E+05    0.6764383534E+00    0.4512871759E-02    0.3158308298E+00    0.1322087991E-03    0.3598721306E+00
    0.1000000000E+05    0.6620194907E+00    0.9736156558E-02    0.3130364045E+00    0.3216909909E-03    0.3516108821E+00
    0.3000000000E+05    0.6741280300E+00    0.5705401301E-02    0.3154732925E+00    0.1725592862E-03    0.3578607985E+00
    0.5000000000E+05    0.6765110686E+00    0.4469571477E-02    0.3158389148E+00    0.1307768977E-03    0.3599478380E+00
    0.7000000000E+05    0.6775275966E+00    0.3806738151E-02    0.3159092974E+00    0.1091529204E-03    0.3611396670E+00
    0.9000000000E+05    0.6780912645E+00    0.3376643018E-02    0.3158921551E+00    0.9542415215E-04    0.3619548077E+00
    0.1100000000E+06    0.6784496808E+00    0.3068289632E-02    0.3158421799E+00    0.8573325491E-04    0.3625665172E+00
    0.1300000000E+06    0.6786977567E+00    0.2833094406E-02    0.3157789377E+00    0.7842999451E-04    0.3630523452E+00
    0.1500000000E+06    0.6788796918E+00    0.2645943718E-02    0.3157106686E+00    0.7267527474E-04    0.3634532369E+00
    0.1700000000E+06    0.6790188541E+00    0.2492363581E-02    0.3156411858E+00    0.6799163901E-04    0.3637932703E+00
    0.1900000000E+06    0.6791287597E+00    0.2363341846E-02    0.3155723450E+00    0.6408488280E-04    0.3640877264E+00
    0.2100000000E+06    0.6792177707E+00    0.2252932560E-02    0.3155050599E+00    0.6076259218E-04    0.3643468718E+00
    0.2300000000E+06    0.6792913381E+00    0.2157031733E-02    0.3154397640E+00    0.5789295872E-04    0.3645779162E+00
    0.2500000000E+06    0.6793531675E+00    0.2072702376E-02    0.3153766361E+00    0.5538227746E-04    0.3647861052E+00
    0.2700000000E+06    0.6794058663E+00    0.1997779347E-02    0.3153157176E+00    0.5316187513E-04    0.3649753672E+00
    0.2900000000E+06    0.6794513221E+00    0.1930626428E-02    0.3152569749E+00    0.5118012938E-04    0.3651487160E+00
    0.3100000000E+06    0.6794909356E+00    0.1869980820E-02    0.3152003348E+00    0.4939739085E-04    0.3653085115E+00
    0.3300000000E+06    0.6795257679E+00    0.1814850143E-02    0.3151457042E+00    0.4778263808E-04    0.3654566344E+00
    0.3500000000E+06    0.6795566375E+00    0.1764442177E-02    0.3150929818E+00    0.4631120733E-04    0.3655946061E+00
    0.3700000000E+06    0.6795841861E+00    0.1718115718E-02    0.3150420646E+00    0.4496321169E-04    0.3657236743E+00
    0.3900000000E+06    0.6796089238E+00    0.1675345433E-02    0.3149928515E+00    0.4372241534E-04    0.3658448737E+00
    0.4100000000E+06    0.6796312611E+00    0.1635696222E-02    0.3149452456E+00    0.4257541559E-04    0.3659590718E+00
    0.4300000000E+06    0.6796515325E+00    0.1598804204E-02    0.3148991550E+00    0.4151103822E-04    0.3660670026E+00
    0.4500000000E+06    0.6796700126E+00    0.1564362374E-02    0.3148544936E+00    0.4051988326E-04    0.3661692925E+00
    0.4700000000E+06    0.6796869298E+00    0.1532109651E-02    0.3148111807E+00    0.3959397899E-04    0.3662664800E+00
    0.4900000000E+06    0.6797024748E+00    0.1501822396E-02    0.3147691413E+00    0.3872651483E-04    0.3663590311E+00
    0.1000000000E+06    0.6782884126E+00    0.3211080974E-02    0.3158696446E+00    0.9020479780E-04    0.3622800105E+00
    0.3000000000E+06    0.6794717862E+00    0.1899557623E-02    0.3152283975E+00    0.5026599457E-04    0.3652301807E+00
    0.5000000000E+06    0.6797097842E+00    0.1487354504E-02    0.3147485771E+00    0.3831283475E-04    0.3664036971E+00
    0.7000000000E+06    0.6798123808E+00    0.1265812093E-02    0.3143896937E+00    0.3203743309E-04    0.3671295063E+00
    0.9000000000E+06    0.6798696820E+00    0.1122072660E-02    0.3141035801E+00    0.2802994782E-04    0.3676516267E+00
    0.1100000000E+07    0.6799063238E+00    0.1019071748E-02    0.3138655296E+00    0.2519266253E-04    0.3680578683E+00
    0.1300000000E+07    0.6799318054E+00    0.9405527553E-03    0.3136615508E+00    0.2305072062E-04    0.3683895798E+00
    0.1500000000E+07    0.6799505706E+00    0.8781070588E-03    0.3134829929E+00    0.2136111812E-04    0.3686694485E+00
    0.1700000000E+07    0.6799649773E+00    0.8268880303E-03    0.3133241392E+00    0.1998501290E-04    0.3689112328E+00
    0.1900000000E+07    0.6799763938E+00    0.7838784168E-03    0.3131810144E+00    0.1883661039E-04    0.3691238906E+00
    0.2100000000E+07    0.6799856689E+00    0.7470880472E-03    0.3130507420E+00    0.1785968620E-04    0.3693135725E+00
    0.2300000000E+07    0.6799933571E+00    0.7151436984E-03    0.3129311726E+00    0.1701566743E-04    0.3694846802E+00
    0.2500000000E+07    0.6799998365E+00    0.6870629537E-03    0.3128206571E+00    0.1627710050E-04    0.3696404694E+00
    0.2700000000E+07    0.6800053735E+00    0.6621218122E-03    0.3127179027E+00    0.1562384772E-04    0.3697834146E+00
    0.2900000000E+07    0.6800101613E+00    0.6397733129E-03    0.3126218763E+00    0.1504076070E-04    0.3699154397E+00
    0.3100000000E+07    0.6800143437E+00    0.6195954519E-03    0.3125317396E+00    0.1451619791E-04    0.3700380693E+00
    0.3300000000E+07    0.6800180297E+00    0.6012566895E-03    0.3124468025E+00    0.1404104691E-04    0.3701525317E+00
    0.3500000000E+07    0.6800213035E+00    0.5844924303E-03    0.3123664904E+00    0.1360806006E-04    0.3702598308E+00
    0.3700000000E+07    0.6800242313E+00    0.5690885733E-03    0.3122903191E+00    0.1321139166E-04    0.3703607971E+00
    0.3900000000E+07    0.6800268657E+00    0.5548697505E-03    0.3122178775E+00    0.1284626796E-04    0.3704561259E+00
    0.4100000000E+07    0.6800292493E+00    0.5416907510E-03    0.3121488129E+00    0.1250874740E-04    0.3705464043E+00
    0.4300000000E+07    0.6800314165E+00    0.5294301585E-03    0.3120828208E+00    0.1219554318E-04    0.3706321332E+00
    0.4500000000E+07    0.6800333959E+00    0.5179855572E-03    0.3120196362E+00    0.1190388996E-04    0.3707137426E+00
    0.4700000000E+07    0.6800352112E+00    0.5072698684E-03    0.3119590272E+00    0.1163144227E-04    0.3707916050E+00
    0.4900000000E+07    0.6800368823E+00    0.4972085155E-03    0.3119007896E+00    0.1137619606E-04    0.3708660446E+00
    0.1000000000E+07    0.6798898140E+00    0.1066761900E-02    0.3139795882E+00    0.2650259751E-04    0.3678660282E+00
    0.3000000000E+07    0.6800123207E+00    0.6294355765E-03    0.3125761179E+00    0.1477178360E-04    0.3699778462E+00
    0.5000000000E+07    0.6800376690E+00    0.4924027723E-03    0.3118725029E+00    0.1125447526E-04    0.3709020712E+00
    0.7000000000E+07    0.6800487958E+00    0.4188510905E-03    0.3113965958E+00    0.9408244198E-05    0.3714965578E+00
    0.9000000000E+07    0.6800551001E+00    0.3711677463E-03    0.3110358150E+00    0.8229564277E-05    0.3719344215E+00
    0.1100000000E+08    0.6800591810E+00    0.3370173751E-03    0.3107448878E+00    0.7395271333E-05    0.3722807234E+00
    0.1300000000E+08    0.6800620494E+00    0.3109945852E-03    0.3105009632E+00    0.6765575825E-05    0.3725669758E+00
    0.1500000000E+08    0.6800641823E+00    0.2903053246E-03    0.3102908671E+00    0.6268951115E-05    0.3728108288E+00
    0.1700000000E+08    0.6800658341E+00    0.2733399571E-03    0.3101063015E+00    0.5864536134E-05    0.3730231591E+00
    0.1900000000E+08    0.6800671536E+00    0.2590968194E-03    0.3099416979E+00    0.5527085440E-05    0.3732111413E+00
    0.2100000000E+08    0.6800682336E+00    0.2469154412E-03    0.3097931356E+00    0.5240057113E-05    0.3733797553E+00
    0.2300000000E+08    0.6800691351E+00    0.2363402269E-03    0.3096577489E+00    0.4992104015E-05    0.3735325980E+00
    0.2500000000E+08    0.6800698997E+00    0.2270453193E-03    0.3095333794E+00    0.4775151021E-05    0.3736723518E+00
    0.2700000000E+08    0.6800705572E+00    0.2187906268E-03    0.3094183599E+00    0.4583275547E-05    0.3738010696E+00
