  Pressure (Pa) 22mC5-400 (mol/kg) 2mC6-400 (mol/kg) 3mC6-400 (mol/kg) 33mC5-400 (mol/kg) C7-400 (mol/kg)
    0.1000000000E+01    0.2646695300E-02    0.2380187186E-02    0.3688046466E-02    0.2583995071E-03    0.1709890393E-02
    0.3000000000E+01    0.7839284499E-02    0.6961007623E-02    0.1082410824E-01    0.7557555612E-03    0.5018878507E-02
    0.5000000000E+01    0.1290251733E-01    0.1131553009E-01    0.1765781658E-01    0.1228606348E-02    0.8188296009E-02
    0.7000000000E+01    0.1784212632E-01    0.1545832249E-01    0.2420877526E-01    0.1678528543E-02    0.1122717937E-01
    0.9000000000E+01    0.2266350067E-01    0.1940274960E-01    0.3049491307E-01    0.2106968510E-02    0.1414379354E-01
    0.1100000000E+02    0.2737171164E-01    0.2316109491E-01    0.3653265954E-01    0.2515255514E-02    0.1694571286E-01
    0.1300000000E+02    0.3197153566E-01    0.2674466791E-01    0.4233709889E-01    0.2904613344E-02    0.1963989192E-01
    0.1500000000E+02    0.3646747547E-01    0.3016389871E-01    0.4792210538E-01    0.3276170576E-02    0.2223272792E-01
    0.1700000000E+02    0.4086377950E-01    0.3342842189E-01    0.5330046272E-01    0.3630969652E-02    0.2473011558E-01
    0.1900000000E+02    0.4516445959E-01    0.3654715076E-01    0.5848396942E-01    0.3969974936E-02    0.2713749575E-01
    0.2100000000E+02    0.4937330730E-01    0.3952834358E-01    0.6348353235E-01    0.4294079878E-02    0.2945989841E-01
    0.2300000000E+02    0.5349390883E-01    0.4237966241E-01    0.6830924964E-01    0.4604113400E-02    0.3170198089E-01
    0.2500000000E+02    0.5752965880E-01    0.4510822586E-01    0.7297048459E-01    0.4900845605E-02    0.3386806191E-01
    0.2700000000E+02    0.6148377293E-01    0.4772065623E-01    0.7747593161E-01    0.5184992884E-02    0.3596215192E-01
    0.2900000000E+02    0.6535929967E-01    0.5022312183E-01    0.8183367510E-01    0.5457222500E-02    0.3798798026E-01
    0.3100000000E+02    0.6915913106E-01    0.5262137504E-01    0.8605124229E-01    0.5718156711E-02    0.3994901948E-01
    0.3300000000E+02    0.7288601260E-01    0.5492078663E-01    0.9013565064E-01    0.5968376484E-02    0.4184850714E-01
    0.3500000000E+02    0.7654255250E-01    0.5712637662E-01    0.9409345044E-01    0.6208424840E-02    0.4368946548E-01
    0.3700000000E+02    0.8013123021E-01    0.5924284235E-01    0.9793076325E-01    0.6438809889E-02    0.4547471914E-01
    0.3900000000E+02    0.8365440428E-01    0.6127458376E-01    0.1016533166E+00    0.6660007570E-02    0.4720691109E-01
    0.4100000000E+02    0.8711431972E-01    0.6322572638E-01    0.1052664753E+00    0.6872464139E-02    0.4888851709E-01
    0.4300000000E+02    0.9051311476E-01    0.6510014222E-01    0.1087752700E+00    0.7076598431E-02    0.5052185880E-01
    0.4500000000E+02    0.9385282719E-01    0.6690146879E-01    0.1121844226E+00    0.7272803916E-02    0.5210911563E-01
    0.4700000000E+02    0.9713540025E-01    0.6863312641E-01    0.1154983701E+00    0.7461450574E-02    0.5365233557E-01
    0.4900000000E+02    0.1003626880E+00    0.7029833401E-01    0.1187212857E+00    0.7642886608E-02    0.5515344494E-01
    0.1000000000E+02    0.2503144640E-01    0.2130445398E-01    0.3354386260E-01    0.2313552300E-02    0.1555864164E-01
    0.3000000000E+02    0.6726850237E-01    0.5143493075E-01    0.8395953071E-01    0.5589064294E-02    0.3897639090E-01
    0.5000000000E+02    0.1019561562E+00    0.7110697348E-01    0.1202998434E+00    0.7731003886E-02    0.5588877911E-01
    0.7000000000E+02    0.1313134359E+00    0.8444119721E-01    0.1479336587E+00    0.9185115784E-02    0.6877332994E-01
    0.9000000000E+02    0.1567358879E+00    0.9369342811E-01    0.1697837498E+00    0.1019546379E-01    0.7897967949E-01
    0.1100000000E+03    0.1791473653E+00    0.1001956053E+00    0.1875817295E+00    0.1090622801E-01    0.8730793736E-01
    0.1300000000E+03    0.1991855756E+00    0.1047802365E+00    0.2024212553E+00    0.1140760042E-01    0.9426375432E-01
    0.1500000000E+03    0.2173063083E+00    0.1079913519E+00    0.2150285669E+00    0.1175858585E-01    0.1001831115E+00
    0.1700000000E+03    0.2338450897E+00    0.1101974118E+00    0.2259057915E+00    0.1199920263E-01    0.1052984486E+00
    0.1900000000E+03    0.2490552656E+00    0.1116553964E+00    0.2354118356E+00    0.1215740750E-01    0.1097760056E+00
    0.2100000000E+03    0.2631324052E+00    0.1125489707E+00    0.2438104787E+00    0.1225321943E-01    0.1137380330E+00
    0.2300000000E+03    0.2762304402E+00    0.1130121366E+00    0.2513002286E+00    0.1230127576E-01    0.1172765842E+00
    0.2500000000E+03    0.2884726354E+00    0.1131443931E+00    0.2580335461E+00    0.1231247110E-01    0.1204624000E+00
    0.2700000000E+03    0.2999592296E+00    0.1130207414E+00    0.2641296177E+00    0.1229503931E-01    0.1233508137E+00
    0.2900000000E+03    0.3107728698E+00    0.1126984542E+00    0.2696830763E+00    0.1225528606E-01    0.1259857843E+00
    0.3100000000E+03    0.3209825534E+00    0.1122217593E+00    0.2747700988E+00    0.1219809589E-01    0.1284027173E+00
    0.3300000000E+03    0.3306465347E+00    0.1116251430E+00    0.2794527604E+00    0.1212729023E-01    0.1306304802E+00
    0.3500000000E+03    0.3398145036E+00    0.1109357215E+00    0.2837822023E+00    0.1204588458E-01    0.1326928689E+00
    0.3700000000E+03    0.3485292400E+00    0.1101749692E+00    0.2878009763E+00    0.1195627622E-01    0.1346096934E+00
    0.3900000000E+03    0.3568278883E+00    0.1093599972E+00    0.2915448054E+00    0.1186038308E-01    0.1363975936E+00
    0.4100000000E+03    0.3647429494E+00    0.1085045093E+00    0.2950439248E+00    0.1175974792E-01    0.1380706606E+00
    0.4300000000E+03    0.3723030625E+00    0.1076195272E+00    0.2983241158E+00    0.1165561729E-01    0.1396409166E+00
    0.4500000000E+03    0.3795336264E+00    0.1067139444E+00    0.3014075122E+00    0.1154900206E-01    0.1411186880E+00
    0.4700000000E+03    0.3864572995E+00    0.1057949546E+00    0.3043132365E+00    0.1144072428E-01    0.1425129010E+00
    0.4900000000E+03    0.3930944042E+00    0.1048683857E+00    0.3070579045E+00    0.1133145376E-01    0.1438313161E+00
    0.1000000000E+03    0.1682729295E+00    0.9722766449E-01    0.1791099750E+00    0.1058172968E-01    0.8334192264E-01
    0.3000000000E+03    0.3159493420E+00    0.1124770555E+00    0.2722807237E+00    0.1222861025E-01    0.1272195674E+00
    0.5000000000E+03    0.3963112882E+00    0.1044037726E+00    0.3083744514E+00    0.1127662111E-01    0.1444642529E+00
    0.7000000000E+03    0.4492450710E+00    0.9546829977E-01    0.3289680185E+00    0.1021625717E-01    0.1544149490E+00
    0.9000000000E+03    0.4868532543E+00    0.8785725936E-01    0.3427580321E+00    0.9304777262E-02    0.1611416781E+00
    0.1100000000E+04    0.5148110704E+00    0.8160417858E-01    0.3528441408E+00    0.8551599832E-02    0.1661025833E+00
    0.1300000000E+04    0.5362866156E+00    0.7645413780E-01    0.3606462663E+00    0.7929660844E-02    0.1699686973E+00
    0.1500000000E+04    0.5532141028E+00    0.7216157163E-01    0.3669201922E+00    0.7411193369E-02    0.1730986804E+00
    0.1700000000E+04    0.5668429707E+00    0.6853360894E-01    0.3721108245E+00    0.6973730715E-02    0.1757044738E+00
    0.1900000000E+04    0.5780140677E+00    0.6542563201E-01    0.3764997627E+00    0.6600090922E-02    0.1779207008E+00
    0.2100000000E+04    0.5873119087E+00    0.6272992706E-01    0.3802752824E+00    0.6277289931E-02    0.1798376694E+00
    0.2300000000E+04    0.5951539122E+00    0.6036572100E-01    0.3835687838E+00    0.5995483651E-02    0.1815186043E+00
    0.2500000000E+04    0.6018451190E+00    0.5827172932E-01    0.3864751953E+00    0.5747140057E-02    0.1830093174E+00
    0.2700000000E+04    0.6076129697E+00    0.5640083066E-01    0.3890650734E+00    0.5526430557E-02    0.1843439548E+00
    0.2900000000E+04    0.6126300765E+00    0.5471630148E-01    0.3913921224E+00    0.5328790790E-02    0.1855485775E+00
    0.3100000000E+04    0.6170295238E+00    0.5318914624E-01    0.3934980543E+00    0.5150604252E-02    0.1866434794E+00
    0.3300000000E+04    0.6209153803E+00    0.5179618765E-01    0.3954158351E+00    0.4988973091E-02    0.1876447392E+00
    0.3500000000E+04    0.6243700699E+00    0.5051868513E-01    0.3971719160E+00    0.4841550589E-02    0.1885652891E+00
    0.3700000000E+04    0.6274596316E+00    0.4934132318E-01    0.3987878044E+00    0.4706417421E-02    0.1894156688E+00
    0.3900000000E+04    0.6302375360E+00    0.4825146150E-01    0.4002811948E+00    0.4581989272E-02    0.1902045690E+00
    0.4100000000E+04    0.6327474952E+00    0.4723857220E-01    0.4016667980E+00    0.4466947097E-02    0.1909392306E+00
    0.4300000000E+04    0.6350255596E+00    0.4629381280E-01    0.4029569596E+00    0.4360183927E-02    0.1916257434E+00
    0.4500000000E+04    0.6371017036E+00    0.4540969839E-01    0.4041621288E+00    0.4260763867E-02    0.1922692721E+00
    0.4700000000E+04    0.6390010356E+00    0.4457984745E-01    0.4052912176E+00    0.4167890195E-02    0.1928742308E+00
    0.4900000000E+04    0.6407447352E+00    0.4379878279E-01    0.4063518806E+00    0.4080880311E-02    0.1934444181E+00
    0.1000000000E+04    0.5018020432E+00    0.8457586834E-01    0.3481531076E+00    0.8909914394E-02    0.1637904805E+00
    0.3000000000E+04    0.6148999219E+00    0.5393461874E-01    0.3924704927E+00    0.5237461613E-02    0.1861086542E+00
    0.5000000000E+04    0.6415639499E+00    0.4342504157E-01    0.4068586557E+00    0.4039387211E-02    0.1937175180E+00
    0.7000000000E+04    0.6529805156E+00    0.3764222532E-01    0.4146202915E+00    0.3409739729E-02    0.1979619560E+00
    0.9000000000E+04    0.6592429886E+00    0.3381533385E-01    0.4196449985E+00    0.3006647346E-02    0.2007854630E+00
    0.1100000000E+05    0.6631791347E+00    0.3102646453E-01    0.4232304298E+00    0.2720035124E-02    0.2028479920E+00
    0.1300000000E+05    0.6658754479E+00    0.2886988585E-01    0.4259499969E+00    0.2502587636E-02    0.2044454197E+00
    0.1500000000E+05    0.6678352860E+00    0.2713375684E-01    0.4281014052E+00    0.2330191042E-02    0.2057333088E+00
    0.1700000000E+05    0.6693228681E+00    0.2569474949E-01    0.4298565476E+00    0.2189092343E-02    0.2068025023E+00
    0.1900000000E+05    0.6704898909E+00    0.2447532281E-01    0.4313224945E+00    0.2070794380E-02    0.2077101741E+00
    0.2100000000E+05    0.6714295376E+00    0.2342384422E-01    0.4325698545E+00    0.1969723437E-02    0.2084943916E+00
    0.2300000000E+05    0.6722021538E+00    0.2250436818E-01    0.4336473133E+00    0.1882049439E-02    0.2091816397E+00
    0.2500000000E+05    0.6728485147E+00    0.2169096413E-01    0.4345896647E+00    0.1805040810E-02    0.2097910068E+00
    0.2700000000E+05    0.6733971499E+00    0.2096437391E-01    0.4354225174E+00    0.1736689263E-02    0.2103366556E+00
    0.2900000000E+05    0.6738686122E+00    0.2030994366E-01    0.4361651898E+00    0.1675480389E-02    0.2108293518E+00
    0.3100000000E+05    0.6742780789E+00    0.1971629151E-01    0.4368325636E+00    0.1620247433E-02    0.2112774497E+00
    0.3300000000E+05    0.6746369991E+00    0.1917441977E-01    0.4374363111E+00    0.1570074803E-02    0.2116875478E+00
    0.3500000000E+05    0.6749541705E+00    0.1867710581E-01    0.4379857316E+00    0.1524232445E-02    0.2120649389E+00
    0.3700000000E+05    0.6752364643E+00    0.1821847364E-01    0.4384883369E+00    0.1482130062E-02    0.2124139262E+00
    0.3900000000E+05    0.6754893241E+00    0.1779368584E-01    0.4389502686E+00    0.1443284437E-02    0.2127380503E+00
    0.4100000000E+05    0.6757171185E+00    0.1739871778E-01    0.4393766033E+00    0.1407295644E-02    0.2130402556E+00
    0.4300000000E+05    0.6759233931E+00    0.1703018924E-01    0.4397715780E+00    0.1373829427E-02    0.2133230143E+00
    0.4500000000E+05    0.6761110559E+00    0.1668523698E-01    0.4401387601E+00    0.1342603934E-02    0.2135884199E+00
    0.4700000000E+05    0.6762825138E+00    0.1636141683E-01    0.4404811775E+00    0.1313379592E-02    0.2138382591E+00
    0.4900000000E+05    0.6764397766E+00    0.1605662769E-01    0.4408014187E+00    0.1285951275E-02    0.2140740678E+00
    0.1000000000E+05    0.6614134316E+00    0.3232306443E-01    0.4215724636E+00    0.2852529796E-02    0.2018886323E+00
    0.3000000000E+05    0.6740803068E+00    0.2000613035E-01    0.4365074956E+00    0.1647179145E-02    0.2110585281E+00
    0.5000000000E+05    0.6765136239E+00    0.1591079197E-01    0.4409539316E+00    0.1272854407E-02    0.2141871330E+00
    0.7000000000E+05    0.6775429257E+00    0.1365786550E-01    0.4432470479E+00    0.1072797900E-02    0.2159570116E+00
    0.9000000000E+05    0.6781109609E+00    0.1217585112E-01    0.4446836945E+00    0.9436061127E-03    0.2171521481E+00
    0.1100000000E+06    0.6784709791E+00    0.1110381244E-01    0.4456815617E+00    0.8514145745E-03    0.2180377202E+00
    0.1300000000E+06    0.6787195518E+00    0.1028085559E-01    0.4464208045E+00    0.7813999874E-03    0.2187327516E+00
    0.1500000000E+06    0.6789014917E+00    0.9622785193E-02    0.4469932235E+00    0.7259091939E-03    0.2193000247E+00
    0.1700000000E+06    0.6790404274E+00    0.9080637021E-02    0.4474510141E+00    0.6805388309E-03    0.2197763579E+00
    0.1900000000E+06    0.6791499974E+00    0.8623710027E-02    0.4478262618E+00    0.6425523307E-03    0.2201850326E+00
    0.2100000000E+06    0.6792386246E+00    0.8231634174E-02    0.4481398803E+00    0.6101476941E-03    0.2205416268E+00
    0.2300000000E+06    0.6793117916E+00    0.7890283952E-02    0.4484061394E+00    0.5820835663E-03    0.2208570326E+00
    0.2500000000E+06    0.6793732208E+00    0.7589510514E-02    0.4486351393E+00    0.5574732767E-03    0.2211391395E+00
    0.2700000000E+06    0.6794255285E+00    0.7321806610E-02    0.4488342476E+00    0.5356643881E-03    0.2213938300E+00
    0.2900000000E+06    0.6794706069E+00    0.7081482034E-02    0.4490089760E+00    0.5161647371E-03    0.2216255972E+00
    0.3100000000E+06    0.6795098589E+00    0.6864133638E-02    0.4491635370E+00    0.4985951454E-03    0.2218379443E+00
    0.3300000000E+06    0.6795443461E+00    0.6666293031E-02    0.4493012098E+00    0.4826581347E-03    0.2220336512E+00
    0.3500000000E+06    0.6795748871E+00    0.6485185530E-02    0.4494245881E+00    0.4681166147E-03    0.2222149575E+00
    0.3700000000E+06    0.6796021232E+00    0.6318561071E-02    0.4495357527E+00    0.4547789926E-03    0.2223836921E+00
    0.3900000000E+06    0.6796265636E+00    0.6164572963E-02    0.4496363937E+00    0.4424885365E-03    0.2225413665E+00
    0.4100000000E+06    0.6796486182E+00    0.6021689267E-02    0.4497278988E+00    0.4311156276E-03    0.2226892426E+00
    0.4300000000E+06    0.6796686204E+00    0.5888626890E-02    0.4498114194E+00    0.4205520170E-03    0.2228283844E+00
    0.4500000000E+06    0.6796868441E+00    0.5764301817E-02    0.4498879186E+00    0.4107065024E-03    0.2229596963E+00
    0.4700000000E+06    0.6797035168E+00    0.5647791013E-02    0.4499582094E+00    0.4015016280E-03    0.2230839533E+00
    0.4900000000E+06    0.6797188286E+00    0.5538302873E-02    0.4500229825E+00    0.3928711316E-03    0.2232018241E+00
    0.1000000000E+06    0.6783091125E+00    0.1160122763E-01    0.4452232077E+00    0.8940548931E-03    0.2176242969E+00
    0.3000000000E+06    0.6794908882E+00    0.6970171245E-02    0.4490885540E+00    0.5071589032E-03    0.2217340101E+00
    0.5000000000E+06    0.6797260252E+00    0.5485975059E-02    0.4500534880E+00    0.3887531290E-03    0.2232585491E+00
    0.7000000000E+06    0.6798268010E+00    0.4682537608E-02    0.4504808539E+00    0.3261043448E-03    0.2241656099E+00
    0.9000000000E+06    0.6798828333E+00    0.4159061845E-02    0.4507099920E+00    0.2859174202E-03    0.2248009997E+00
    0.1100000000E+07    0.6799185274E+00    0.3782863421E-02    0.4508443376E+00    0.2573786130E-03    0.2252855926E+00
    0.1300000000E+07    0.6799432662E+00    0.3495461153E-02    0.4509264072E+00    0.2357852103E-03    0.2256750598E+00
    0.1500000000E+07    0.6799614285E+00    0.3266501117E-02    0.4509769137E+00    0.2187217193E-03    0.2259994043E+00
    0.1700000000E+07    0.6799753327E+00    0.3078441357E-02    0.4510071352E+00    0.2048041636E-03    0.2262765491E+00
    0.1900000000E+07    0.6799863217E+00    0.2920338037E-02    0.4510237167E+00    0.1931754393E-03    0.2265180133E+00
    0.2100000000E+07    0.6799952270E+00    0.2784959980E-02    0.4510308110E+00    0.1832728255E-03    0.2267316170E+00
    0.2300000000E+07    0.6800025912E+00    0.2667310236E-02    0.4510311347E+00    0.1747096682E-03    0.2269229005E+00
    0.2500000000E+07    0.6800087835E+00    0.2563809353E-02    0.4510265309E+00    0.1672104079E-03    0.2270959250E+00
    0.2700000000E+07    0.6800140635E+00    0.2471816450E-02    0.4510182876E+00    0.1605726812E-03    0.2272537521E+00
    0.2900000000E+07    0.6800186197E+00    0.2389334430E-02    0.4510073270E+00    0.1546441056E-03    0.2273987444E+00
    0.3100000000E+07    0.6800225917E+00    0.2314821069E-02    0.4509943233E+00    0.1493074678E-03    0.2275327614E+00
    0.3300000000E+07    0.6800260854E+00    0.2247063764E-02    0.4509797778E+00    0.1444709420E-03    0.2276572917E+00
    0.3500000000E+07    0.6800291826E+00    0.2185094050E-02    0.4509640689E+00    0.1400614396E-03    0.2277735449E+00
    0.3700000000E+07    0.6800319474E+00    0.2128127750E-02    0.4509474857E+00    0.1360199685E-03    0.2278825165E+00
    0.3900000000E+07    0.6800344308E+00    0.2075522153E-02    0.4509302515E+00    0.1322983239E-03    0.2279850351E+00
    0.4100000000E+07    0.6800366737E+00    0.2026744767E-02    0.4509125405E+00    0.1288566811E-03    0.2280817976E+00
    0.4300000000E+07    0.6800387097E+00    0.1981350116E-02    0.4508944893E+00    0.1256618126E-03    0.2281733954E+00
    0.4500000000E+07    0.6800405662E+00    0.1938962247E-02    0.4508762060E+00    0.1226857486E-03    0.2282603345E+00
    0.4700000000E+07    0.6800422660E+00    0.1899261362E-02    0.4508577766E+00    0.1199047545E-03    0.2283430512E+00
    0.4900000000E+07    0.6800438283E+00    0.1861973454E-02    0.4508392696E+00    0.1172985417E-03    0.2284219240E+00
    0.1000000000E+07    0.6799024602E+00    0.3957159927E-02    0.4507856049E+00    0.2705636243E-03    0.2250578083E+00
    0.3000000000E+07    0.6800206714E+00    0.2351164026E-02    0.4510010458E+00    0.1519080387E-03    0.2274670243E+00
    0.5000000000E+07    0.6800445630E+00    0.1844159228E-02    0.4508300047E+00    0.1160554257E-03    0.2284600238E+00
    0.7000000000E+07    0.6800548834E+00    0.1571191725E-02    0.4506493054E+00    0.9717764101E-04    0.2290822069E+00
    0.9000000000E+07    0.6800606549E+00    0.1393891489E-02    0.4504848477E+00    0.8510235478E-04    0.2295331235E+00
    0.1100000000E+08    0.6800643490E+00    0.1266738297E-02    0.4503375849E+00    0.7654346227E-04    0.2298857272E+00
    0.1300000000E+08    0.6800669196E+00    0.1169745330E-02    0.4502052141E+00    0.7007664843E-04    0.2301747054E+00
    0.1500000000E+08    0.6800688137E+00    0.1092566323E-02    0.4500853143E+00    0.6497205757E-04    0.2304192203E+00
    0.1700000000E+08    0.6800702684E+00    0.1029234048E-02    0.4499758507E+00    0.6081226474E-04    0.2306309527E+00
    0.1900000000E+08    0.6800714215E+00    0.9760316738E-03    0.4498751911E+00    0.5733912698E-04    0.2308175388E+00
    0.2100000000E+08    0.6800723585E+00    0.9305064893E-03    0.4497820346E+00    0.5438336351E-04    0.2309842396E+00
    0.2300000000E+08    0.6800731352E+00    0.8909654520E-03    0.4496953378E+00    0.5182877467E-04    0.2311348304E+00
    0.2500000000E+08    0.6800737899E+00    0.8561969207E-03    0.4496142562E+00    0.4959261810E-04    0.2312721107E+00
    0.2700000000E+08    0.6800743493E+00    0.8253076850E-03    0.4495380980E+00    0.4761417524E-04    0.2313982125E+00
