  Pressure (Pa) 22mC5-400 (mol/kg) 2mC6-400 (mol/kg) 3mC6-400 (mol/kg) 33mC5-400 (mol/kg) C7-400 (mol/kg)
    0.1000000000E+01    0.2646687030E-02    0.2363460887E-02    0.1044708993E-02    0.2566061878E-03    0.1017196340E-01
    0.3000000000E+01    0.7839212249E-02    0.6820020740E-02    0.3016245272E-02    0.7406469870E-03    0.2937340041E-01
    0.5000000000E+01    0.1290232241E-01    0.1094797869E-01    0.4845154309E-02    0.1189237549E-02    0.4719230939E-01
    0.7000000000E+01    0.1784175505E-01    0.1478089591E-01    0.6546701308E-02    0.1606003518E-02    0.6377643501E-01
    0.9000000000E+01    0.2266290400E-01    0.1834779924E-01    0.8134036633E-02    0.1994079562E-02    0.7925306913E-01
    0.1100000000E+02    0.2737084469E-01    0.2167393518E-01    0.9618550339E-02    0.2356191146E-02    0.9373247786E-01
    0.1300000000E+02    0.3197035738E-01    0.2478137701E-01    0.1101015767E-01    0.2694720366E-02    0.1073106615E+00
    0.1500000000E+02    0.3646594830E-01    0.2768951750E-01    0.1231753069E-01    0.3011759361E-02    0.1200715943E+00
    0.1700000000E+02    0.4086186909E-01    0.3041547177E-01    0.1354828761E-01    0.3309153973E-02    0.1320890544E+00
    0.1900000000E+02    0.4516213453E-01    0.3297440883E-01    0.1470914846E-01    0.3588539664E-02    0.1434281296E+00
    0.2100000000E+02    0.4937053883E-01    0.3537982619E-01    0.1580606400E-01    0.3851371271E-02    0.1541464639E+00
    0.2300000000E+02    0.5349067067E-01    0.3764377878E-01    0.1684432296E-01    0.4098947784E-02    0.1642952944E+00
    0.2500000000E+02    0.5752592692E-01    0.3977707070E-01    0.1782864187E-01    0.4332433110E-02    0.1739203204E+00
    0.2700000000E+02    0.6147952538E-01    0.4178941686E-01    0.1876324064E-01    0.4552873564E-02    0.1830624340E+00
    0.2900000000E+02    0.6535451640E-01    0.4368957976E-01    0.1965190637E-01    0.4761212673E-02    0.1917583382E+00
    0.3100000000E+02    0.6915379377E-01    0.4548548599E-01    0.2049804769E-01    0.4958303768E-02    0.2000410714E+00
    0.3300000000E+02    0.7288010461E-01    0.4718432565E-01    0.2130474100E-01    0.5144920745E-02    0.2079404558E+00
    0.3500000000E+02    0.7653605860E-01    0.4879263783E-01    0.2207477010E-01    0.5321767299E-02    0.2154834804E+00
    0.3700000000E+02    0.8012413655E-01    0.5031638420E-01    0.2281066034E-01    0.5489484877E-02    0.2226946311E+00
    0.3900000000E+02    0.8364669829E-01    0.5176101265E-01    0.2351470800E-01    0.5648659560E-02    0.2295961757E+00
    0.4100000000E+02    0.8710598996E-01    0.5313151266E-01    0.2418900579E-01    0.5799828038E-02    0.2362084104E+00
    0.4300000000E+02    0.9050415088E-01    0.5443246347E-01    0.2483546503E-01    0.5943482809E-02    0.2425498741E+00
    0.4500000000E+02    0.9384321983E-01    0.5566807620E-01    0.2545583495E-01    0.6080076735E-02    0.2486375357E+00
    0.4700000000E+02    0.9712514093E-01    0.5684223082E-01    0.2605171959E-01    0.6210027025E-02    0.2544869573E+00
    0.4900000000E+02    0.1003517691E+00    0.5795850869E-01    0.2662459261E-01    0.6333718748E-02    0.2601124381E+00
    0.1000000000E+02    0.2503071995E-01    0.2003951545E-01    0.8888494866E-02    0.2178224662E-02    0.8661112078E-01
    0.3000000000E+02    0.6726344428E-01    0.4460009938E-01    0.2008009302E-01    0.4861114107E-02    0.1959494167E+00
    0.5000000000E+02    0.1019449050E+00    0.5849598849E-01    0.2690282787E-01    0.6393329961E-02    0.2628453552E+00
    0.7000000000E+02    0.1312952958E+00    0.6689211739E-01    0.3153744006E-01    0.7330627464E-02    0.3084454027E+00
    0.9000000000E+02    0.1567106865E+00    0.7209664593E-01    0.3491322663E-01    0.7921170549E-02    0.3417720481E+00
    0.1100000000E+03    0.1791151694E+00    0.7530758562E-01    0.3749484810E-01    0.8293840388E-02    0.3673420948E+00
    0.1300000000E+03    0.1991465590E+00    0.7721010630E-01    0.3954129317E-01    0.8522474934E-02    0.3876760622E+00
    0.1500000000E+03    0.2172606883E+00    0.7822359371E-01    0.4120877333E-01    0.8652392383E-02    0.4042959993E+00
    0.1700000000E+03    0.2337930965E+00    0.7861793222E-01    0.4259734687E-01    0.8712860759E-02    0.4181779485E+00
    0.1900000000E+03    0.2489971280E+00    0.7857359499E-01    0.4377421212E-01    0.8723538059E-02    0.4299781586E+00
    0.2100000000E+03    0.2630683439E+00    0.7821497057E-01    0.4478626030E-01    0.8698043790E-02    0.4401550779E+00
    0.2300000000E+03    0.2761606649E+00    0.7762989874E-01    0.4566726279E-01    0.8646053403E-02    0.4490392530E+00
    0.2500000000E+03    0.2883973447E+00    0.7688164526E-01    0.4644219592E-01    0.8574583105E-02    0.4568754164E+00
    0.2700000000E+03    0.2998786109E+00    0.7601651694E-01    0.4712995345E-01    0.8488807870E-02    0.4638489026E+00
    0.2900000000E+03    0.3106871007E+00    0.7506885625E-01    0.4774510879E-01    0.8392598759E-02    0.4701028218E+00
    0.3100000000E+03    0.3208918023E+00    0.7406440458E-01    0.4829909498E-01    0.8288885422E-02    0.4757495666E+00
    0.3300000000E+03    0.3305509618E+00    0.7302261898E-01    0.4880101590E-01    0.8179906347E-02    0.4808787282E+00
    0.3500000000E+03    0.3397142617E+00    0.7195829999E-01    0.4925821690E-01    0.8067385133E-02    0.4855626681E+00
    0.3700000000E+03    0.3484244755E+00    0.7088275539E-01    0.4967669447E-01    0.7952656882E-02    0.4898605220E+00
    0.3900000000E+03    0.3567187417E+00    0.6980464517E-01    0.5006139577E-01    0.7836760254E-02    0.4938211279E+00
    0.4100000000E+03    0.3646295559E+00    0.6873060346E-01    0.5041644121E-01    0.7720505468E-02    0.4974852040E+00
    0.4300000000E+03    0.3721855524E+00    0.6766570197E-01    0.5074529227E-01    0.7604525176E-02    0.5008869921E+00
    0.4500000000E+03    0.3794121256E+00    0.6661379907E-01    0.5105087978E-01    0.7489312946E-02    0.5040555138E+00
    0.4700000000E+03    0.3863319298E+00    0.6557780548E-01    0.5133570310E-01    0.7375252685E-02    0.5070155431E+00
    0.4900000000E+03    0.3929652838E+00    0.6455988808E-01    0.5160190772E-01    0.7262641341E-02    0.5097883677E+00
    0.1000000000E+03    0.1682442138E+00    0.7390029412E-01    0.3628391035E-01    0.8129245218E-02    0.3553379315E+00
    0.3000000000E+03    0.3158610614E+00    0.7457238772E-01    0.4802913207E-01    0.8341526371E-02    0.4729960316E+00
    0.5000000000E+03    0.3961803354E+00    0.6405822132E-01    0.5172861706E-01    0.7206952459E-02    0.5111104278E+00
    0.7000000000E+03    0.4490828818E+00    0.5516091555E-01    0.5362557447E-01    0.6200599414E-02    0.5311089418E+00
    0.9000000000E+03    0.4866683470E+00    0.4829706063E-01    0.5480230346E-01    0.5402649343E-02    0.5437700977E+00
    0.1100000000E+04    0.5146098172E+00    0.4300300664E-01    0.5561215015E-01    0.4775669181E-02    0.5526482405E+00
    0.1300000000E+04    0.5360737317E+00    0.3885275335E-01    0.5620742717E-01    0.4277782375E-02    0.5592892950E+00
    0.1500000000E+04    0.5529930585E+00    0.3553636279E-01    0.5666539294E-01    0.3876398280E-02    0.5644839022E+00
    0.1700000000E+04    0.5666163200E+00    0.3283689662E-01    0.5702971797E-01    0.3547768096E-02    0.5686824288E+00
    0.1900000000E+04    0.5777836961E+00    0.3060223487E-01    0.5732708211E-01    0.3274756071E-02    0.5721620268E+00
    0.2100000000E+04    0.5870792149E+00    0.2872424240E-01    0.5757476986E-01    0.3044912013E-02    0.5751034957E+00
    0.2300000000E+04    0.5949199388E+00    0.2712472173E-01    0.5778450542E-01    0.2849074803E-02    0.5776302888E+00
    0.2500000000E+04    0.6016106465E+00    0.2574611678E-01    0.5796454107E-01    0.2680405596E-02    0.5798298575E+00
    0.2700000000E+04    0.6073785843E+00    0.2454533566E-01    0.5812086493E-01    0.2533724233E-02    0.5817660524E+00
    0.2900000000E+04    0.6123962194E+00    0.2348959508E-01    0.5825793444E-01    0.2405051471E-02    0.5834866887E+00
    0.3100000000E+04    0.6167965267E+00    0.2255358135E-01    0.5837914042E-01    0.2291289847E-02    0.5850283528E+00
    0.3300000000E+04    0.6206834924E+00    0.2171747930E-01    0.5848711097E-01    0.2189998325E-02    0.5864195634E+00
    0.3500000000E+04    0.6241394769E+00    0.2096558164E-01    0.5858391639E-01    0.2099231025E-02    0.5876829117E+00
    0.3700000000E+04    0.6272304707E+00    0.2028529258E-01    0.5867121105E-01    0.2017420238E-02    0.5888365495E+00
    0.3900000000E+04    0.6300099069E+00    0.1966640354E-01    0.5875033379E-01    0.1943290487E-02    0.5898952448E+00
    0.4100000000E+04    0.6325214685E+00    0.1910055930E-01    0.5882238036E-01    0.1875794581E-02    0.5908711483E+00
    0.4300000000E+04    0.6348011836E+00    0.1858085948E-01    0.5888825669E-01    0.1814065493E-02    0.5917743579E+00
    0.4500000000E+04    0.6368790085E+00    0.1810155747E-01    0.5894871864E-01    0.1757379743E-02    0.5926133416E+00
    0.4700000000E+04    0.6387800383E+00    0.1765783038E-01    0.5900440212E-01    0.1705129233E-02    0.5933952595E+00
    0.4900000000E+04    0.6405254414E+00    0.1724560140E-01    0.5905584616E-01    0.1656799387E-02    0.5941262109E+00
    0.1000000000E+04    0.5016082805E+00    0.4548322299E-01    0.5524101210E-01    0.5070592214E-02    0.5485597718E+00
    0.3000000000E+04    0.6146664591E+00    0.2300797108E-01    0.5832034102E-01    0.2346472570E-02    0.5842779498E+00
    0.5000000000E+04    0.6413455073E+00    0.1705019401E-01    0.5908012484E-01    0.1633965187E-02    0.5944742386E+00
    0.7000000000E+04    0.6527781536E+00    0.1417437887E-01    0.5942601453E-01    0.1304636666E-02    0.5997099403E+00
    0.9000000000E+04    0.6590541032E+00    0.1241461278E-01    0.5962092847E-01    0.1110833838E-02    0.6030113705E+00
    0.1100000000E+05    0.6630013480E+00    0.1119684351E-01    0.5974361761E-01    0.9809649540E-03    0.6053304119E+00
    0.1300000000E+05    0.6657069107E+00    0.1028907789E-01    0.5982618339E-01    0.8866708784E-03    0.6070722313E+00
    0.1500000000E+05    0.6676745818E+00    0.9578024372E-02    0.5988421867E-01    0.8144017127E-03    0.6084416796E+00
    0.1700000000E+05    0.6691688986E+00    0.9001050483E-02    0.5992622019E-01    0.7568231241E-03    0.6095547029E+00
    0.1900000000E+05    0.6703417894E+00    0.8520361109E-02    0.5995721212E-01    0.7095953276E-03    0.6104824091E+00
    0.2100000000E+05    0.6712866082E+00    0.8111615312E-02    0.5998035298E-01    0.6699731433E-03    0.6112711111E+00
    0.2300000000E+05    0.6720638286E+00    0.7758329201E-02    0.5999772540E-01    0.6361276171E-03    0.6119524197E+00
    0.2500000000E+05    0.6727143232E+00    0.7448884813E-02    0.6001075610E-01    0.6067886618E-03    0.6125487366E+00
    0.2700000000E+05    0.6732666975E+00    0.7174823148E-02    0.6002045353E-01    0.5810439158E-03    0.6130764341E+00
    0.2900000000E+05    0.6737415640E+00    0.6929816875E-02    0.6002754934E-01    0.5582192693E-03    0.6135477898E+00
    0.3100000000E+05    0.6741541481E+00    0.6709024332E-02    0.6003258623E-01    0.5378046597E-03    0.6139722141E+00
    0.3300000000E+05    0.6745159374E+00    0.6508668042E-02    0.6003597444E-01    0.5194062172E-03    0.6143570558E+00
    0.3500000000E+05    0.6748357616E+00    0.6325750935E-02    0.6003802918E-01    0.5027143947E-03    0.6147081485E+00
    0.3700000000E+05    0.6751205183E+00    0.6157860035E-02    0.6003899618E-01    0.4874821473E-03    0.6150301892E+00
    0.3900000000E+05    0.6753756731E+00    0.6003027415E-02    0.6003906938E-01    0.4735096246E-03    0.6153270079E+00
    0.4100000000E+05    0.6756056131E+00    0.5859629647E-02    0.6003840359E-01    0.4606332005E-03    0.6156017628E+00
    0.4300000000E+05    0.6758138999E+00    0.5726313739E-02    0.6003712364E-01    0.4487174622E-03    0.6158570848E+00
    0.4500000000E+05    0.6760034549E+00    0.5601941685E-02    0.6003533104E-01    0.4376492598E-03    0.6160951849E+00
    0.4700000000E+05    0.6761766970E+00    0.5485548327E-02    0.6003310902E-01    0.4273332185E-03    0.6163179373E+00
    0.4900000000E+05    0.6763356459E+00    0.5376308913E-02    0.6003052633E-01    0.4176883084E-03    0.6165269419E+00
    0.1000000000E+05    0.6612303586E+00    0.1175659973E-01    0.5968872396E-01    0.1040197091E-02    0.6042615188E+00
    0.3000000000E+05    0.6739548506E+00    0.6816651073E-02    0.6003029691E-01    0.5477376163E-03    0.6137653682E+00
    0.5000000000E+05    0.6764103022E+00    0.5324146254E-02    0.6002911797E-01    0.4130954620E-03    0.6166267262E+00
    0.7000000000E+05    0.6774522935E+00    0.4526726920E-02    0.5999180592E-01    0.3439082506E-03    0.6181517309E+00
    0.9000000000E+05    0.6780288735E+00    0.4010344542E-02    0.5994882764E-01    0.3001429673E-03    0.6191408866E+00
    0.1100000000E+06    0.6783951745E+00    0.3640621813E-02    0.5990659625E-01    0.2693217054E-03    0.6198517356E+00
    0.1300000000E+06    0.6786486312E+00    0.3358897359E-02    0.5986670213E-01    0.2461326835E-03    0.6203959838E+00
    0.1500000000E+06    0.6788345168E+00    0.3134899710E-02    0.5982943473E-01    0.2278837130E-03    0.6208310245E+00
    0.1700000000E+06    0.6789767318E+00    0.2951203427E-02    0.5979469073E-01    0.2130464266E-03    0.6211898012E+00
    0.1900000000E+06    0.6790890866E+00    0.2796968814E-02    0.5976225420E-01    0.2006807033E-03    0.6214927707E+00
    0.2100000000E+06    0.6791801193E+00    0.2665049553E-02    0.5973189099E-01    0.1901725428E-03    0.6217534063E+00
    0.2300000000E+06    0.6792553934E+00    0.2550516252E-02    0.5970338085E-01    0.1811018173E-03    0.6219809984E+00
    0.2500000000E+06    0.6793186895E+00    0.2449843142E-02    0.5967652685E-01    0.1731701352E-03    0.6221821924E+00
    0.2700000000E+06    0.6793726672E+00    0.2360432262E-02    0.5965115651E-01    0.1661589944E-03    0.6223618869E+00
    0.2900000000E+06    0.6794192519E+00    0.2280321136E-02    0.5962711993E-01    0.1599042617E-03    0.6225237852E+00
    0.3100000000E+06    0.6794598720E+00    0.2207995741E-02    0.5960428702E-01    0.1542799517E-03    0.6226707467E+00
    0.3300000000E+06    0.6794956096E+00    0.2142266681E-02    0.5958254475E-01    0.1491875493E-03    0.6228050202E+00
    0.3500000000E+06    0.6795272997E+00    0.2082184756E-02    0.5956179462E-01    0.1445487693E-03    0.6229284028E+00
    0.3700000000E+06    0.6795555968E+00    0.2026981935E-02    0.5954195042E-01    0.1403005180E-03    0.6230423502E+00
    0.3900000000E+06    0.6795810211E+00    0.1976029145E-02    0.5952293645E-01    0.1363913067E-03    0.6231480568E+00
    0.4100000000E+06    0.6796039916E+00    0.1928805502E-02    0.5950468592E-01    0.1327786484E-03    0.6232465128E+00
    0.4300000000E+06    0.6796248494E+00    0.1884875482E-02    0.5948713965E-01    0.1294271327E-03    0.6233385476E+00
    0.4500000000E+06    0.6796438749E+00    0.1843871722E-02    0.5947024500E-01    0.1263069820E-03    0.6234248618E+00
    0.4700000000E+06    0.6796613011E+00    0.1805481877E-02    0.5945395498E-01    0.1233929511E-03    0.6235060521E+00
    0.4900000000E+06    0.6796773229E+00    0.1769438448E-02    0.5943822746E-01    0.1206634781E-03    0.6235826306E+00
    0.1000000000E+06    0.6782303818E+00    0.3811780534E-02    0.5992746954E-01    0.2835358693E-03    0.6195222708E+00
    0.3000000000E+06    0.6794402331E+00    0.2243266028E-02    0.5961556044E-01    0.1570200070E-03    0.6225989803E+00
    0.5000000000E+06    0.6796848595E+00    0.1752223315E-02    0.5943056264E-01    0.1193620541E-03    0.6236193309E+00
    0.7000000000E+06    0.6797909144E+00    0.1488821580E-02    0.5929932815E-01    0.9963813612E-04    0.6241925427E+00
    0.9000000000E+06    0.6798504529E+00    0.1318154547E-02    0.5919738453E-01    0.8706198908E-04    0.6245785686E+00
    0.1100000000E+07    0.6798887046E+00    0.1195985953E-02    0.5911391698E-01    0.7816857094E-04    0.6248642864E+00
    0.1300000000E+07    0.6799154215E+00    0.1102935090E-02    0.5904319060E-01    0.7146104660E-04    0.6250884427E+00
    0.1500000000E+07    0.6799351760E+00    0.1028986163E-02    0.5898179346E-01    0.6617423334E-04    0.6252713953E+00
    0.1700000000E+07    0.6799504002E+00    0.9683703869E-03    0.5892752834E-01    0.6187131319E-04    0.6254250513E+00
    0.1900000000E+07    0.6799625078E+00    0.9174986645E-03    0.5887889590E-01    0.5828255900E-04    0.6255569264E+00
    0.2100000000E+07    0.6799723781E+00    0.8740049411E-03    0.5883482668E-01    0.5523131945E-04    0.6256720427E+00
    0.2300000000E+07    0.6799805865E+00    0.8362574347E-03    0.5879453070E-01    0.5259646948E-04    0.6257739083E+00
    0.2500000000E+07    0.6799875258E+00    0.8030892722E-03    0.5875740763E-01    0.5029184348E-04    0.6258650626E+00
    0.2700000000E+07    0.6799934737E+00    0.7736408656E-03    0.5872299043E-01    0.4825426589E-04    0.6259473978E+00
    0.2900000000E+07    0.6799986318E+00    0.7472630649E-03    0.5869090852E-01    0.4643623314E-04    0.6260223588E+00
    0.3100000000E+07    0.6800031503E+00    0.7234551969E-03    0.5866086287E-01    0.4480125272E-04    0.6260910719E+00
    0.3300000000E+07    0.6800071432E+00    0.7018240442E-03    0.5863260864E-01    0.4332077005E-04    0.6261544306E+00
    0.3500000000E+07    0.6800106990E+00    0.6820558829E-03    0.5860594281E-01    0.4197208167E-04    0.6262131546E+00
    0.3700000000E+07    0.6800138870E+00    0.6638969316E-03    0.5858069515E-01    0.4073688129E-04    0.6262678318E+00
    0.3900000000E+07    0.6800167628E+00    0.6471393764E-03    0.5855672148E-01    0.3960022399E-04    0.6263189479E+00
    0.4100000000E+07    0.6800193709E+00    0.6316111840E-03    0.5853389865E-01    0.3854977351E-04    0.6263669084E+00
    0.4300000000E+07    0.6800217480E+00    0.6171685460E-03    0.5851212057E-01    0.3757524553E-04    0.6264120553E+00
    0.4500000000E+07    0.6800239240E+00    0.6036901863E-03    0.5849129525E-01    0.3666798955E-04    0.6264546794E+00
    0.4700000000E+07    0.6800259241E+00    0.5910730137E-03    0.5847134235E-01    0.3582067020E-04    0.6264950297E+00
    0.4900000000E+07    0.6800277693E+00    0.5792287563E-03    0.5845219133E-01    0.3502702134E-04    0.6265333211E+00
    0.1000000000E+07    0.6798714482E+00    0.1252536723E-02    0.5915377395E-01    0.8227339551E-04    0.6247309239E+00
    0.3000000000E+07    0.6800009632E+00    0.7350646063E-03    0.5867564757E-01    0.4559780388E-04    0.6260574359E+00
    0.5000000000E+07    0.6800286395E+00    0.5735722783E-03    0.5844289677E-01    0.3464860941E-04    0.6265517541E+00
    0.7000000000E+07    0.6800410627E+00    0.4870740292E-03    0.5828719328E-01    0.2891406261E-04    0.6268470099E+00
    0.9000000000E+07    0.6800482308E+00    0.4310792842E-03    0.5816992011E-01    0.2525856695E-04    0.6270544487E+00
    0.1100000000E+08    0.6800529440E+00    0.3910214780E-03    0.5807577734E-01    0.2267416874E-04    0.6272130260E+00
    0.1300000000E+08    0.6800563034E+00    0.3605251885E-03    0.5799711136E-01    0.2072541649E-04    0.6273407168E+00
    0.1500000000E+08    0.6800588329E+00    0.3362980952E-03    0.5792953720E-01    0.1918972430E-04    0.6274472246E+00
    0.1700000000E+08    0.6800608146E+00    0.3164450173E-03    0.5787030607E-01    0.1794004104E-04    0.6275383555E+00
    0.1900000000E+08    0.6800624147E+00    0.2997874025E-03    0.5781758017E-01    0.1689792585E-04    0.6276178458E+00
    0.2100000000E+08    0.6800637375E+00    0.2855486089E-03    0.5777006967E-01    0.1601201292E-04    0.6276882356E+00
    0.2300000000E+08    0.6800648520E+00    0.2731931906E-03    0.5772683428E-01    0.1524708681E-04    0.6277513264E+00
    0.2500000000E+08    0.6800658059E+00    0.2623383630E-03    0.5768716731E-01    0.1457809922E-04    0.6278084401E+00
    0.2700000000E+08    0.6800666329E+00    0.2527022139E-03    0.5765052411E-01    0.1398668720E-04    0.6278605745E+00
