  Pressure (Pa) 22mC5-400 (mol/kg) 2mC6-400 (mol/kg) 3mC6-400 (mol/kg) 33mC5-400 (mol/kg) C7-400 (mol/kg)
    0.1000000000E+01    0.2647191011E-02    0.2356379184E-02    0.2081535763E-02    0.6396200212E-04    0.1182274348E-01
    0.3000000000E+01    0.7843601564E-02    0.6761897303E-02    0.5967272635E-02    0.1836073426E-03    0.3390033654E-01
    0.5000000000E+01    0.1291412693E-01    0.1080019911E-01    0.9523169233E-02    0.2933605714E-03    0.5411286058E-01
    0.7000000000E+01    0.1786416635E-01    0.1451488113E-01    0.1279017826E-01    0.3943985716E-03    0.7269152203E-01
    0.9000000000E+01    0.2269880610E-01    0.1794267424E-01    0.1580271499E-01    0.4877123809E-03    0.8983064762E-01
    0.1100000000E+02    0.2742284190E-01    0.2111476439E-01    0.1858991322E-01    0.5741430045E-03    0.1056947662E+00
    0.1300000000E+02    0.3204079934E-01    0.2405781824E-01    0.2117660223E-01    0.6544092213E-03    0.1204241181E+00
    0.1500000000E+02    0.3655695265E-01    0.2679478803E-01    0.2358407468E-01    0.7291293967E-03    0.1341389857E+00
    0.1700000000E+02    0.4097534197E-01    0.2934554928E-01    0.2583069553E-01    0.7988387576E-03    0.1469431280E+00
    0.1900000000E+02    0.4529978910E-01    0.3172741046E-01    0.2793238945E-01    0.8640031962E-03    0.1589265298E+00
    0.2100000000E+02    0.4953391217E-01    0.3395552374E-01    0.2990303382E-01    0.9250303908E-03    0.1701676188E+00
    0.2300000000E+02    0.5368113898E-01    0.3604321857E-01    0.3175477815E-01    0.9822788332E-03    0.1807350675E+00
    0.2500000000E+02    0.5774471944E-01    0.3800227462E-01    0.3349830547E-01    0.1036065211E-02    0.1906892685E+00
    0.2700000000E+02    0.6172773694E-01    0.3984314639E-01    0.3514304760E-01    0.1086670486E-02    0.2000835484E+00
    0.2900000000E+02    0.6563311898E-01    0.4157514955E-01    0.3669736354E-01    0.1134344925E-02    0.2089651756E+00
    0.3100000000E+02    0.6946364685E-01    0.4320661612E-01    0.3816868823E-01    0.1179312301E-02    0.2173761988E+00
    0.3300000000E+02    0.7322196475E-01    0.4474502467E-01    0.3956365708E-01    0.1221773405E-02    0.2253541504E+00
    0.3500000000E+02    0.7691058815E-01    0.4619711005E-01    0.4088821102E-01    0.1261909008E-02    0.2329326393E+00
    0.3700000000E+02    0.8053191154E-01    0.4756895632E-01    0.4214768521E-01    0.1299882375E-02    0.2401418521E+00
    0.3900000000E+02    0.8408821567E-01    0.4886607583E-01    0.4334688465E-01    0.1335841395E-02    0.2470089794E+00
    0.4100000000E+02    0.8758167427E-01    0.5009347691E-01    0.4449014861E-01    0.1369920404E-02    0.2535585800E+00
    0.4300000000E+02    0.9101436028E-01    0.5125572187E-01    0.4558140593E-01    0.1402241757E-02    0.2598128928E+00
    0.4500000000E+02    0.9438825166E-01    0.5235697713E-01    0.4662422259E-01    0.1432917169E-02    0.2657921057E+00
    0.4700000000E+02    0.9770523680E-01    0.5340105655E-01    0.4762184279E-01    0.1462048891E-02    0.2715145878E+00
    0.4900000000E+02    0.1009671196E+00    0.5439145905E-01    0.4857722461E-01    0.1489730717E-02    0.2769970903E+00
    0.1000000000E+02    0.2507436054E-01    0.1955891996E-01    0.1722283858E-01    0.5317405833E-03    0.9791280420E-01
    0.3000000000E+02    0.6755757131E-01    0.4240296387E-01    0.3744296765E-01    0.1157153946E-02    0.2132270685E+00
    0.5000000000E+02    0.1025779393E+00    0.5486754692E-01    0.4903992999E-01    0.1503055138E-02    0.2796531851E+00
    0.7000000000E+02    0.1322826014E+00    0.6222999062E-01    0.5662305514E-01    0.1711079054E-02    0.3232724672E+00
    0.9000000000E+02    0.1580374355E+00    0.6669525155E-01    0.6200108384E-01    0.1840331858E-02    0.3543349293E+00
    0.1100000000E+03    0.1807547381E+00    0.6937058551E-01    0.6603198950E-01    0.1920522065E-02    0.3777098156E+00
    0.1300000000E+03    0.2010687129E+00    0.7087870113E-01    0.6917661128E-01    0.1968400586E-02    0.3960163090E+00
    0.1500000000E+03    0.2194352532E+00    0.7159747358E-01    0.7170532968E-01    0.1994172071E-02    0.4107933153E+00
    0.1700000000E+03    0.2361915497E+00    0.7176900395E-01    0.7378763135E-01    0.2004407497E-02    0.4230068527E+00
    0.1900000000E+03    0.2515932094E+00    0.7155482520E-01    0.7553537242E-01    0.2003517654E-02    0.4332953552E+00
    0.2100000000E+03    0.2658382030E+00    0.7106614001E-01    0.7702548335E-01    0.1994560349E-02    0.4420985210E+00
    0.2300000000E+03    0.2790827918E+00    0.7038141555E-01    0.7831269286E-01    0.1979710483E-02    0.4497295824E+00
    0.2500000000E+03    0.2914524087E+00    0.6955712349E-01    0.7943704895E-01    0.1960547380E-02    0.4564180593E+00
    0.2700000000E+03    0.3030492659E+00    0.6863455545E-01    0.8042856561E-01    0.1938237458E-02    0.4623361970E+00
    0.2900000000E+03    0.3139577881E+00    0.6764428958E-01    0.8131020283E-01    0.1913654218E-02    0.4676159347E+00
    0.3100000000E+03    0.3242485635E+00    0.6660919817E-01    0.8209983965E-01    0.1887459262E-02    0.4723601494E+00
    0.3300000000E+03    0.3339812671E+00    0.6554652059E-01    0.8281161710E-01    0.1860158307E-02    0.4766503163E+00
    0.3500000000E+03    0.3432068567E+00    0.6446932090E-01    0.8345687460E-01    0.1832140710E-02    0.4805518536E+00
    0.3700000000E+03    0.3519692440E+00    0.6338753098E-01    0.8404481693E-01    0.1803707866E-02    0.4841179329E+00
    0.3900000000E+03    0.3603065849E+00    0.6230870859E-01    0.8458299830E-01    0.1775093934E-02    0.4873922471E+00
    0.4100000000E+03    0.3682522857E+00    0.6123859592E-01    0.8507767981E-01    0.1746481179E-02    0.4904110558E+00
    0.4300000000E+03    0.3758357969E+00    0.6018153617E-01    0.8553409724E-01    0.1718011480E-02    0.4932047189E+00
    0.4500000000E+03    0.3830832459E+00    0.5914078754E-01    0.8595666465E-01    0.1689795045E-02    0.4957988635E+00
    0.4700000000E+03    0.3900179462E+00    0.5811876235E-01    0.8634913104E-01    0.1661917096E-02    0.4982152824E+00
    0.4900000000E+03    0.3966608103E+00    0.5711721062E-01    0.8671470223E-01    0.1634443028E-02    0.5004726339E+00
    0.1000000000E+03    0.1697310484E+00    0.6821013415E-01    0.6415009354E-01    0.1885309524E-02    0.3667854268E+00
    0.3000000000E+03    0.3191764374E+00    0.6713115709E-01    0.8171556242E-01    0.1900723471E-02    0.4700494602E+00
    0.5000000000E+03    0.3998787668E+00    0.5662451372E-01    0.8688827943E-01    0.1620873473E-02    0.5015467710E+00
    0.7000000000E+03    0.4526617944E+00    0.4797080518E-01    0.8945124951E-01    0.1377278193E-02    0.5176187144E+00
    0.9000000000E+03    0.4899611890E+00    0.4139340440E-01    0.9100320654E-01    0.1186087228E-02    0.5276122357E+00
    0.1100000000E+04    0.5175787362E+00    0.3638088713E-01    0.9205118810E-01    0.1037135049E-02    0.5345289831E+00
    0.1300000000E+04    0.5387305310E+00    0.3249325373E-01    0.9280936746E-01    0.9197699050E-03    0.5396512269E+00
    0.1500000000E+04    0.5553669082E+00    0.2941728853E-01    0.9338466813E-01    0.8258421627E-03    0.5436258450E+00
    0.1700000000E+04    0.5687403754E+00    0.2693656759E-01    0.9383673853E-01    0.7494700234E-03    0.5468172650E+00
    0.1900000000E+04    0.5796897330E+00    0.2490078079E-01    0.9420161113E-01    0.6864398072E-03    0.5494476932E+00
    0.2100000000E+04    0.5887957223E+00    0.2320392655E-01    0.9450239969E-01    0.6337083127E-03    0.5516609467E+00
    0.2300000000E+04    0.5964716930E+00    0.2176988426E-01    0.9475464459E-01    0.5890481349E-03    0.5535545551E+00
    0.2500000000E+04    0.6030188901E+00    0.2054298094E-01    0.9496919719E-01    0.5508045227E-03    0.5551971897E+00
    0.2700000000E+04    0.6086614203E+00    0.1948177911E-01    0.9515387429E-01    0.5177296841E-03    0.5566387204E+00
    0.2900000000E+04    0.6135690516E+00    0.1855492795E-01    0.9531445556E-01    0.4888691424E-03    0.5579163127E+00
    0.3100000000E+04    0.6178724751E+00    0.1773834665E-01    0.9545531024E-01    0.4634828982E-03    0.5590582801E+00
    0.3300000000E+04    0.6216737596E+00    0.1701327949E-01    0.9557980502E-01    0.4409900037E-03    0.5600866051E+00
    0.3500000000E+04    0.6250536603E+00    0.1636493052E-01    0.9569057749E-01    0.4209290511E-03    0.5610186382E+00
    0.3700000000E+04    0.6280768235E+00    0.1578148985E-01    0.9578972446E-01    0.4029296202E-03    0.5618682734E+00
    0.3900000000E+04    0.6307955548E+00    0.1525342882E-01    0.9587893444E-01    0.3866913689E-03    0.5626467801E+00
    0.4100000000E+04    0.6332525891E+00    0.1477298266E-01    0.9595958294E-01    0.3719685287E-03    0.5633634039E+00
    0.4300000000E+04    0.6354831541E+00    0.1433376577E-01    0.9603280207E-01    0.3585582707E-03    0.5640258079E+00
    0.4500000000E+04    0.6375165284E+00    0.1393048210E-01    0.9609953239E-01    0.3462918775E-03    0.5646404027E+00
    0.4700000000E+04    0.6393772307E+00    0.1355870469E-01    0.9616056193E-01    0.3350279734E-03    0.5652125958E+00
    0.4900000000E+04    0.6410859373E+00    0.1321470606E-01    0.9621655600E-01    0.3246472830E-03    0.5657469841E+00
    0.1000000000E+04    0.5047396873E+00    0.3872221374E-01    0.9157313557E-01    0.1107050484E-02    0.5313533705E+00
    0.3000000000E+04    0.6157893371E+00    0.1813413232E-01    0.9538711852E-01    0.4757812436E-03    0.5585027502E+00
    0.5000000000E+04    0.6418888823E+00    0.1305211713E-01    0.9624284490E-01    0.3197558852E-03    0.5660012535E+00
    0.7000000000E+04    0.6530938369E+00    0.1069654103E-01    0.9660550483E-01    0.2502516475E-03    0.5698146730E+00
    0.9000000000E+04    0.6592575279E+00    0.9291335967E-02    0.9679574836E-01    0.2103998951E-03    0.5722104966E+00
    0.1100000000E+05    0.6631411299E+00    0.8335419288E-02    0.9690638714E-01    0.1842024990E-03    0.5738915454E+00
    0.1300000000E+05    0.6658070913E+00    0.7631444346E-02    0.9697423849E-01    0.1654581870E-03    0.5751544230E+00
    0.1500000000E+05    0.6677484347E+00    0.7084953206E-02    0.9701676184E-01    0.1512566858E-03    0.5761482520E+00
    0.1700000000E+05    0.6692243629E+00    0.6644552529E-02    0.9704326111E-01    0.1400463554E-03    0.5769571085E+00
    0.1900000000E+05    0.6703839107E+00    0.6279628029E-02    0.9705912124E-01    0.1309208608E-03    0.5776324121E+00
    0.2100000000E+05    0.6713187496E+00    0.5970672238E-02    0.9706765722E-01    0.1233132463E-03    0.5782075854E+00
    0.2300000000E+05    0.6720883192E+00    0.5704591409E-02    0.9707100965E-01    0.1168494319E-03    0.5787054076E+00
    0.2500000000E+05    0.6727328279E+00    0.5472225985E-02    0.9707061442E-01    0.1112718483E-03    0.5791420049E+00
    0.2700000000E+05    0.6732804380E+00    0.5266949528E-02    0.9706746494E-01    0.1063968598E-03    0.5795291545E+00
    0.2900000000E+05    0.6737514571E+00    0.5083832768E-02    0.9706226637E-01    0.1020896907E-03    0.5798756841E+00
    0.3100000000E+05    0.6741608950E+00    0.4919121916E-02    0.9705553002E-01    0.9824897265E-04    0.5801883574E+00
    0.3300000000E+05    0.6745200837E+00    0.4769900560E-02    0.9704763348E-01    0.9479684945E-04    0.5804724563E+00
    0.3500000000E+05    0.6748377379E+00    0.4633863385E-02    0.9703885988E-01    0.9167243013E-04    0.5807321732E+00
    0.3700000000E+05    0.6751206688E+00    0.4509160470E-02    0.9702942432E-01    0.8882733254E-04    0.5809708842E+00
    0.3900000000E+05    0.6753742762E+00    0.4394287535E-02    0.9701949212E-01    0.8622257439E-04    0.5811913427E+00
    0.4100000000E+05    0.6756028963E+00    0.4288006916E-02    0.9700919153E-01    0.8382635640E-04    0.5813958198E+00
    0.4300000000E+05    0.6758100507E+00    0.4189289586E-02    0.9699862288E-01    0.8161245099E-04    0.5815862080E+00
    0.4500000000E+05    0.6759986293E+00    0.4097271899E-02    0.9698786518E-01    0.7955901053E-04    0.5817640985E+00
    0.4700000000E+05    0.6761710256E+00    0.4011222830E-02    0.9697698106E-01    0.7764767231E-04    0.5819308403E+00
    0.4900000000E+05    0.6763292389E+00    0.3930518824E-02    0.9696602033E-01    0.7586287684E-04    0.5820875860E+00
    0.1000000000E+05    0.6613979126E+00    0.8773149170E-02    0.9685804304E-01    0.1960975587E-03    0.5731167755E+00
    0.3000000000E+05    0.6739630938E+00    0.4999375431E-02    0.9705906422E-01    0.1001163531E-03    0.5800358933E+00
    0.5000000000E+05    0.6764035636E+00    0.3892000844E-02    0.9696052401E-01    0.7501370488E-04    0.5821625255E+00
    0.7000000000E+05    0.6774419285E+00    0.3304576161E-02    0.9685285319E-01    0.6227644327E-04    0.5833176335E+00
    0.9000000000E+05    0.6780174363E+00    0.2925438083E-02    0.9675493853E-01    0.5426830709E-04    0.5840790903E+00
    0.1100000000E+06    0.6783834858E+00    0.2654502073E-02    0.9666765479E-01    0.4864892813E-04    0.5846340582E+00
    0.1300000000E+06    0.6786370026E+00    0.2448312160E-02    0.9658957203E-01    0.4443110815E-04    0.5850642806E+00
    0.1500000000E+06    0.6788230748E+00    0.2284517933E-02    0.9651915878E-01    0.4111741818E-04    0.5854120385E+00
    0.1700000000E+06    0.6789655262E+00    0.2150282828E-02    0.9645513064E-01    0.3842661446E-04    0.5857017558E+00
    0.1900000000E+06    0.6790781332E+00    0.2037634936E-02    0.9639646235E-01    0.3618622011E-04    0.5859486907E+00
    0.2100000000E+06    0.6791694179E+00    0.1941325235E-02    0.9634234102E-01    0.3428385000E-04    0.5861629502E+00
    0.2300000000E+06    0.6792449362E+00    0.1857736667E-02    0.9629211821E-01    0.3264274638E-04    0.5863515411E+00
    0.2500000000E+06    0.6793084655E+00    0.1784284212E-02    0.9624527132E-01    0.3120847443E-04    0.5865195016E+00
    0.2700000000E+06    0.6793626641E+00    0.1719064374E-02    0.9620137435E-01    0.2994122285E-04    0.5866705636E+00
    0.2900000000E+06    0.6794094573E+00    0.1660640082E-02    0.9616007619E-01    0.2881111772E-04    0.5868075617E+00
    0.3100000000E+06    0.6794502739E+00    0.1607903194E-02    0.9612108438E-01    0.2779524885E-04    0.5869326945E+00
    0.3300000000E+06    0.6794861968E+00    0.1559983526E-02    0.9608415295E-01    0.2687571538E-04    0.5870476987E+00
    0.3500000000E+06    0.6795180614E+00    0.1516186885E-02    0.9604907314E-01    0.2603830195E-04    0.5871539674E+00
    0.3700000000E+06    0.6795465232E+00    0.1475951753E-02    0.9601566636E-01    0.2527155851E-04    0.5872526342E+00
    0.3900000000E+06    0.6795721031E+00    0.1438818337E-02    0.9598377865E-01    0.2456614602E-04    0.5873446322E+00
    0.4100000000E+06    0.6795952209E+00    0.1404406018E-02    0.9595327639E-01    0.2391436172E-04    0.5874307385E+00
    0.4300000000E+06    0.6796162181E+00    0.1372396626E-02    0.9592404286E-01    0.2330978864E-04    0.5875116057E+00
    0.4500000000E+06    0.6796353760E+00    0.1342521838E-02    0.9589597555E-01    0.2274703254E-04    0.5875877873E+00
    0.4700000000E+06    0.6796529280E+00    0.1314553564E-02    0.9586898389E-01    0.2222152183E-04    0.5876597565E+00
    0.4900000000E+06    0.6796690694E+00    0.1288296493E-02    0.9584298752E-01    0.2172935321E-04    0.5877279201E+00
    0.1000000000E+06    0.6782187603E+00    0.2779878218E-02    0.9671004549E-01    0.5123850974E-04    0.5843759369E+00
    0.3000000000E+06    0.6794305382E+00    0.1633619839E-02    0.9614030834E-01    0.2829012204E-04    0.5868714935E+00
    0.5000000000E+06    0.6796766637E+00    0.1275756129E-02    0.9583033988E-01    0.2149470496E-04    0.5877606869E+00
    0.7000000000E+06    0.6797836429E+00    0.1083925411E-02    0.9561572087E-01    0.1793991725E-04    0.5882814824E+00
    0.9000000000E+06    0.6798438194E+00    0.9596710961E-03    0.9545107501E-01    0.1567462549E-04    0.5886428855E+00
    0.1100000000E+07    0.6798825455E+00    0.8707419614E-03    0.9531732795E-01    0.1407319273E-04    0.5889167231E+00
    0.1300000000E+07    0.6799096334E+00    0.8030157318E-03    0.9520462166E-01    0.1286560981E-04    0.5891357255E+00
    0.1500000000E+07    0.6799296887E+00    0.7491965823E-03    0.9510718576E-01    0.1191392805E-04    0.5893173971E+00
    0.1700000000E+07    0.6799451632E+00    0.7050833163E-03    0.9502134654E-01    0.1113942810E-04    0.5894721328E+00
    0.1900000000E+07    0.6799574837E+00    0.6680625686E-03    0.9494461854E-01    0.1049351607E-04    0.5896065816E+00
    0.2100000000E+07    0.6799675379E+00    0.6364117409E-03    0.9487524081E-01    0.9944373408E-05    0.5897252394E+00
    0.2300000000E+07    0.6799759074E+00    0.6089429390E-03    0.9481191967E-01    0.9470186648E-05    0.5898312807E+00
    0.2500000000E+07    0.6799829895E+00    0.5848067789E-03    0.9475367646E-01    0.9055440258E-05    0.5899270256E+00
    0.2700000000E+07    0.6799890650E+00    0.5633775944E-03    0.9469975272E-01    0.8688759675E-05    0.5900142187E+00
    0.2900000000E+07    0.6799943382E+00    0.5441829163E-03    0.9464954865E-01    0.8361592800E-05    0.5900942030E+00
    0.3100000000E+07    0.6799989611E+00    0.5268583568E-03    0.9460258162E-01    0.8067370348E-05    0.5901680335E+00
    0.3300000000E+07    0.6800030495E+00    0.5111177453E-03    0.9455845746E-01    0.7800952328E-05    0.5902365533E+00
    0.3500000000E+07    0.6800066929E+00    0.4967327708E-03    0.9451685009E-01    0.7558252200E-05    0.5903004461E+00
    0.3700000000E+07    0.6800099618E+00    0.4835187507E-03    0.9447748661E-01    0.7335975056E-05    0.5903602738E+00
    0.3900000000E+07    0.6800129125E+00    0.4713244572E-03    0.9444013636E-01    0.7131431095E-05    0.5904165033E+00
    0.4100000000E+07    0.6800155904E+00    0.4600247030E-03    0.9440460258E-01    0.6942400102E-05    0.5904695269E+00
    0.4300000000E+07    0.6800180325E+00    0.4495148416E-03    0.9437071608E-01    0.6767031219E-05    0.5905196772E+00
    0.4500000000E+07    0.6800202695E+00    0.4397066244E-03    0.9433833033E-01    0.6603767661E-05    0.5905672381E+00
    0.4700000000E+07    0.6800223268E+00    0.4305250359E-03    0.9430731754E-01    0.6451289353E-05    0.5906124544E+00
    0.4900000000E+07    0.6800242259E+00    0.4219058450E-03    0.9427756562E-01    0.6308468661E-05    0.5906555381E+00
    0.1000000000E+07    0.6798650677E+00    0.9119049866E-03    0.9538108709E-01    0.1481229870E-04    0.5887881938E+00
    0.3000000000E+07    0.6799967230E+00    0.5353063157E-03    0.9462568694E-01    0.8210713187E-05    0.5901318305E+00
    0.5000000000E+07    0.6800251219E+00    0.4177895451E-03    0.9426313114E-01    0.6240371492E-05    0.5906763390E+00
    0.7000000000E+07    0.6800379441E+00    0.3548412998E-03    0.9402176832E-01    0.5208381570E-05    0.5910150393E+00
    0.9000000000E+07    0.6800453754E+00    0.3140885824E-03    0.9384046361E-01    0.4550493494E-05    0.5912593779E+00
    0.1100000000E+08    0.6800502795E+00    0.2849325906E-03    0.9369517212E-01    0.4085341047E-05    0.5914498051E+00
    0.1300000000E+08    0.6800537855E+00    0.2627344551E-03    0.9357391724E-01    0.3734572152E-05    0.5916054630E+00
    0.1500000000E+08    0.6800564324E+00    0.2450985725E-03    0.9346985741E-01    0.3458135779E-05    0.5917368894E+00
    0.1700000000E+08    0.6800585109E+00    0.2306459066E-03    0.9337871315E-01    0.3233170457E-05    0.5918504899E+00
    0.1900000000E+08    0.6800601926E+00    0.2185188536E-03    0.9329762814E-01    0.3045561234E-05    0.5919504428E+00
    0.2100000000E+08    0.6800615855E+00    0.2081522530E-03    0.9322460041E-01    0.2886064881E-05    0.5920396210E+00
    0.2300000000E+08    0.6800627611E+00    0.1991564505E-03    0.9315817221E-01    0.2748344232E-05    0.5921200826E+00
    0.2500000000E+08    0.6800637687E+00    0.1912528781E-03    0.9309724895E-01    0.2627891609E-05    0.5921933517E+00
    0.2700000000E+08    0.6800646436E+00    0.1842363709E-03    0.9304098774E-01    0.2521402337E-05    0.5922605874E+00
