  Pressure (Pa) 22mC5-400 (mol/kg) 2mC6-400 (mol/kg) 3mC6-400 (mol/kg) 33mC5-400 (mol/kg) C7-400 (mol/kg)
    0.1000000000E+01    0.2650769498E-02    0.7930763633E-03    0.4209175102E-02    0.2583045329E-03    0.3415157370E-02
    0.3000000000E+01    0.7874874388E-02    0.2317629817E-02    0.1232092718E-01    0.7549544900E-03    0.9997864505E-02
    0.5000000000E+01    0.1299850827E-01    0.3764752276E-02    0.2004845618E-01    0.1226516780E-02    0.1627024416E-01
    0.7000000000E+01    0.1802487409E-01    0.5139637260E-02    0.2741881931E-01    0.1674675135E-02    0.2225411591E-01
    0.9000000000E+01    0.2295703724E-01    0.6447018284E-02    0.3445658251E-01    0.2100963818E-02    0.2796929182E-01
    0.1100000000E+02    0.2779793284E-01    0.7691219666E-02    0.4118410096E-01    0.2506784160E-02    0.3343380248E-01
    0.1300000000E+02    0.3255037259E-01    0.8876200665E-02    0.4762176258E-01    0.2893418921E-02    0.3866409307E-01
    0.1500000000E+02    0.3721705113E-01    0.1000559396E-01    0.5378819999E-01    0.3262044817E-02    0.4367519412E-01
    0.1700000000E+02    0.4180055205E-01    0.1108273928E-01    0.5970047566E-01    0.3613743459E-02    0.4848087061E-01
    0.1900000000E+02    0.4630335358E-01    0.1211071295E-01    0.6537424409E-01    0.3949510962E-02    0.5309375269E-01
    0.2100000000E+02    0.5072783382E-01    0.1309235384E-01    0.7082389432E-01    0.4270266386E-02    0.5752545040E-01
    0.2300000000E+02    0.5507627581E-01    0.1403028628E-01    0.7606267538E-01    0.4576859188E-02    0.6178665482E-01
    0.2500000000E+02    0.5935087218E-01    0.1492694035E-01    0.8110280724E-01    0.4870075817E-02    0.6588722740E-01
    0.2700000000E+02    0.6355372958E-01    0.1578456985E-01    0.8595557889E-01    0.5150645555E-02    0.6983627901E-01
    0.2900000000E+02    0.6768687287E-01    0.1660526828E-01    0.9063143556E-01    0.5419245715E-02    0.7364224021E-01
    0.3100000000E+02    0.7175224902E-01    0.1739098312E-01    0.9514005615E-01    0.5676506278E-02    0.7731292368E-01
    0.3300000000E+02    0.7575173083E-01    0.1814352858E-01    0.9949042244E-01    0.5923014024E-02    0.8085557992E-01
    0.3500000000E+02    0.7968712043E-01    0.1886459695E-01    0.1036908808E+00    0.6159316242E-02    0.8427694705E-01
    0.3700000000E+02    0.8356015259E-01    0.1955576889E-01    0.1077491975E+00    0.6385924054E-02    0.8758329538E-01
    0.3900000000E+02    0.8737249782E-01    0.2021852262E-01    0.1116726084E+00    0.6603315400E-02    0.9078046740E-01
    0.4100000000E+02    0.9112576534E-01    0.2085424222E-01    0.1154678636E+00    0.6811937737E-02    0.9387391376E-01
    0.4300000000E+02    0.9482150586E-01    0.2146422509E-01    0.1191412675E+00    0.7012210465E-02    0.9686872565E-01
    0.4500000000E+02    0.9846121422E-01    0.2204968877E-01    0.1226987150E+00    0.7204527125E-02    0.9976966402E-01
    0.4700000000E+02    0.1020463319E+00    0.2261177705E-01    0.1261457245E+00    0.7389257395E-02    0.1025811860E+00
    0.4900000000E+02    0.1055782494E+00    0.2315156552E-01    0.1294874676E+00    0.7566748890E-02    0.1053074688E+00
    0.1000000000E+02    0.2538871493E-01    0.7076760897E-02    0.3785780460E-01    0.2306349735E-02    0.3073181744E-01
    0.3000000000E+02    0.6972791309E-01    0.1700238228E-01    0.9290607342E-01    0.5549255806E-02    0.7549402594E-01
    0.5000000000E+02    0.1073246792E+00    0.2341341608E-01    0.1311203920E+00    0.7652883103E-02    0.1066398798E+00
    0.7000000000E+02    0.1397630068E+00    0.2769660690E-01    0.1592844207E+00    0.9065624792E-02    0.1296468724E+00
    0.9000000000E+02    0.1681526543E+00    0.3060503156E-01    0.1809563860E+00    0.1003082327E-01    0.1473903944E+00
    0.1100000000E+03    0.1932948797E+00    0.3258434195E-01    0.1981848094E+00    0.1069250637E-01    0.1615271473E+00
    0.1300000000E+03    0.2157833808E+00    0.3391497246E-01    0.2122337778E+00    0.1114138972E-01    0.1730802302E+00
    0.1500000000E+03    0.2360680947E+00    0.3478167442E-01    0.2239264370E+00    0.1143733312E-01    0.1827163751E+00
    0.1700000000E+03    0.2544968341E+00    0.3531055001E-01    0.2338223422E+00    0.1162128499E-01    0.1908891570E+00
    0.1900000000E+03    0.2713432284E+00    0.3559011867E-01    0.2423154748E+00    0.1172207020E-01    0.1979181791E+00
    0.2100000000E+03    0.2868259408E+00    0.3568394181E-01    0.2496914829E+00    0.1176045529E-01    0.2040353378E+00
    0.2300000000E+03    0.3011221776E+00    0.3563851496E-01    0.2561626680E+00    0.1175168931E-01    0.2094131144E+00
    0.2500000000E+03    0.3143773721E+00    0.3548837647E-01    0.2618902093E+00    0.1170714852E-01    0.2141825541E+00
    0.2700000000E+03    0.3267122504E+00    0.3525951271E-01    0.2669987497E+00    0.1163543328E-01    0.2184450718E+00
    0.2900000000E+03    0.3382280696E+00    0.3497168499E-01    0.2715862453E+00    0.1154311814E-01    0.2222804281E+00
    0.3100000000E+03    0.3490105588E+00    0.3464005423E-01    0.2757307832E+00    0.1143527614E-01    0.2257522517E+00
    0.3300000000E+03    0.3591329234E+00    0.3427633650E-01    0.2794954042E+00    0.1131585221E-01    0.2289119490E+00
    0.3500000000E+03    0.3686581644E+00    0.3388963859E-01    0.2829315823E+00    0.1118793369E-01    0.2318015244E+00
    0.3700000000E+03    0.3776408885E+00    0.3348707091E-01    0.2860817771E+00    0.1105394915E-01    0.2344556518E+00
    0.3900000000E+03    0.3861287371E+00    0.3307420293E-01    0.2889813373E+00    0.1091581643E-01    0.2369032187E+00
    0.4100000000E+03    0.3941635241E+00    0.3265540538E-01    0.2916599394E+00    0.1077505421E-01    0.2391684950E+00
    0.4300000000E+03    0.4017821518E+00    0.3223411024E-01    0.2941426894E+00    0.1063286697E-01    0.2412720270E+00
    0.4500000000E+03    0.4090173526E+00    0.3181300986E-01    0.2964509762E+00    0.1049021032E-01    0.2432313319E+00
    0.4700000000E+03    0.4158982964E+00    0.3139421094E-01    0.2986031399E+00    0.1034784165E-01    0.2450614404E+00
    0.4900000000E+03    0.4224510905E+00    0.3097935431E-01    0.3006150005E+00    0.1020635967E-01    0.2467753271E+00
    0.1000000000E+03    0.1810886072E+00    0.3169046038E-01    0.1900338056E+00    0.1039301902E-01    0.1548349838E+00
    0.3000000000E+03    0.3437061416E+00    0.3481054307E-01    0.2737096374E+00    0.1149086858E-01    0.2240583195E+00
    0.5000000000E+03    0.4256118559E+00    0.3077381332E-01    0.3015726775E+00    0.1013610272E-01    0.2475922656E+00
    0.7000000000E+03    0.4762169351E+00    0.2704990004E-01    0.3158959705E+00    0.8847286938E-02    0.2599132178E+00
    0.9000000000E+03    0.5106516388E+00    0.2411846053E-01    0.3247413619E+00    0.7814881414E-02    0.2676510999E+00
    0.1100000000E+04    0.5355341795E+00    0.2183470834E-01    0.3307963133E+00    0.7002011551E-02    0.2730322047E+00
    0.1300000000E+04    0.5542976635E+00    0.2002849833E-01    0.3352250548E+00    0.6355219449E-02    0.2770275218E+00
    0.1500000000E+04    0.5689133183E+00    0.1857150266E-01    0.3386178714E+00    0.5831994891E-02    0.2801325184E+00
    0.1700000000E+04    0.5805945971E+00    0.1737338311E-01    0.3413075628E+00    0.5401503348E-02    0.2826282506E+00
    0.1900000000E+04    0.5901284017E+00    0.1637086152E-01    0.3434967458E+00    0.5041696698E-02    0.2846868432E+00
    0.2100000000E+04    0.5980464298E+00    0.1551904507E-01    0.3453161916E+00    0.4736691634E-02    0.2864200230E+00
    0.2300000000E+04    0.6047202146E+00    0.1478550678E-01    0.3468542656E+00    0.4474879868E-02    0.2879037062E+00
    0.2500000000E+04    0.6104167796E+00    0.1414637644E-01    0.3481729346E+00    0.4247637882E-02    0.2891914176E+00
    0.2700000000E+04    0.6153326947E+00    0.1358375791E-01    0.3493170033E+00    0.4048454174E-02    0.2903220632E+00
    0.2900000000E+04    0.6196156961E+00    0.1308400241E-01    0.3503197110E+00    0.3872335077E-02    0.2913246552E+00
    0.3100000000E+04    0.6233788476E+00    0.1263653506E-01    0.3512062628E+00    0.3715395131E-02    0.2922213052E+00
    0.3300000000E+04    0.6267100713E+00    0.1223304360E-01    0.3519961356E+00    0.3574570498E-02    0.2930291848E+00
    0.3500000000E+04    0.6296787154E+00    0.1186690769E-01    0.3527046295E+00    0.3447415378E-02    0.2937618490E+00
    0.3700000000E+04    0.6323401774E+00    0.1153279085E-01    0.3533439387E+00    0.3331955214E-02    0.2944301533E+00
    0.3900000000E+04    0.6347392192E+00    0.1122634400E-01    0.3539239073E+00    0.3226579323E-02    0.2950429027E+00
    0.4100000000E+04    0.6369123852E+00    0.1094398700E-01    0.3544525734E+00    0.3129961290E-02    0.2956073205E+00
    0.4300000000E+04    0.6388897922E+00    0.1068274548E-01    0.3549365687E+00    0.3040999192E-02    0.2961293932E+00
    0.4500000000E+04    0.6406964745E+00    0.1044012731E-01    0.3553814149E+00    0.2958770188E-02    0.2966141285E+00
    0.4700000000E+04    0.6423534053E+00    0.1021402809E-01    0.3557917488E+00    0.2882495625E-02    0.2970657500E+00
    0.4900000000E+04    0.6438782837E+00    0.1000265803E-01    0.3561714941E+00    0.2811513954E-02    0.2974878477E+00
    0.1000000000E+04    0.5240255765E+00    0.2290711921E-01    0.3280253672E+00    0.7384524754E-02    0.2705594268E+00
    0.3000000000E+04    0.6215562571E+00    0.1285429763E-01    0.3507761759E+00    0.3791675741E-02    0.2917850519E+00
    0.5000000000E+04    0.6445959921E+00    0.9902008806E-02    0.3563509604E+00    0.2777827918E-02    0.2976888027E+00
    0.7000000000E+04    0.6547013117E+00    0.8384773212E-02    0.3589351391E+00    0.2279864439E-02    0.3007143761E+00
    0.9000000000E+04    0.6603481474E+00    0.7421023565E-02    0.3604341850E+00    0.1974357211E-02    0.3026318724E+00
    0.1100000000E+05    0.6639467201E+00    0.6737945940E-02    0.3614128645E+00    0.1763509691E-02    0.3039894991E+00
    0.1300000000E+05    0.6664380061E+00    0.6220358180E-02    0.3621004918E+00    0.1607060000E-02    0.3050186236E+00
    0.1500000000E+05    0.6682639806E+00    0.5810134361E-02    0.3626084304E+00    0.1485152771E-02    0.3058356629E+00
    0.1700000000E+05    0.6696593288E+00    0.5474321656E-02    0.3629975005E+00    0.1386757373E-02    0.3065063423E+00
    0.1900000000E+05    0.6707601010E+00    0.5192639823E-02    0.3633038112E+00    0.1305204341E-02    0.3070709277E+00
    0.2100000000E+05    0.6716505581E+00    0.4951821201E-02    0.3635501862E+00    0.1236197568E-02    0.3075556449E+00
    0.2300000000E+05    0.6723856534E+00    0.4742765471E-02    0.3637517733E+00    0.1176830342E-02    0.3079784080E+00
    0.2500000000E+05    0.6730027458E+00    0.4558990800E-02    0.3639190275E+00    0.1125057276E-02    0.3083519290E+00
    0.2700000000E+05    0.6735281145E+00    0.4395736058E-02    0.3640594002E+00    0.1079392146E-02    0.3086855150E+00
    0.2900000000E+05    0.6739807805E+00    0.4249413278E-02    0.3641783466E+00    0.1038725802E-02    0.3089861599E+00
    0.3100000000E+05    0.6743748492E+00    0.4117259396E-02    0.3642799527E+00    0.1002211594E-02    0.3092592366E+00
    0.3300000000E+05    0.6747210006E+00    0.3997106753E-02    0.3643673391E+00    0.9691906219E-03    0.3095089520E+00
    0.3500000000E+05    0.6750274698E+00    0.3887227247E-02    0.3644429301E+00    0.9391414392E-03    0.3097386540E+00
    0.3700000000E+05    0.6753007078E+00    0.3786223692E-02    0.3645086373E+00    0.9116452875E-03    0.3099510462E+00
    0.3900000000E+05    0.6755458399E+00    0.3692952347E-02    0.3645659878E+00    0.8863615000E-03    0.3101483393E+00
    0.4100000000E+05    0.6757669895E+00    0.3606466562E-02    0.3646162163E+00    0.8630097386E-03    0.3103323617E+00
    0.4300000000E+05    0.6759675111E+00    0.3525975046E-02    0.3646603315E+00    0.8413569288E-03    0.3105046412E+00
    0.4500000000E+05    0.6761501620E+00    0.3450810464E-02    0.3646991648E+00    0.8212074926E-03    0.3106664656E+00
    0.4700000000E+05    0.6763172288E+00    0.3380405478E-02    0.3647334083E+00    0.8023959386E-03    0.3108189297E+00
    0.4900000000E+05    0.6764706245E+00    0.3314274225E-02    0.3647636417E+00    0.7847811660E-03    0.3109629714E+00
    0.1000000000E+05    0.6623271809E+00    0.7053555829E-02    0.3609701538E+00    0.1860321988E-02    0.3033622688E+00
    0.3000000000E+05    0.6741844051E+00    0.4181712551E-02    0.3642311032E+00    0.1019994581E-02    0.3091258582E+00
    0.5000000000E+05    0.6765427096E+00    0.3282678062E-02    0.3647774107E+00    0.7763840369E-03    0.3110320909E+00
    0.7000000000E+05    0.6775511812E+00    0.2798301548E-02    0.3649287631E+00    0.6492076996E-03    0.3121207766E+00
    0.9000000000E+05    0.6781109186E+00    0.2483383295E-02    0.3649579995E+00    0.5681409527E-03    0.3128666754E+00
    0.1100000000E+06    0.6784669807E+00    0.2257356204E-02    0.3649382347E+00    0.5107850139E-03    0.3134276129E+00
    0.1300000000E+06    0.6787134638E+00    0.2084833135E-02    0.3648963050E+00    0.4674953541E-03    0.3138740762E+00
    0.1500000000E+06    0.6788942328E+00    0.1947484375E-02    0.3648439124E+00    0.4333484748E-03    0.3142432470E+00
    0.1700000000E+06    0.6790324935E+00    0.1834731451E-02    0.3647867344E+00    0.4055352489E-03    0.3145569850E+00
    0.1900000000E+06    0.6791416742E+00    0.1739981401E-02    0.3647277213E+00    0.3823213153E-03    0.3148291653E+00
    0.2100000000E+06    0.6792300848E+00    0.1658881254E-02    0.3646684734E+00    0.3625706855E-03    0.3150691137E+00
    0.2300000000E+06    0.6793031434E+00    0.1588424848E-02    0.3646098770E+00    0.3455042679E-03    0.3152833830E+00
    0.2500000000E+06    0.6793645340E+00    0.1526459891E-02    0.3645524220E+00    0.3305676700E-03    0.3154767432E+00
    0.2700000000E+06    0.6794168486E+00    0.1471399139E-02    0.3644963707E+00    0.3173542805E-03    0.3156527695E+00
    0.2900000000E+06    0.6794619642E+00    0.1422042735E-02    0.3644418509E+00    0.3055582470E-03    0.3158142066E+00
    0.3100000000E+06    0.6795012732E+00    0.1377464418E-02    0.3643889102E+00    0.2949445247E-03    0.3159632052E+00
    0.3300000000E+06    0.6795358306E+00    0.1336936113E-02    0.3643375478E+00    0.2853291285E-03    0.3161014807E+00
    0.3500000000E+06    0.6795664504E+00    0.1299876489E-02    0.3642877337E+00    0.2765657195E-03    0.3162304216E+00
    0.3700000000E+06    0.6795937704E+00    0.1265814949E-02    0.3642394216E+00    0.2685362586E-03    0.3163511675E+00
    0.3900000000E+06    0.6796182978E+00    0.1234365880E-02    0.3641925554E+00    0.2611443467E-03    0.3164646644E+00
    0.4100000000E+06    0.6796404408E+00    0.1205209861E-02    0.3641470748E+00    0.2543103834E-03    0.3165717057E+00
    0.4300000000E+06    0.6796605317E+00    0.1178079721E-02    0.3641029179E+00    0.2479679864E-03    0.3166729635E+00
    0.4500000000E+06    0.6796788436E+00    0.1152750028E-02    0.3640600233E+00    0.2420613006E-03    0.3167690114E+00
    0.4700000000E+06    0.6796956034E+00    0.1129029048E-02    0.3640183309E+00    0.2365429473E-03    0.3168603431E+00
    0.4900000000E+06    0.6797110009E+00    0.1106752532E-02    0.3639777832E+00    0.2313724415E-03    0.3169473861E+00
    0.1000000000E+06    0.6783067613E+00    0.2362047896E-02    0.3649520279E+00    0.5372627673E-03    0.3131647352E+00
    0.3000000000E+06    0.6794822719E+00    0.1399205771E-02    0.3644151824E+00    0.3001161114E-03    0.3158901448E+00
    0.5000000000E+06    0.6797182397E+00    0.1096110914E-02    0.3639579212E+00    0.2289065548E-03    0.3169894178E+00
    0.7000000000E+06    0.6798197566E+00    0.9331289036E-03    0.3636089274E+00    0.1914878945E-03    0.3176746447E+00
    0.9000000000E+06    0.6798763525E+00    0.8273530582E-03    0.3633283198E+00    0.1675807844E-03    0.3181702079E+00
    0.1100000000E+07    0.6799124841E+00    0.7515401492E-03    0.3630937375E+00    0.1506492495E-03    0.3185573268E+00
    0.1300000000E+07    0.6799375731E+00    0.6937373944E-03    0.3628921139E+00    0.1378641748E-03    0.3188744203E+00
    0.1500000000E+07    0.6799560233E+00    0.6477609326E-03    0.3627152378E+00    0.1277771995E-03    0.3191426464E+00
    0.1700000000E+07    0.6799701696E+00    0.6100458607E-03    0.3625576279E+00    0.1195605497E-03    0.3193748756E+00
    0.1900000000E+07    0.6799813659E+00    0.5783725567E-03    0.3624154472E+00    0.1127026037E-03    0.3195795100E+00
    0.2100000000E+07    0.6799904512E+00    0.5512767971E-03    0.3622859049E+00    0.1068680154E-03    0.3197623321E+00
    0.2300000000E+07    0.6799979738E+00    0.5277481635E-03    0.3621669080E+00    0.1018266841E-03    0.3199274885E+00
    0.2500000000E+07    0.6800043067E+00    0.5070637300E-03    0.3620568461E+00    0.9741481862E-04    0.3200780520E+00
    0.2700000000E+07    0.6800097129E+00    0.4886906880E-03    0.3619544532E+00    0.9351226099E-04    0.3202163620E+00
    0.2900000000E+07    0.6800143831E+00    0.4722264882E-03    0.3618587161E+00    0.9002861457E-04    0.3203442399E+00
    0.3100000000E+07    0.6800184587E+00    0.4573605259E-03    0.3617688110E+00    0.8689440325E-04    0.3204631313E+00
    0.3300000000E+07    0.6800220472E+00    0.4438487660E-03    0.3616840590E+00    0.8405523984E-04    0.3205742022E+00
    0.3500000000E+07    0.6800252316E+00    0.4314964376E-03    0.3616038937E+00    0.8146786400E-04    0.3206784067E+00
    0.3700000000E+07    0.6800280770E+00    0.4201459314E-03    0.3615278378E+00    0.7909738082E-04    0.3207765352E+00
    0.3900000000E+07    0.6800306350E+00    0.4096681444E-03    0.3614554854E+00    0.7691529256E-04    0.3208692496E+00
    0.4100000000E+07    0.6800329475E+00    0.3999561702E-03    0.3613864880E+00    0.7489806786E-04    0.3209571100E+00
    0.4300000000E+07    0.6800350485E+00    0.3909206161E-03    0.3613205444E+00    0.7302608327E-04    0.3210405941E+00
    0.4500000000E+07    0.6800369658E+00    0.3824860758E-03    0.3612573925E+00    0.7128282781E-04    0.3211201127E+00
    0.4700000000E+07    0.6800387229E+00    0.3745884326E-03    0.3611968028E+00    0.6965429665E-04    0.3211960217E+00
    0.4900000000E+07    0.6800403391E+00    0.3671727731E-03    0.3611385729E+00    0.6812852306E-04    0.3212686314E+00
    0.1000000000E+07    0.6798962111E+00    0.7866437805E-03    0.3632062420E+00    0.1584668616E-03    0.3183743491E+00
    0.3000000000E+07    0.6800164878E+00    0.4646103061E-03    0.3618130800E+00    0.8842152880E-04    0.3204047304E+00
    0.5000000000E+07    0.6800410996E+00    0.3636306340E-03    0.3611102862E+00    0.6740089643E-04    0.3213037853E+00
    0.7000000000E+07    0.6800518201E+00    0.3094101652E-03    0.3606340481E+00    0.5636260097E-04    0.3218850680E+00
    0.9000000000E+07    0.6800578563E+00    0.2742500810E-03    0.3602726560E+00    0.4931348540E-04    0.3223145792E+00
    0.1100000000E+08    0.6800617426E+00    0.2490636965E-03    0.3599810458E+00    0.4432290313E-04    0.3226550469E+00
    0.1300000000E+08    0.6800644613E+00    0.2298683622E-03    0.3597364329E+00    0.4055552193E-04    0.3229369639E+00
    0.1500000000E+08    0.6800664740E+00    0.2146050990E-03    0.3595256668E+00    0.3758384419E-04    0.3231774557E+00
    0.1700000000E+08    0.6800680266E+00    0.2020875768E-03    0.3593404581E+00    0.3516361546E-04    0.3233870982E+00
    0.1900000000E+08    0.6800692624E+00    0.1915774636E-03    0.3591752400E+00    0.3314390674E-04    0.3235728800E+00
    0.2100000000E+08    0.6800702703E+00    0.1825878717E-03    0.3590260916E+00    0.3142581138E-04    0.3237396589E+00
    0.2300000000E+08    0.6800711090E+00    0.1747829116E-03    0.3588901460E+00    0.2994147623E-04    0.3238909483E+00
    0.2500000000E+08    0.6800718183E+00    0.1679223240E-03    0.3587652427E+00    0.2864260955E-04    0.3240293709E+00
    0.2700000000E+08    0.6800724263E+00    0.1618290716E-03    0.3586497130E+00    0.2749378949E-04    0.3241569362E+00
