  Pressure (Pa) 22mC5-400 (mol/kg) 2mC6-400 (mol/kg) 3mC6-400 (mol/kg) 33mC5-400 (mol/kg) C7-400 (mol/kg)
    0.1000000000E+01    0.2636906725E-02    0.6297591813E-02    0.5229517753E-03    0.1281938390E-03    0.6788990715E-02
    0.3000000000E+01    0.7754921458E-02    0.1814387024E-01    0.1513213762E-02    0.3693798679E-03    0.1964775198E-01
    0.5000000000E+01    0.1267789426E-01    0.2908064059E-01    0.2435998307E-02    0.5921043556E-03    0.3163418744E-01
    0.7000000000E+01    0.1741973924E-01    0.3920191141E-01    0.3298362326E-02    0.7982754727E-03    0.4283940183E-01
    0.9000000000E+01    0.2199303313E-01    0.4858922810E-01    0.4106399449E-02    0.9895482552E-03    0.5334207274E-01
    0.1100000000E+02    0.2640917356E-01    0.5731368081E-01    0.4865399636E-02    0.1167365412E-02    0.6321050891E-01
    0.1300000000E+02    0.3067851528E-01    0.6543753409E-01    0.5579978024E-02    0.1332990443E-02    0.7250431171E-01
    0.1500000000E+02    0.3481048789E-01    0.7301555933E-01    0.6254179706E-02    0.1487534710E-02    0.8127572656E-01
    0.1700000000E+02    0.3881369787E-01    0.8009613165E-01    0.6891565547E-02    0.1631979724E-02    0.8957074971E-01
    0.1900000000E+02    0.4269601746E-01    0.8672213869E-01    0.7495282908E-02    0.1767195604E-02    0.9743004054E-01
    0.2100000000E+02    0.4646466207E-01    0.9293173810E-01    0.8068124311E-02    0.1893956464E-02    0.1048896783E+00
    0.2300000000E+02    0.5012625820E-01    0.9875899239E-01    0.8612576361E-02    0.2012953305E-02    0.1119817931E+00
    0.2500000000E+02    0.5368690302E-01    0.1042344038E+00    0.9130860775E-02    0.2124804882E-02    0.1187350957E+00
    0.2700000000E+02    0.5715221674E-01    0.1093853674E+00    0.9624968963E-02    0.2230066892E-02    0.1251753230E+00
    0.2900000000E+02    0.6052738904E-01    0.1142365561E+00    0.1009669131E-01    0.2329239805E-02    0.1313256167E+00
    0.3100000000E+02    0.6381721996E-01    0.1188102501E+00    0.1054764211E-01    0.2422775543E-02    0.1372068440E+00
    0.3300000000E+02    0.6702615631E-01    0.1231266192E+00    0.1097928082E-01    0.2511083215E-02    0.1428378732E+00
    0.3500000000E+02    0.7015832405E-01    0.1272039662E+00    0.1139293035E-01    0.2594534056E-02    0.1482358086E+00
    0.3700000000E+02    0.7321755708E-01    0.1310589372E+00    0.1178979281E-01    0.2673465692E-02    0.1534161943E+00
    0.3900000000E+02    0.7620742302E-01    0.1347067040E+00    0.1217096304E-01    0.2748185848E-02    0.1583931891E+00
    0.4100000000E+02    0.7913124628E-01    0.1381611232E+00    0.1253744048E-01    0.2818975571E-02    0.1631797189E+00
    0.4300000000E+02    0.8199212879E-01    0.1414348747E+00    0.1289013940E-01    0.2886092043E-02    0.1677876095E+00
    0.4500000000E+02    0.8479296854E-01    0.1445395833E+00    0.1322989786E-01    0.2949771052E-02    0.1722277018E+00
    0.4700000000E+02    0.8753647640E-01    0.1474859257E+00    0.1355748555E-01    0.3010229153E-02    0.1765099539E+00
    0.4900000000E+02    0.9022519120E-01    0.1502837244E+00    0.1387361073E-01    0.3067665580E-02    0.1806435294E+00
    0.1000000000E+02    0.2422007738E-01    0.5303023096E-01    0.4491726229E-02    0.1080055961E-02    0.5835165818E-01
    0.3000000000E+02    0.6218268636E-01    0.1165567829E+00    0.1032466854E-01    0.2376685809E-02    0.1342986404E+00
    0.5000000000E+02    0.9154975094E-01    0.1516297764E+00    0.1402758091E-01    0.3095308609E-02    0.1826572294E+00
    0.7000000000E+02    0.1156703964E+00    0.1726107782E+00    0.1663944711E-01    0.3527231686E-02    0.2168631616E+00
    0.9000000000E+02    0.1362903089E+00    0.1857115060E+00    0.1861031897E-01    0.3798476017E-02    0.2427423778E+00
    0.1100000000E+03    0.1544173707E+00    0.1940354873E+00    0.2016857588E-01    0.3972042795E-02    0.2632541653E+00
    0.1300000000E+03    0.1706790275E+00    0.1992934824E+00    0.2144329415E-01    0.4082693820E-02    0.2800726450E+00
    0.1500000000E+03    0.1854892096E+00    0.2024986320E+00    0.2251337816E-01    0.4151042644E-02    0.2942221448E+00
    0.1700000000E+03    0.1991338789E+00    0.2042846984E+00    0.2343003334E-01    0.4190005320E-02    0.3063679997E+00
    0.1900000000E+03    0.2118181684E+00    0.2050656094E+00    0.2422809246E-01    0.4208034678E-02    0.3169632017E+00
    0.2100000000E+03    0.2236939195E+00    0.2051212945E+00    0.2493217059E-01    0.4210860811E-02    0.3263281362E+00
    0.2300000000E+03    0.2348765582E+00    0.2046465586E+00    0.2556021777E-01    0.4202482408E-02    0.3346966323E+00
    0.2500000000E+03    0.2454558624E+00    0.2037802357E+00    0.2612567348E-01    0.4185758378E-02    0.3422439050E+00
    0.2700000000E+03    0.2555030699E+00    0.2026232725E+00    0.2663882848E-01    0.4162775009E-02    0.3491042251E+00
    0.2900000000E+03    0.2650757113E+00    0.2012503218E+00    0.2710771616E-01    0.4135081530E-02    0.3553824927E+00
    0.3100000000E+03    0.2742209805E+00    0.1997173915E+00    0.2753871398E-01    0.4103845642E-02    0.3611620489E+00
    0.3300000000E+03    0.2829781387E+00    0.1980670180E+00    0.2793695996E-01    0.4069958798E-02    0.3665100882E+00
    0.3500000000E+03    0.2913802632E+00    0.1963318418E+00    0.2830664783E-01    0.4034109057E-02    0.3714814968E+00
    0.3700000000E+03    0.2994555429E+00    0.1945371279E+00    0.2865124050E-01    0.3996832479E-02    0.3761216290E+00
    0.3900000000E+03    0.3072282520E+00    0.1927025723E+00    0.2897362724E-01    0.3958550026E-02    0.3804683532E+00
    0.4100000000E+03    0.3147194935E+00    0.1908436177E+00    0.2927624137E-01    0.3919594461E-02    0.3845535843E+00
    0.4300000000E+03    0.3219477740E+00    0.1889724245E+00    0.2956114959E-01    0.3880230247E-02    0.3884044475E+00
    0.4500000000E+03    0.3289294529E+00    0.1870985973E+00    0.2983012079E-01    0.3840668439E-02    0.3920441750E+00
    0.4700000000E+03    0.3356790973E+00    0.1852297334E+00    0.3008467960E-01    0.3801077980E-02    0.3954928041E+00
    0.4900000000E+03    0.3422097662E+00    0.1833718429E+00    0.3032614860E-01    0.3761594340E-02    0.3987677284E+00
    0.1000000000E+03    0.1456198268E+00    0.1903418589E+00    0.1943139611E-01    0.3894854256E-02    0.2535443574E+00
    0.3000000000E+03    0.2696991508E+00    0.2005009279E+00    0.2732760506E-01    0.4119845176E-02    0.3583300828E+00
    0.5000000000E+03    0.3453967105E+00    0.1824485379E+00    0.3044234088E-01    0.3741927436E-02    0.4003448734E+00
    0.7000000000E+03    0.3999967111E+00    0.1652734467E+00    0.3229500091E-01    0.3371196460E-02    0.4256145574E+00
    0.9000000000E+03    0.4414649316E+00    0.1509790032E+00    0.3357914138E-01    0.3056379261E-02    0.4432828369E+00
    0.1100000000E+04    0.4738401291E+00    0.1392728630E+00    0.3454465810E-01    0.2794904655E-02    0.4566643762E+00
    0.1300000000E+04    0.4996195185E+00    0.1296329618E+00    0.3530846669E-01    0.2577477557E-02    0.4673178225E+00
    0.1500000000E+04    0.5204818254E+00    0.1216058650E+00    0.3593418057E-01    0.2395267118E-02    0.4760949384E+00
    0.1700000000E+04    0.5376044002E+00    0.1148389016E+00    0.3646002819E-01    0.2241077513E-02    0.4835095639E+00
    0.1900000000E+04    0.5518351388E+00    0.1090650067E+00    0.3691066610E-01    0.2109283506E-02    0.4898942607E+00
    0.2100000000E+04    0.5637968657E+00    0.1040824922E+00    0.3730286302E-01    0.1995533709E-02    0.4954759121E+00
    0.2300000000E+04    0.5739546866E+00    0.9973811901E-01    0.3764850395E-01    0.1896458749E-02    0.5004157879E+00
    0.2500000000E+04    0.5826610336E+00    0.9591434306E-01    0.3795629601E-01    0.1809434201E-02    0.5048323534E+00
    0.2700000000E+04    0.5901865311E+00    0.9252001815E-01    0.3823279376E-01    0.1732399332E-02    0.5088150103E+00
    0.2900000000E+04    0.5967415453E+00    0.8948367544E-01    0.3848304462E-01    0.1663721498E-02    0.5124327661E+00
    0.3100000000E+04    0.6024914675E+00    0.8674865761E-01    0.3871101100E-01    0.1602095309E-02    0.5157399150E+00
    0.3300000000E+04    0.6075677088E+00    0.8426957312E-01    0.3891985547E-01    0.1546467540E-02    0.5187798838E+00
    0.3500000000E+04    0.6120757114E+00    0.8200968994E-01    0.3911213881E-01    0.1495980946E-02    0.5215879073E+00
    0.3700000000E+04    0.6161008581E+00    0.7993900133E-01    0.3928996082E-01    0.1449931922E-02    0.5241929339E+00
    0.3900000000E+04    0.6197128808E+00    0.7803277593E-01    0.3945506273E-01    0.1407738356E-02    0.5266190136E+00
    0.4100000000E+04    0.6229691850E+00    0.7627046012E-01    0.3960890280E-01    0.1368915016E-02    0.5288863245E+00
    0.4300000000E+04    0.6259173810E+00    0.7463483872E-01    0.3975271332E-01    0.1333054544E-02    0.5310119477E+00
    0.4500000000E+04    0.6285972316E+00    0.7311138736E-01    0.3988754400E-01    0.1299812667E-02    0.5330104586E+00
    0.4700000000E+04    0.6310421624E+00    0.7168776808E-01    0.4001429564E-01    0.1268896592E-02    0.5348943851E+00
    0.4900000000E+04    0.6332804440E+00    0.7035343307E-01    0.4013374638E-01    0.1240055830E-02    0.5366745665E+00
    0.1000000000E+04    0.4586085449E+00    0.1448354941E+00    0.3409264761E-01    0.2919533833E-02    0.4503885558E+00
    0.3000000000E+04    0.5997082392E+00    0.8808156755E-01    0.3859959962E-01    0.1632097948E-02    0.5141222334E+00
    0.5000000000E+04    0.6343297501E+00    0.6971686189E-01    0.4019094874E-01    0.1226345151E-02    0.5375287497E+00
    0.7000000000E+04    0.6487574275E+00    0.6001960473E-01    0.4107738693E-01    0.1021845037E-02    0.5509243577E+00
    0.9000000000E+04    0.6564602457E+00    0.5374492713E-01    0.4166115764E-01    0.8945123635E-03    0.5599443215E+00
    0.1100000000E+05    0.6611949880E+00    0.4923066408E-01    0.4208197895E-01    0.8056177431E-03    0.5665739549E+00
    0.1300000000E+05    0.6643804116E+00    0.4576700443E-01    0.4240318937E-01    0.7390154423E-03    0.5717237238E+00
    0.1500000000E+05    0.6666619445E+00    0.4299242180E-01    0.4265827554E-01    0.6866805280E-03    0.5758798496E+00
    0.1700000000E+05    0.6683727352E+00    0.4070017931E-01    0.4286683881E-01    0.6441263837E-03    0.5793295260E+00
    0.1900000000E+05    0.6697012091E+00    0.3876199033E-01    0.4304122024E-01    0.6086246494E-03    0.5822550753E+00
    0.2100000000E+05    0.6707615862E+00    0.3709326772E-01    0.4318962877E-01    0.5784083589E-03    0.5847787114E+00
    0.2300000000E+05    0.6716269723E+00    0.3563556280E-01    0.4331776471E-01    0.5522758550E-03    0.5869859158E+00
    0.2500000000E+05    0.6723462523E+00    0.3434695508E-01    0.4342972588E-01    0.5293774185E-03    0.5889385611E+00
    0.2700000000E+05    0.6729533129E+00    0.3319645207E-01    0.4352854327E-01    0.5090927503E-03    0.5906827104E+00
    0.2900000000E+05    0.6734723634E+00    0.3216055585E-01    0.4361651297E-01    0.4909568777E-03    0.5922534764E+00
    0.3100000000E+05    0.6739211473E+00    0.3122106791E-01    0.4369541007E-01    0.4746133777E-03    0.5936781671E+00
    0.3300000000E+05    0.6743129587E+00    0.3036363532E-01    0.4376663111E-01    0.4597837584E-03    0.5949783907E+00
    0.3500000000E+05    0.6746579498E+00    0.2957675857E-01    0.4383129166E-01    0.4462467871E-03    0.5961715044E+00
    0.3700000000E+05    0.6749640051E+00    0.2885109674E-01    0.4389029488E-01    0.4338241577E-03    0.5972716364E+00
    0.3900000000E+05    0.6752373386E+00    0.2817896972E-01    0.4394438066E-01    0.4223703180E-03    0.5982904215E+00
    0.4100000000E+05    0.6754829133E+00    0.2755399457E-01    0.4399416160E-01    0.4117651011E-03    0.5992375417E+00
    0.4300000000E+05    0.6757047396E+00    0.2697081508E-01    0.4404014971E-01    0.4019082896E-03    0.6001211299E+00
    0.4500000000E+05    0.6759060932E+00    0.2642489747E-01    0.4408277668E-01    0.3927155400E-03    0.6009480757E+00
    0.4700000000E+05    0.6760896756E+00    0.2591237390E-01    0.4412240923E-01    0.3841152827E-03    0.6017242602E+00
    0.4900000000E+05    0.6762577340E+00    0.2542992105E-01    0.4415936119E-01    0.3760463321E-03    0.6024547388E+00
    0.1000000000E+05    0.6590826100E+00    0.5132401562E-01    0.4188697675E-01    0.8465489455E-03    0.5634868375E+00
    0.3000000000E+05    0.6737046215E+00    0.3167973465E-01    0.4365700075E-01    0.4825800334E-03    0.5929826166E+00
    0.5000000000E+05    0.6763365428E+00    0.2519905763E-01    0.4417691789E-01    0.3721943483E-03    0.6028042285E+00
    0.7000000000E+05    0.6774277184E+00    0.2163058311E-01    0.4443675739E-01    0.3134136073E-03    0.6082010952E+00
    0.9000000000E+05    0.6780240280E+00    0.1928061586E-01    0.4459389739E-01    0.2754963283E-03    0.6117498674E+00
    0.1100000000E+06    0.6783998356E+00    0.1757926525E-01    0.4469905184E-01    0.2484502290E-03    0.6143171583E+00
    0.1300000000E+06    0.6786583895E+00    0.1627235987E-01    0.4477399140E-01    0.2279143365E-03    0.6162886891E+00
    0.1500000000E+06    0.6788471924E+00    0.1522678579E-01    0.4482973226E-01    0.2116402668E-03    0.6178660679E+00
    0.1700000000E+06    0.6789911412E+00    0.1436506800E-01    0.4487248663E-01    0.1983353208E-03    0.6191664359E+00
    0.1900000000E+06    0.6791045430E+00    0.1363859343E-01    0.4490603916E-01    0.1871964409E-03    0.6202631927E+00
    0.2100000000E+06    0.6791962036E+00    0.1301508655E-01    0.4493283355E-01    0.1776949380E-03    0.6212050146E+00
    0.2300000000E+06    0.6792718397E+00    0.1247215329E-01    0.4495452089E-01    0.1694666536E-03    0.6220256436E+00
    0.2500000000E+06    0.6793353245E+00    0.1199369595E-01    0.4497225816E-01    0.1622514932E-03    0.6227493164E+00
    0.2700000000E+06    0.6793893754E+00    0.1156780159E-01    0.4498688076E-01    0.1558580764E-03    0.6233939579E+00
    0.2900000000E+06    0.6794359552E+00    0.1118543715E-01    0.4499900715E-01    0.1501420368E-03    0.6239731531E+00
    0.3100000000E+06    0.6794765170E+00    0.1083961031E-01    0.4500910506E-01    0.1449921491E-03    0.6244974138E+00
    0.3300000000E+06    0.6795121600E+00    0.1052481152E-01    0.4501753475E-01    0.1403211517E-03    0.6249750199E+00
    0.3500000000E+06    0.6795437305E+00    0.1023663195E-01    0.4502457811E-01    0.1360594962E-03    0.6254125956E+00
    0.3700000000E+06    0.6795718912E+00    0.9971495520E-02    0.4503045885E-01    0.1321509794E-03    0.6258155128E+00
    0.3900000000E+06    0.6795971683E+00    0.9726466584E-02    0.4503535669E-01    0.1285496236E-03    0.6261881810E+00
    0.4100000000E+06    0.6796199847E+00    0.9499109377E-02    0.4503941757E-01    0.1252174041E-03    0.6265342582E+00
    0.4300000000E+06    0.6796406845E+00    0.9287383438E-02    0.4504276121E-01    0.1221225650E-03    0.6268568088E+00
    0.4500000000E+06    0.6796595504E+00    0.9089564623E-02    0.4504548669E-01    0.1192383507E-03    0.6271584221E+00
    0.4700000000E+06    0.6796768169E+00    0.8904184609E-02    0.4504767664E-01    0.1165420383E-03    0.6274413032E+00
    0.4900000000E+06    0.6796926799E+00    0.8729983992E-02    0.4504940049E-01    0.1140141884E-03    0.6277073435E+00
    0.1000000000E+06    0.6782310701E+00    0.1836883165E-01    0.4465124565E-01    0.2609586375E-03    0.6131258775E+00
    0.3000000000E+06    0.6794569127E+00    0.1100833048E-01    0.4500428503E-01    0.1475022550E-03    0.6242415883E+00
    0.5000000000E+06    0.6797001378E+00    0.8646730297E-02    0.4505010634E-01    0.1128081134E-03    0.6278345675E+00
    0.7000000000E+06    0.6798047746E+00    0.7368737847E-02    0.4505014641E-01    0.9446706781E-04    0.6297951094E+00
    0.9000000000E+06    0.6798632083E+00    0.6536515663E-02    0.4503707188E-01    0.8271156199E-04    0.6310816570E+00
    0.1100000000E+07    0.6799005939E+00    0.5938776344E-02    0.4501954479E-01    0.7436963456E-04    0.6320122711E+00
    0.1300000000E+07    0.6799266136E+00    0.5482378842E-02    0.4500061168E-01    0.6806218460E-04    0.6327274964E+00
    0.1500000000E+07    0.6799457928E+00    0.5118980629E-02    0.4498150643E-01    0.6308105794E-04    0.6333004652E+00
    0.1700000000E+07    0.6799605321E+00    0.4820647130E-02    0.4496276212E-01    0.5902063671E-04    0.6337735460E+00
    0.1900000000E+07    0.6799722239E+00    0.4569953778E-02    0.4494460861E-01    0.5562979806E-04    0.6341732340E+00
    0.2100000000E+07    0.6799817325E+00    0.4355389438E-02    0.4492713486E-01    0.5274372141E-04    0.6345170764E+00
    0.2300000000E+07    0.6799896224E+00    0.4169001227E-02    0.4491036162E-01    0.5024919054E-04    0.6348172257E+00
    0.2500000000E+07    0.6799962785E+00    0.4005093491E-02    0.4489427627E-01    0.4806554257E-04    0.6350824061E+00
    0.2700000000E+07    0.6800019722E+00    0.3859464948E-02    0.4487885020E-01    0.4613355793E-04    0.6353190677E+00
    0.2900000000E+07    0.6800069005E+00    0.3728939172E-02    0.4486404792E-01    0.4440865591E-04    0.6355320978E+00
    0.3100000000E+07    0.6800112097E+00    0.3611063747E-02    0.4484983173E-01    0.4285655393E-04    0.6357252784E+00
    0.3300000000E+07    0.6800150112E+00    0.3503910826E-02    0.4483616425E-01    0.4145040191E-04    0.6359015887E+00
    0.3500000000E+07    0.6800183909E+00    0.3405941019E-02    0.4482300964E-01    0.4016883381E-04    0.6360634125E+00
    0.3700000000E+07    0.6800214161E+00    0.3315908120E-02    0.4481033422E-01    0.3899460874E-04    0.6362126836E+00
    0.3900000000E+07    0.6800241408E+00    0.3232790945E-02    0.4479810671E-01    0.3791364183E-04    0.6363509897E+00
    0.4100000000E+07    0.6800266082E+00    0.3155743596E-02    0.4478629819E-01    0.3691429936E-04    0.6364796485E+00
    0.4300000000E+07    0.6800288537E+00    0.3084058542E-02    0.4477488206E-01    0.3598687706E-04    0.6365997644E+00
    0.4500000000E+07    0.6800309064E+00    0.3017138787E-02    0.4476383389E-01    0.3512320790E-04    0.6367122708E+00
    0.4700000000E+07    0.6800327906E+00    0.2954476595E-02    0.4475313125E-01    0.3431636300E-04    0.6368179631E+00
    0.4900000000E+07    0.6800345265E+00    0.2895637011E-02    0.4474275356E-01    0.3356042068E-04    0.6369175238E+00
    0.1000000000E+07    0.6798837457E+00    0.6215672945E-02    0.4502860970E-01    0.7822288990E-04    0.6315803918E+00
    0.3000000000E+07    0.6800091248E+00    0.3668551113E-02    0.4485686893E-01    0.4361283090E-04    0.6356309671E+00
    0.5000000000E+07    0.6800353443E+00    0.2867531443E-02    0.4473768060E-01    0.3319991764E-04    0.6369651923E+00
    0.7000000000E+07    0.6800469546E+00    0.2437304838E-02    0.4464942829E-01    0.2773125076E-04    0.6377051578E+00
    0.9000000000E+07    0.6800535832E+00    0.2158359160E-02    0.4457933325E-01    0.2423981795E-04    0.6381974979E+00
    0.1100000000E+08    0.6800579036E+00    0.1958595676E-02    0.4452112561E-01    0.2176885015E-04    0.6385579549E+00
    0.1300000000E+08    0.6800609597E+00    0.1806397608E-02    0.4447130859E-01    0.1990422233E-04    0.6388379834E+00
    0.1500000000E+08    0.6800632455E+00    0.1685415716E-02    0.4442773614E-01    0.1843396915E-04    0.6390645115E+00
    0.1700000000E+08    0.6800650256E+00    0.1586229174E-02    0.4438899612E-01    0.1723698089E-04    0.6392532241E+00
    0.1900000000E+08    0.6800664552E+00    0.1502974742E-02    0.4435410932E-01    0.1623842598E-04    0.6394139797E+00
    0.2100000000E+08    0.6800676311E+00    0.1431786114E-02    0.4432236846E-01    0.1538927053E-04    0.6395533389E+00
    0.2300000000E+08    0.6800686175E+00    0.1369996239E-02    0.4429324573E-01    0.1465587971E-04    0.6396758661E+00
    0.2500000000E+08    0.6800694580E+00    0.1315697568E-02    0.4426633668E-01    0.1401431848E-04    0.6397848522E+00
    0.2700000000E+08    0.6800701840E+00    0.1267484658E-02    0.4424132438E-01    0.1344703306E-04    0.6398827404E+00
