  Pressure (Pa) 22mC5-400 (mol/kg) 2mC6-400 (mol/kg) 3mC6-400 (mol/kg) 33mC5-400 (mol/kg) C7-400 (mol/kg)
    0.1000000000E+01    0.2634731640E-02    0.7105057133E-02    0.5250183038E-03    0.1928308559E-03    0.3407839669E-02
    0.3000000000E+01    0.7736389779E-02    0.2058179483E-01    0.1530623680E-02    0.5585955337E-03    0.9936306404E-02
    0.5000000000E+01    0.1262908812E-01    0.3315667006E-01    0.2481376237E-02    0.8998914175E-03    0.1611015834E-01
    0.7000000000E+01    0.1732891056E-01    0.4491138639E-01    0.3382003015E-02    0.1218934513E-02    0.2195991671E-01
    0.9000000000E+01    0.2185027468E-01    0.5591822355E-01    0.4236693804E-02    0.1517685226E-02    0.2751263618E-01
    0.1100000000E+02    0.2620614418E-01    0.6624134877E-01    0.5049175819E-02    0.1797883928E-02    0.3279238647E-01
    0.1300000000E+02    0.3040820935E-01    0.7593791570E-01    0.5822776222E-02    0.2061080765E-02    0.3782065563E-01
    0.1500000000E+02    0.3446704134E-01    0.8505899022E-01    0.6560474739E-02    0.2308660774E-02    0.4261668943E-01
    0.1700000000E+02    0.3839222438E-01    0.9365033394E-01    0.7264948165E-02    0.2541865128E-02    0.4719777846E-01
    0.1900000000E+02    0.4219246961E-01    0.1017530701E+00    0.7938608177E-02    0.2761809202E-02    0.5157950208E-01
    0.2100000000E+02    0.4587571345E-01    0.1094042524E+00    0.8583633603E-02    0.2969497995E-02    0.5577593655E-01
    0.2300000000E+02    0.4944920294E-01    0.1166373517E+00    0.9201998075E-02    0.3165839343E-02    0.5979983354E-01
    0.2500000000E+02    0.5291956989E-01    0.1234826758E+00    0.9795493815E-02    0.3351655292E-02    0.6366277352E-01
    0.2700000000E+02    0.5629289570E-01    0.1299677312E+00    0.1036575219E-01    0.3527691914E-02    0.6737529840E-01
    0.2900000000E+02    0.5957476808E-01    0.1361175365E+00    0.1091426148E-01    0.3694627807E-02    0.7094702637E-01
    0.3100000000E+02    0.6277033085E-01    0.1419548953E+00    0.1144238243E-01    0.3853081499E-02    0.7438675181E-01
    0.3300000000E+02    0.6588432780E-01    0.1475006336E+00    0.1195136167E-01    0.4003617881E-02    0.7770253246E-01
    0.3500000000E+02    0.6892114142E-01    0.1527738079E+00    0.1244234360E-01    0.4146753857E-02    0.8090176572E-01
    0.3700000000E+02    0.7188482718E-01    0.1577918872E+00    0.1291638071E-01    0.4282963277E-02    0.8399125553E-01
    0.3900000000E+02    0.7477914399E-01    0.1625709138E+00    0.1337444277E-01    0.4412681297E-02    0.8697727138E-01
    0.4100000000E+02    0.7760758121E-01    0.1671256443E+00    0.1381742483E-01    0.4536308205E-02    0.8986560027E-01
    0.4300000000E+02    0.8037338287E-01    0.1714696748E+00    0.1424615438E-01    0.4654212816E-02    0.9266159275E-01
    0.4500000000E+02    0.8307956915E-01    0.1756155516E+00    0.1466139767E-01    0.4766735471E-02    0.9537020374E-01
    0.4700000000E+02    0.8572895578E-01    0.1795748697E+00    0.1506386533E-01    0.4874190712E-02    0.9799602889E-01
    0.4900000000E+02    0.8832417129E-01    0.1833583601E+00    0.1545421739E-01    0.4976869652E-02    0.1005433369E+00
    0.1000000000E+02    0.2404813769E-01    0.6116152529E-01    0.4647994244E-02    0.1660002551E-02    0.3018523322E-01
    0.3000000000E+02    0.6118303279E-01    0.1390739263E+00    0.1118079006E-01    0.3774878435E-02    0.7268286947E-01
    0.5000000000E+02    0.8960223900E-01    0.1851873065E+00    0.1564504359E-01    0.5026503102E-02    0.1017887986E+00
    0.7000000000E+02    0.1128387993E+00    0.2145998469E+00    0.1895393626E-01    0.5824427894E-02    0.1234067359E+00
    0.9000000000E+02    0.1326741144E+00    0.2342721763E+00    0.2154414343E-01    0.6357506623E-02    0.1403619466E+00
    0.1100000000E+03    0.1501139894E+00    0.2478331654E+00    0.2365244392E-01    0.6724228426E-02    0.1541874834E+00
    0.1300000000E+03    0.1657747840E+00    0.2573480437E+00    0.2541920695E-01    0.6980668721E-02    0.1657928117E+00
    0.1500000000E+03    0.1800584478E+00    0.2640721312E+00    0.2693339770E-01    0.7160930867E-02    0.1757547297E+00
    0.1700000000E+03    0.1932402603E+00    0.2688086110E+00    0.2825441126E-01    0.7286849721E-02    0.1844585690E+00
    0.1900000000E+03    0.2055163701E+00    0.2720929272E+00    0.2942358741E-01    0.7372993340E-02    0.1921726943E+00
    0.2100000000E+03    0.2170312016E+00    0.2742942374E+00    0.3047069775E-01    0.7429415103E-02    0.1990904916E+00
    0.2300000000E+03    0.2278940757E+00    0.2756742742E+00    0.3141780186E-01    0.7463250716E-02    0.2053553376E+00
    0.2500000000E+03    0.2381897248E+00    0.2764230381E+00    0.3228164376E-01    0.7479686744E-02    0.2110761242E+00
    0.2700000000E+03    0.2479851875E+00    0.2766812622E+00    0.3307519814E-01    0.7482570333E-02    0.2163372783E+00
    0.2900000000E+03    0.2573344686E+00    0.2765550096E+00    0.3380870068E-01    0.7474805483E-02    0.2212054406E+00
    0.3100000000E+03    0.2662817747E+00    0.2761254244E+00    0.3449035375E-01    0.7458617840E-02    0.2257340436E+00
    0.3300000000E+03    0.2748638131E+00    0.2754554050E+00    0.3512682188E-01    0.7435735954E-02    0.2299665245E+00
    0.3500000000E+03    0.2831114583E+00    0.2745942688E+00    0.3572358692E-01    0.7407518034E-02    0.2339386312E+00
    0.3700000000E+03    0.2910509832E+00    0.2735810760E+00    0.3628520769E-01    0.7375042292E-02    0.2376801076E+00
    0.3900000000E+03    0.2987049828E+00    0.2724470373E+00    0.3681551299E-01    0.7339172439E-02    0.2412159471E+00
    0.4100000000E+03    0.3060930773E+00    0.2712172865E+00    0.3731774726E-01    0.7300605892E-02    0.2445673392E+00
    0.4300000000E+03    0.3132324558E+00    0.2699122016E+00    0.3779468215E-01    0.7259909759E-02    0.2477523941E+00
    0.4500000000E+03    0.3201382993E+00    0.2685484035E+00    0.3824870286E-01    0.7217548039E-02    0.2507867045E+00
    0.4700000000E+03    0.3268241160E+00    0.2671395187E+00    0.3868187600E-01    0.7173902411E-02    0.2536837866E+00
    0.4900000000E+03    0.3333020079E+00    0.2656967680E+00    0.3909600320E-01    0.7129288307E-02    0.2564554289E+00
    0.1000000000E+03    0.1416484856E+00    0.2416624796E+00    0.2264818872E-01    0.6557478381E-02    0.1475989229E+00
    0.3000000000E+03    0.2618559206E+00    0.2763738373E+00    0.3415556054E-01    0.7467646524E-02    0.2235092686E+00
    0.5000000000E+03    0.3364664331E+00    0.2649656569E+00    0.3929642589E-01    0.7106701676E-02    0.2577974917E+00
    0.7000000000E+03    0.3910217661E+00    0.2501196726E+00    0.4260318840E-01    0.6648325826E-02    0.2800070053E+00
    0.9000000000E+03    0.4329076281E+00    0.2365076495E+00    0.4503710745E-01    0.6225797440E-02    0.2964386009E+00
    0.1100000000E+04    0.4658930804E+00    0.2247301942E+00    0.4695924936E-01    0.5857927948E-02    0.3094687702E+00
    0.1300000000E+04    0.4923397477E+00    0.2146437198E+00    0.4854441254E-01    0.5541498345E-02    0.3202518871E+00
    0.1500000000E+04    0.5138589306E+00    0.2059772366E+00    0.4989065258E-01    0.5269009433E-02    0.3294373530E+00
    0.1700000000E+04    0.5315966030E+00    0.1984731527E+00    0.5105857003E-01    0.5032990939E-02    0.3374274956E+00
    0.1900000000E+04    0.5463883100E+00    0.1919164962E+00    0.5208827981E-01    0.4827027426E-02    0.3444892119E+00
    0.2100000000E+04    0.5588543335E+00    0.1861350483E+00    0.5300773320E-01    0.4645868613E-02    0.3508088264E+00
    0.2300000000E+04    0.5694620536E+00    0.1809925399E+00    0.5383719582E-01    0.4485289299E-02    0.3565216645E+00
    0.2500000000E+04    0.5785683153E+00    0.1763812348E+00    0.5459183463E-01    0.4341902668E-02    0.3617291649E+00
    0.2700000000E+04    0.5864488840E+00    0.1722155762E+00    0.5528329878E-01    0.4212988488E-02    0.3665093516E+00
    0.2900000000E+04    0.5933192781E+00    0.1684271481E+00    0.5592073070E-01    0.4096351092E-02    0.3709235420E+00
    0.3100000000E+04    0.5993497111E+00    0.1649607991E+00    0.5651143761E-01    0.3990206856E-02    0.3750208063E+00
    0.3300000000E+04    0.6046759467E+00    0.1617716928E+00    0.5706135194E-01    0.3893096618E-02    0.3788410303E+00
    0.3500000000E+04    0.6094072754E+00    0.1588230682E+00    0.5757535567E-01    0.3803817943E-02    0.3824170738E+00
    0.3700000000E+04    0.6136324420E+00    0.1560845340E+00    0.5805751425E-01    0.3721372746E-02    0.3857763298E+00
    0.3900000000E+04    0.6174240951E+00    0.1535307638E+00    0.5851124876E-01    0.3644926681E-02    0.3889418731E+00
    0.4100000000E+04    0.6208421612E+00    0.1511404900E+00    0.5893946496E-01    0.3573777505E-02    0.3919333217E+00
    0.4300000000E+04    0.6239364268E+00    0.1488957241E+00    0.5934465155E-01    0.3507330284E-02    0.3947674934E+00
    0.4500000000E+04    0.6267485325E+00    0.1467811467E+00    0.5972895606E-01    0.3445077852E-02    0.3974589136E+00
    0.4700000000E+04    0.6293135258E+00    0.1447836269E+00    0.6009424426E-01    0.3386585299E-02    0.4000202128E+00
    0.4900000000E+04    0.6316610804E+00    0.1428918412E+00    0.6044214718E-01    0.3331477585E-02    0.4024624414E+00
    0.1000000000E+04    0.4503428963E+00    0.2303923871E+00    0.4604869662E-01    0.6035035961E-02    0.3032900905E+00
    0.3000000000E+04    0.5964303023E+00    0.1666567285E+00    0.5622152612E-01    0.4042065252E-02    0.3730091106E+00
    0.5000000000E+04    0.6327613633E+00    0.1419824780E+00    0.6061003406E-01    0.3305089721E-02    0.4036419886E+00
    0.7000000000E+04    0.6478640155E+00    0.1275292616E+00    0.6332700775E-01    0.2895020931E-02    0.4228285398E+00
    0.9000000000E+04    0.6558941616E+00    0.1174986390E+00    0.6525054861E-01    0.2621121535E-02    0.4365362221E+00
    0.1100000000E+05    0.6608109681E+00    0.1099056999E+00    0.6671561012E-01    0.2419583737E-02    0.4470571751E+00
    0.1300000000E+05    0.6641076552E+00    0.1038486347E+00    0.6788468540E-01    0.2262267900E-02    0.4555094317E+00
    0.1500000000E+05    0.6664619619E+00    0.9884389125E-01    0.6884837583E-01    0.2134504477E-02    0.4625192467E+00
    0.1700000000E+05    0.6682228452E+00    0.9460273317E-01    0.6966208342E-01    0.2027748540E-02    0.4684711185E+00
    0.1900000000E+05    0.6695871949E+00    0.9093927357E-01    0.7036200456E-01    0.1936615467E-02    0.4736171689E+00
    0.2100000000E+05    0.6706740922E+00    0.8772699932E-01    0.7097300015E-01    0.1857507592E-02    0.4781311385E+00
    0.2300000000E+05    0.6715595946E+00    0.8487604579E-01    0.7151282781E-01    0.1787910015E-02    0.4821375078E+00
    0.2500000000E+05    0.6722944627E+00    0.8232037725E-01    0.7199457856E-01    0.1726000356E-02    0.4857283074E+00
    0.2700000000E+05    0.6729138218E+00    0.8001010967E-01    0.7242815776E-01    0.1670418810E-02    0.4889733602E+00
    0.2900000000E+05    0.6734427246E+00    0.7790668615E-01    0.7282122583E-01    0.1620125757E-02    0.4919268020E+00
    0.3100000000E+05    0.6738995057E+00    0.7597972236E-01    0.7317981834E-01    0.1574309898E-02    0.4946313893E+00
    0.3300000000E+05    0.6742978827E+00    0.7420487416E-01    0.7350876756E-01    0.1532326903E-02    0.4971214331E+00
    0.3500000000E+05    0.6746483181E+00    0.7256235484E-01    0.7381199681E-01    0.1493657223E-02    0.4994248524E+00
    0.3700000000E+05    0.6749589273E+00    0.7103587863E-01    0.7409273086E-01    0.1457876327E-02    0.5015646438E+00
    0.3900000000E+05    0.6752360994E+00    0.6961189181E-01    0.7435364934E-01    0.1424633246E-02    0.5035599555E+00
    0.4100000000E+05    0.6754849318E+00    0.6827900259E-01    0.7459700069E-01    0.1393634798E-02    0.5054268862E+00
    0.4300000000E+05    0.6757095398E+00    0.6702755128E-01    0.7482468809E-01    0.1364633780E-02    0.5071790888E+00
    0.4500000000E+05    0.6759132815E+00    0.6584928148E-01    0.7503833530E-01    0.1337420015E-02    0.5088282328E+00
    0.4700000000E+05    0.6760989237E+00    0.6473708517E-01    0.7523933759E-01    0.1311813444E-02    0.5103843641E+00
    0.4900000000E+05    0.6762687667E+00    0.6368480266E-01    0.7542890183E-01    0.1287658745E-02    0.5118561870E+00
    0.1000000000E+05    0.6586195595E+00    0.1134678738E+00    0.6602786995E-01    0.2513522600E-02    0.4421090205E+00
    0.3000000000E+05    0.6736791836E+00    0.7692278998E-01    0.7300450525E-01    0.1596701794E-02    0.4933078876E+00
    0.5000000000E+05    0.6763483781E+00    0.6317942376E-01    0.7551972824E-01    0.1276083011E-02    0.5125628922E+00
    0.7000000000E+05    0.6774482186E+00    0.5521377840E-01    0.7693130100E-01    0.1095777360E-02    0.5236879072E+00
    0.9000000000E+05    0.6780470449E+00    0.4980642691E-01    0.7786528129E-01    0.9757046904E-03    0.5312265206E+00
    0.1100000000E+06    0.6784234520E+00    0.4580899558E-01    0.7854087955E-01    0.8881799441E-03    0.5367942305E+00
    0.1300000000E+06    0.6786818937E+00    0.4269019570E-01    0.7905795719E-01    0.8206475788E-03    0.5411362046E+00
    0.1500000000E+06    0.6788703012E+00    0.4016439396E-01    0.7946949999E-01    0.7664554356E-03    0.5446521197E+00
    0.1700000000E+06    0.6790137454E+00    0.3806197016E-01    0.7980661234E-01    0.7216985331E-03    0.5475788844E+00
    0.1900000000E+06    0.6791266096E+00    0.3627476323E-01    0.8008892490E-01    0.6839104089E-03    0.5500673494E+00
    0.2100000000E+06    0.6792177345E+00    0.3472999786E-01    0.8032952261E-01    0.6514449283E-03    0.5522188972E+00
    0.2300000000E+06    0.6792928529E+00    0.3337660608E-01    0.8053750840E-01    0.6231550870E-03    0.5541046045E+00
    0.2500000000E+06    0.6793558449E+00    0.3217751924E-01    0.8071943682E-01    0.5982134947E-03    0.5557760255E+00
    0.2700000000E+06    0.6794094300E+00    0.3110507055E-01    0.8088016320E-01    0.5760060642E-03    0.5572716151E+00
    0.2900000000E+06    0.6794555711E+00    0.3013812287E-01    0.8102337059E-01    0.5560660148E-03    0.5586207382E+00
    0.3100000000E+06    0.6794957206E+00    0.2926020397E-01    0.8115190985E-01    0.5380312668E-03    0.5598462699E+00
    0.3300000000E+06    0.6795309757E+00    0.2845825565E-01    0.8126802642E-01    0.5216160095E-03    0.5609663382E+00
    0.3500000000E+06    0.6795621813E+00    0.2772177101E-01    0.8137351589E-01    0.5065911821E-03    0.5619955257E+00
    0.3700000000E+06    0.6795899983E+00    0.2704218473E-01    0.8146983338E-01    0.4927707397E-03    0.5629457177E+00
    0.3900000000E+06    0.6796149510E+00    0.2641243297E-01    0.8155817205E-01    0.4800017802E-03    0.5638267144E+00
    0.4100000000E+06    0.6796374611E+00    0.2582662976E-01    0.8163952064E-01    0.4681573093E-03    0.5646466811E+00
    0.4300000000E+06    0.6796578710E+00    0.2527982489E-01    0.8171470625E-01    0.4571308491E-03    0.5654124842E+00
    0.4500000000E+06    0.6796764622E+00    0.2476782018E-01    0.8178442669E-01    0.4468323591E-03    0.5661299466E+00
    0.4700000000E+06    0.6796934679E+00    0.2428702814E-01    0.8184927526E-01    0.4371851068E-03    0.5668040441E+00
    0.4900000000E+06    0.6797090831E+00    0.2383436181E-01    0.8190975996E-01    0.4281232390E-03    0.5674390583E+00
    0.1000000000E+06    0.6782545215E+00    0.4767287055E-01    0.7822756635E-01    0.9288566264E-03    0.5341986309E+00
    0.3000000000E+06    0.6794763193E+00    0.2968891937E-01    0.8108932130E-01    0.5468298659E-03    0.5592477249E+00
    0.5000000000E+06    0.6797164215E+00    0.2361772627E-01    0.8193850507E-01    0.4237937417E-03    0.5677430873E+00
    0.7000000000E+06    0.6798191522E+00    0.2026785685E-01    0.8236447444E-01    0.3574743266E-03    0.5724566730E+00
    0.9000000000E+06    0.6798762766E+00    0.1806150772E-01    0.8262251172E-01    0.3144841120E-03    0.5755774324E+00
    0.1100000000E+07    0.6799126911E+00    0.1646447698E-01    0.8279529039E-01    0.2837419191E-03    0.5778472408E+00
    0.1300000000E+07    0.6799379528E+00    0.1523805697E-01    0.8291841567E-01    0.2603647204E-03    0.5795981116E+00
    0.1500000000E+07    0.6799565181E+00    0.1425715178E-01    0.8300994611E-01    0.2418211680E-03    0.5810043303E+00
    0.1700000000E+07    0.6799707466E+00    0.1344894094E-01    0.8308008311E-01    0.2266508101E-03    0.5821675259E+00
    0.1900000000E+07    0.6799820044E+00    0.1276773364E-01    0.8313505025E-01    0.2139442247E-03    0.5831515737E+00
    0.2100000000E+07    0.6799911379E+00    0.1218319850E-01    0.8317887039E-01    0.2031016797E-03    0.5839989481E+00
    0.2300000000E+07    0.6799986992E+00    0.1167429395E-01    0.8321426402E-01    0.1937095588E-03    0.5847391630E+00
    0.2500000000E+07    0.6800050642E+00    0.1122589732E-01    0.8324313886E-01    0.1854721556E-03    0.5853934642E+00
    0.2700000000E+07    0.6800104976E+00    0.1082681937E-01    0.8326687316E-01    0.1781717200E-03    0.5859775960E+00
    0.2900000000E+07    0.6800151911E+00    0.1046857731E-01    0.8328648779E-01    0.1716438933E-03    0.5865035126E+00
    0.3100000000E+07    0.6800192872E+00    0.1014460598E-01    0.8330275508E-01    0.1657619842E-03    0.5869804798E+00
    0.3300000000E+07    0.6800228939E+00    0.9849733244E-02    0.8331627009E-01    0.1604265566E-03    0.5874158077E+00
    0.3500000000E+07    0.6800260946E+00    0.9579820967E-02    0.8332749857E-01    0.1555583316E-03    0.5878153534E+00
    0.3700000000E+07    0.6800289547E+00    0.9331513110E-02    0.8333681016E-01    0.1510932238E-03    0.5881838734E+00
    0.3900000000E+07    0.6800315263E+00    0.9102055068E-02    0.8334450186E-01    0.1469787949E-03    0.5885252774E+00
    0.4100000000E+07    0.6800338512E+00    0.8889161590E-02    0.8335081490E-01    0.1431716676E-03    0.5888428128E+00
    0.4300000000E+07    0.6800359636E+00    0.8690918537E-02    0.8335594716E-01    0.1396356093E-03    0.5891392035E+00
    0.4500000000E+07    0.6800378917E+00    0.8505708697E-02    0.8336006236E-01    0.1363400879E-03    0.5894167535E+00
    0.4700000000E+07    0.6800396588E+00    0.8332154969E-02    0.8336329708E-01    0.1332591691E-03    0.5896774274E+00
    0.4900000000E+07    0.6800412844E+00    0.8169076311E-02    0.8336576605E-01    0.1303706640E-03    0.5899229120E+00
    0.1000000000E+07    0.6798962959E+00    0.1720557602E-01    0.8271673568E-01    0.2979667849E-03    0.5767926405E+00
    0.3000000000E+07    0.6800173064E+00    0.1030265887E-01    0.8329499916E-01    0.1686289567E-03    0.5867476190E+00
    0.5000000000E+07    0.6800420494E+00    0.8091141008E-02    0.8336674431E-01    0.1289924894E-03    0.5900404218E+00
    0.7000000000E+07    0.6800528412E+00    0.6895023029E-02    0.8336327506E-01    0.1080325624E-03    0.5918616688E+00
    0.9000000000E+07    0.6800589280E+00    0.6116335668E-02    0.8333852639E-01    0.9459716279E-04    0.5930690960E+00
    0.1100000000E+08    0.6800628541E+00    0.5557140199E-02    0.8330674525E-01    0.8506265551E-04    0.5939498535E+00
    0.1300000000E+08    0.6800656062E+00    0.5130217678E-02    0.8327290762E-01    0.7785322632E-04    0.5946316685E+00
    0.1500000000E+08    0.6800676477E+00    0.4790312474E-02    0.8323900641E-01    0.7215962908E-04    0.5951813666E+00
    0.1700000000E+08    0.6800692258E+00    0.4511279257E-02    0.8320588672E-01    0.6751831668E-04    0.5956378444E+00
    0.1900000000E+08    0.6800704845E+00    0.4276812112E-02    0.8317390038E-01    0.6364229203E-04    0.5960255275E+00
    0.2100000000E+08    0.6800715134E+00    0.4076140238E-02    0.8314317221E-01    0.6034318492E-04    0.5963606535E+00
    0.2300000000E+08    0.6800723713E+00    0.3901822971E-02    0.8311371873E-01    0.5749160071E-04    0.5966545066E+00
    0.2500000000E+08    0.6800730984E+00    0.3748531917E-02    0.8308550454E-01    0.5499534881E-04    0.5969152133E+00
    0.2700000000E+08    0.6800737231E+00    0.3612336955E-02    0.8305847047E-01    0.5278674582E-04    0.5971487999E+00
