  Pressure (Pa) 22mC5-400 (mol/kg) 2mC6-400 (mol/kg) 3mC6-400 (mol/kg) 33mC5-400 (mol/kg) C7-400 (mol/kg)
    0.1000000000E+01    0.2635063064E-02    0.7087387298E-02    0.1046783503E-02    0.6411924047E-04    0.5096000960E-02
    0.3000000000E+01    0.7739210153E-02    0.2043345631E-01    0.3033826364E-02    0.1848751684E-03    0.1477161810E-01
    0.5000000000E+01    0.1263650800E-01    0.3277139495E-01    0.4891248804E-02    0.2965283880E-03    0.2381881139E-01
    0.7000000000E+01    0.1734270544E-01    0.4420373753E-01    0.6632159249E-02    0.4000045582E-03    0.3230104864E-01
    0.9000000000E+01    0.2187193715E-01    0.5481970817E-01    0.8267930936E-02    0.4961091332E-03    0.4027340216E-01
    0.1100000000E+02    0.2623692725E-01    0.6469731167E-01    0.9808481202E-02    0.5855462525E-03    0.4778389945E-01
    0.1300000000E+02    0.3044916261E-01    0.7390504132E-01    0.1126249842E-01    0.6689341698E-03    0.5487462083E-01
    0.1500000000E+02    0.3451904124E-01    0.8250328346E-01    0.1263762765E-01    0.7468179404E-03    0.6158259741E-01
    0.1700000000E+02    0.3845599965E-01    0.9054547995E-01    0.1394062361E-01    0.8196799215E-03    0.6794055090E-01
    0.1900000000E+02    0.4226862274E-01    0.9807909591E-01    0.1517747733E-01    0.8879485122E-03    0.7397750662E-01
    0.2100000000E+02    0.4596473884E-01    0.1051464299E+00    0.1635352186E-01    0.9520054714E-03    0.7971930452E-01
    0.2300000000E+02    0.4955150225E-01    0.1117852958E+00    0.1747352070E-01    0.1012192074E-02    0.8518902746E-01
    0.2500000000E+02    0.5303546520E-01    0.1180295994E+00    0.1854174244E-01    0.1068814319E-02    0.9040736199E-01
    0.2700000000E+02    0.5642264066E-01    0.1239098280E+00    0.1956202384E-01    0.1122147351E-02    0.9539290374E-01
    0.2900000000E+02    0.5971855745E-01    0.1294534692E+00    0.2053782348E-01    0.1172439236E-02    0.1001624171E+00
    0.3100000000E+02    0.6292830872E-01    0.1346853680E+00    0.2147226762E-01    0.1219914196E-02    0.1047310572E+00
    0.3300000000E+02    0.6605659459E-01    0.1396280359E+00    0.2236818948E-01    0.1264775388E-02    0.1091125597E+00
    0.3500000000E+02    0.6910775996E-01    0.1443019165E+00    0.2322816309E-01    0.1307207308E-02    0.1133194051E+00
    0.3700000000E+02    0.7208582794E-01    0.1487256160E+00    0.2405453249E-01    0.1347377872E-02    0.1173629598E+00
    0.3900000000E+02    0.7499452956E-01    0.1529161037E+00    0.2484943712E-01    0.1385440223E-02    0.1212535990E+00
    0.4100000000E+02    0.7783733022E-01    0.1568888868E+00    0.2561483385E-01    0.1421534312E-02    0.1250008135E+00
    0.4300000000E+02    0.8061745335E-01    0.1606581634E+00    0.2635251624E-01    0.1455788273E-02    0.1286133028E+00
    0.4500000000E+02    0.8333790151E-01    0.1642369562E+00    0.2706413139E-01    0.1488319641E-02    0.1320990567E+00
    0.4700000000E+02    0.8600147529E-01    0.1676372315E+00    0.2775119475E-01    0.1519236410E-02    0.1354654273E+00
    0.4900000000E+02    0.8861079038E-01    0.1708700022E+00    0.2841510312E-01    0.1548637979E-02    0.1387191915E+00
    0.1000000000E+02    0.2407421732E-01    0.5984631984E-01    0.9049539274E-02    0.5416206316E-03    0.4408362481E-01
    0.3000000000E+02    0.6133390127E-01    0.1321069280E+00    0.2101003147E-01    0.1196515671E-02    0.1024709566E+00
    0.5000000000E+02    0.8989587153E-01    0.1724267773E+00    0.2873878113E-01    0.1562799480E-02    0.1403058207E+00
    0.7000000000E+02    0.1132662373E+00    0.1968542017E+00    0.3426273839E-01    0.1785309316E-02    0.1674176718E+00
    0.9000000000E+02    0.1332213296E+00    0.2123636627E+00    0.3847603281E-01    0.1927003920E-02    0.1881466658E+00
    0.1100000000E+03    0.1507672914E+00    0.2224473458E+00    0.4183806427E-01    0.2019423025E-02    0.2047247831E+00
    0.1300000000E+03    0.1665220620E+00    0.2290331588E+00    0.4461088315E-01    0.2079991595E-02    0.2184262956E+00
    0.1500000000E+03    0.1808892701E+00    0.2332645737E+00    0.4695584547E-01    0.2119054939E-02    0.2300364888E+00
    0.1700000000E+03    0.1941456765E+00    0.2358581526E+00    0.4897828742E-01    0.2143104102E-02    0.2400684295E+00
    0.1900000000E+03    0.2064886657E+00    0.2372829041E+00    0.5075022552E-01    0.2156394070E-02    0.2488731718E+00
    0.2100000000E+03    0.2180636751E+00    0.2378568151E+00    0.5232277416E-01    0.2161814887E-02    0.2567000725E+00
    0.2300000000E+03    0.2289808549E+00    0.2378018339E+00    0.5373335235E-01    0.2161387950E-02    0.2637318150E+00
    0.2500000000E+03    0.2393256201E+00    0.2372766822E+00    0.5501007482E-01    0.2156562286E-02    0.2701057601E+00
    0.2700000000E+03    0.2491655750E+00    0.2363972182E+00    0.5617453871E-01    0.2148398491E-02    0.2759275017E+00
    0.2900000000E+03    0.2585551983E+00    0.2352495011E+00    0.5724365416E-01    0.2137686802E-02    0.2812797766E+00
    0.3100000000E+03    0.2675390977E+00    0.2338984179E+00    0.5823088332E-01    0.2125025107E-02    0.2862284971E+00
    0.3300000000E+03    0.2761543231E+00    0.2323935241E+00    0.5914710084E-01    0.2110871789E-02    0.2908269432E+00
    0.3500000000E+03    0.2844320449E+00    0.2307730847E+00    0.6000120528E-01    0.2095582321E-02    0.2951187420E+00
    0.3700000000E+03    0.2923987934E+00    0.2290669272E+00    0.6080056234E-01    0.2079435121E-02    0.2991400293E+00
    0.3900000000E+03    0.3000773901E+00    0.2272984891E+00    0.6155133199E-01    0.2062650120E-02    0.3029210446E+00
    0.4100000000E+03    0.3074876562E+00    0.2254863114E+00    0.6225871383E-01    0.2045402328E-02    0.3064873294E+00
    0.4300000000E+03    0.3146469596E+00    0.2236451431E+00    0.6292713378E-01    0.2027831871E-02    0.3098606378E+00
    0.4500000000E+03    0.3215706425E+00    0.2217867688E+00    0.6356038810E-01    0.2010051527E-02    0.3130596404E+00
    0.4700000000E+03    0.3282723589E+00    0.2199206352E+00    0.6416175567E-01    0.1992152435E-02    0.3161004730E+00
    0.4900000000E+03    0.3347643432E+00    0.2180543320E+00    0.6473408667E-01    0.1974208480E-02    0.3189971696E+00
    0.1000000000E+03    0.1422503659E+00    0.2179387178E+00    0.4024395601E-01    0.1978062628E-02    0.1968597839E+00
    0.3000000000E+03    0.2630953929E+00    0.2345959781E+00    0.5774677236E-01    0.2131568279E-02    0.2838009948E+00
    0.5000000000E+03    0.3379351752E+00    0.2171230737E+00    0.6501015459E-01    0.1965238903E-02    0.3203953644E+00
    0.7000000000E+03    0.3925485613E+00    0.1994504945E+00    0.6947530958E-01    0.1793169802E-02    0.3431013730E+00
    0.9000000000E+03    0.4344054299E+00    0.1843597701E+00    0.7264840402E-01    0.1643713023E-02    0.3593516942E+00
    0.1100000000E+04    0.4673181579E+00    0.1717899802E+00    0.7508253414E-01    0.1517683748E-02    0.3718903103E+00
    0.1300000000E+04    0.4936725878E+00    0.1613026830E+00    0.7704069113E-01    0.1411642900E-02    0.3820276544E+00
    0.1500000000E+04    0.5150935477E+00    0.1524751835E+00    0.7866803322E-01    0.1321904112E-02    0.3904897141E+00
    0.1700000000E+04    0.5327343320E+00    0.1449641108E+00    0.8005292552E-01    0.1245323245E-02    0.3977198703E+00
    0.1900000000E+04    0.5474342108E+00    0.1385026528E+00    0.8125303347E-01    0.1179377029E-02    0.4040082996E+00
    0.2100000000E+04    0.5598151394E+00    0.1328856755E+00    0.8230799767E-01    0.1122078098E-02    0.4095549943E+00
    0.2300000000E+04    0.5703450252E+00    0.1279552008E+00    0.8324619253E-01    0.1071866581E-02    0.4145034460E+00
    0.2500000000E+04    0.5793806227E+00    0.1235887388E+00    0.8408859622E-01    0.1027514312E-02    0.4189599741E+00
    0.2700000000E+04    0.5871972942E+00    0.1196904610E+00    0.8485113536E-01    0.9880483174E-03    0.4230054596E+00
    0.2900000000E+04    0.5940100148E+00    0.1161846602E+00    0.8554617194E-01    0.9526919284E-03    0.4267027999E+00
    0.3100000000E+04    0.5999884117E+00    0.1130109270E+00    0.8618348279E-01    0.9208201141E-03    0.4301018280E+00
    0.3300000000E+04    0.6052676713E+00    0.1101205855E+00    0.8677092577E-01    0.8919257024E-03    0.4332426636E+00
    0.3500000000E+04    0.6099565419E+00    0.1074740440E+00    0.8731490539E-01    0.8655937957E-03    0.4361580584E+00
    0.3700000000E+04    0.6141432728E+00    0.1050388088E+00    0.8782070601E-01    0.8414822983E-03    0.4388750774E+00
    0.3900000000E+04    0.6179000671E+00    0.1027879852E+00    0.8829273529E-01    0.8193070052E-03    0.4414163288E+00
    0.4100000000E+04    0.6212864551E+00    0.1006991335E+00    0.8873470535E-01    0.7988301027E-03    0.4438008798E+00
    0.4300000000E+04    0.6243518729E+00    0.9875338985E-01    0.8914976970E-01    0.7798512352E-03    0.4460449507E+00
    0.4500000000E+04    0.6271376521E+00    0.9693478413E-01    0.8954062831E-01    0.7622005133E-03    0.4481624471E+00
    0.4700000000E+04    0.6296785687E+00    0.9522970592E-01    0.8990960926E-01    0.7457330017E-03    0.4501653746E+00
    0.4900000000E+04    0.6320040576E+00    0.9362648358E-01    0.9025873297E-01    0.7303243405E-03    0.4520641652E+00
    0.1000000000E+04    0.4518079673E+00    0.1777857878E+00    0.7393750109E-01    0.1577959665E-02    0.3659837358E+00
    0.3000000000E+04    0.5970943529E+00    0.1145595676E+00    0.8587151322E-01    0.9363545759E-03    0.4284368992E+00
    0.5000000000E+04    0.6330939951E+00    0.9285986728E-01    0.9042640837E-01    0.7229829662E-03    0.4529774037E+00
    0.7000000000E+04    0.6480561567E+00    0.8103075778E-01    0.9306775816E-01    0.6121157459E-03    0.4674864380E+00
    0.9000000000E+04    0.6560152627E+00    0.7321257348E-01    0.9485594660E-01    0.5416006803E-03    0.4774634137E+00
    0.1100000000E+05    0.6608914244E+00    0.6750100889E-01    0.9617262373E-01    0.4915842690E-03    0.4849089238E+00
    0.1300000000E+05    0.6641627653E+00    0.6306721936E-01    0.9719521129E-01    0.4536440408E-03    0.4907610257E+00
    0.1500000000E+05    0.6665002465E+00    0.5948247319E-01    0.9801935994E-01    0.4235330259E-03    0.4955291888E+00
    0.1700000000E+05    0.6682494218E+00    0.5649842231E-01    0.9870195880E-01    0.3988475395E-03    0.4995184234E+00
    0.1900000000E+05    0.6696053213E+00    0.5395926683E-01    0.9927931131E-01    0.3781103168E-03    0.5029245378E+00
    0.2100000000E+05    0.6706859394E+00    0.5176131049E-01    0.9977584885E-01    0.3603557444E-03    0.5058800356E+00
    0.2300000000E+05    0.6715666642E+00    0.4983231420E-01    0.1002087121E+00    0.3449217594E-03    0.5084783591E+00
    0.2500000000E+05    0.6722978260E+00    0.4812009486E-01    0.1005903367E+00    0.3313367942E-03    0.5107876310E+00
    0.2700000000E+05    0.6729142627E+00    0.4658582745E-01    0.1009299978E+00    0.3192543597E-03    0.5128588931E+00
    0.2900000000E+05    0.6734408296E+00    0.4519990856E-01    0.1012347753E+00    0.3084132058E-03    0.5147312772E+00
    0.3100000000E+05    0.6738957217E+00    0.4393929415E-01    0.1015101808E+00    0.2986120080E-03    0.5164353749E+00
    0.3300000000E+05    0.6742925560E+00    0.4278572572E-01    0.1017605790E+00    0.2896926997E-03    0.5179955078E+00
    0.3500000000E+05    0.6746417208E+00    0.4172451316E-01    0.1019894774E+00    0.2815291572E-03    0.5194312974E+00
    0.3700000000E+05    0.6749512759E+00    0.4074367790E-01    0.1021997318E+00    0.2740193155E-03    0.5207587787E+00
    0.3900000000E+05    0.6752275683E+00    0.3983333632E-01    0.1023936944E+00    0.2670795452E-03    0.5219912059E+00
    0.4100000000E+05    0.6754756626E+00    0.3898524730E-01    0.1025733224E+00    0.2606405624E-03    0.5231396466E+00
    0.4300000000E+05    0.6756996485E+00    0.3819247436E-01    0.1027402597E+00    0.2546443984E-03    0.5242134275E+00
    0.4500000000E+05    0.6759028641E+00    0.3744912955E-01    0.1028958983E+00    0.2490421194E-03    0.5252204733E+00
    0.4700000000E+05    0.6760880603E+00    0.3675017656E-01    0.1030414262E+00    0.2437920857E-03    0.5261675677E+00
    0.4900000000E+05    0.6762575241E+00    0.3609127743E-01    0.1031778641E+00    0.2388586047E-03    0.5270605578E+00
    0.1000000000E+05    0.6587177749E+00    0.7015887401E-01    0.9555941215E-01    0.5146995830E-03    0.4814297356E+00
    0.3000000000E+05    0.6736762952E+00    0.4455517521E-01    0.1013758538E+00    0.3033933524E-03    0.5156027159E+00
    0.5000000000E+05    0.6763369678E+00    0.3577565318E-01    0.1032429548E+00    0.2365007798E-03    0.5274883751E+00
    0.7000000000E+05    0.6774352281E+00    0.3087001115E-01    0.1042301026E+00    0.2003058006E-03    0.5341435102E+00
    0.9000000000E+05    0.6780339041E+00    0.2761169439E-01    0.1048559442E+00    0.1767416626E-03    0.5385719917E+00
    0.1100000000E+06    0.6784105586E+00    0.2523888189E-01    0.1052933018E+00    0.1598286454E-03    0.5418034114E+00
    0.1300000000E+06    0.6786693633E+00    0.2340826490E-01    0.1056182523E+00    0.1469277675E-03    0.5443017086E+00
    0.1500000000E+06    0.6788581561E+00    0.2193872182E-01    0.1058701057E+00    0.1366677357E-03    0.5463115832E+00
    0.1700000000E+06    0.6790019748E+00    0.2072424448E-01    0.1060714405E+00    0.1282554291E-03    0.5479762324E+00
    0.1900000000E+06    0.6791151911E+00    0.1969801817E-01    0.1062362435E+00    0.1211958090E-03    0.5493859091E+00
    0.2100000000E+06    0.6792066430E+00    0.1881551904E-01    0.1063736868E+00    0.1151617037E-03    0.5506007628E+00
    0.2300000000E+06    0.6792820634E+00    0.1804575832E-01    0.1064900582E+00    0.1099270230E-03    0.5516626670E+00
    0.2500000000E+06    0.6793453340E+00    0.1736640043E-01    0.1065898256E+00    0.1053298339E-03    0.5526018123E+00
    0.2700000000E+06    0.6793991766E+00    0.1676087745E-01    0.1066762584E+00    0.1012506944E-03    0.5534406018E+00
    0.2900000000E+06    0.6794455562E+00    0.1621660067E-01    0.1067518083E+00    0.9759931099E-04    0.5541960654E+00
    0.3100000000E+06    0.6794859270E+00    0.1572380747E-01    0.1068183533E+00    0.9430598547E-04    0.5548814163E+00
    0.3300000000E+06    0.6795213880E+00    0.1527479263E-01    0.1068773575E+00    0.9131594264E-04    0.5555070887E+00
    0.3500000000E+06    0.6795527858E+00    0.1486338108E-01    0.1069299807E+00    0.8858545824E-04    0.5560814492E+00
    0.3700000000E+06    0.6795807825E+00    0.1448455718E-01    0.1069771542E+00    0.8607914811E-04    0.5566112973E+00
    0.3900000000E+06    0.6796059039E+00    0.1413419837E-01    0.1070196352E+00    0.8376802845E-04    0.5571022254E+00
    0.4100000000E+06    0.6796285724E+00    0.1380888010E-01    0.1070580458E+00    0.8162810037E-04    0.5575588815E+00
    0.4300000000E+06    0.6796491317E+00    0.1350573050E-01    0.1070929022E+00    0.7963929934E-04    0.5579851662E+00
    0.4500000000E+06    0.6796678640E+00    0.1322232046E-01    0.1071246366E+00    0.7778470299E-04    0.5583843806E+00
    0.4700000000E+06    0.6796850031E+00    0.1295657937E-01    0.1071536137E+00    0.7604992573E-04    0.5587593405E+00
    0.4900000000E+06    0.6797007448E+00    0.1270672969E-01    0.1071801435E+00    0.7442264992E-04    0.5591124647E+00
    0.1000000000E+06    0.6782414796E+00    0.2634150958E-01    0.1050921845E+00    0.1676615815E-03    0.5403009666E+00
    0.3000000000E+06    0.6794664171E+00    0.1596429132E-01    0.1067861067E+00    0.9591161194E-04    0.5545467973E+00
    0.5000000000E+06    0.6797081441E+00    0.1258727589E-01    0.1071925750E+00    0.7364594927E-04    0.5592815031E+00
    0.7000000000E+06    0.6798118379E+00    0.1074982692E-01    0.1073606709E+00    0.6181006623E-04    0.5619012631E+00
    0.9000000000E+06    0.6798696175E+00    0.9549440857E-02    0.1074423979E+00    0.5419937322E-04    0.5636372752E+00
    0.1100000000E+07    0.6799065158E+00    0.8685361405E-02    0.1074837746E+00    0.4878667366E-04    0.5649026748E+00
    0.1300000000E+07    0.6799321539E+00    0.8024511495E-02    0.1075035074E+00    0.4468726962E-04    0.5658814294E+00
    0.1500000000E+07    0.6799510236E+00    0.7497636596E-02    0.1075105864E+00    0.4144566463E-04    0.5666698424E+00
    0.1700000000E+07    0.6799655049E+00    0.7064636383E-02    0.1075098314E+00    0.3880042613E-04    0.5673239831E+00
    0.1900000000E+07    0.6799769774E+00    0.6700456715E-02    0.1075040337E+00    0.3658943374E-04    0.5678790640E+00
    0.2100000000E+07    0.6799862961E+00    0.6388523666E-02    0.1074949049E+00    0.3470613851E-04    0.5683584930E+00
    0.2300000000E+07    0.6799940195E+00    0.6117373356E-02    0.1074835416E+00    0.3307726769E-04    0.5687785356E+00
    0.2500000000E+07    0.6800005281E+00    0.5878787479E-02    0.1074706710E+00    0.3165056533E-04    0.5691509042E+00
    0.2700000000E+07    0.6800060897E+00    0.5666698690E-02    0.1074567886E+00    0.3038763400E-04    0.5694842823E+00
    0.2900000000E+07    0.6800108988E+00    0.5476516166E-02    0.1074422394E+00    0.2925954588E-04    0.5697852666E+00
    0.3100000000E+07    0.6800150998E+00    0.5304693029E-02    0.1074272680E+00    0.2824404027E-04    0.5700589740E+00
    0.3300000000E+07    0.6800188023E+00    0.5148439335E-02    0.1074120503E+00    0.2732367182E-04    0.5703094442E+00
    0.3500000000E+07    0.6800220909E+00    0.5005526043E-02    0.1073967136E+00    0.2648455057E-04    0.5705399166E+00
    0.3700000000E+07    0.6800250321E+00    0.4874147710E-02    0.1073813515E+00    0.2571546253E-04    0.5707530244E+00
    0.3900000000E+07    0.6800276788E+00    0.4752824184E-02    0.1073660323E+00    0.2500724219E-04    0.5709509335E+00
    0.4100000000E+07    0.6800300736E+00    0.4640328839E-02    0.1073508065E+00    0.2435231576E-04    0.5711354448E+00
    0.4300000000E+07    0.6800322513E+00    0.4535635277E-02    0.1073357111E+00    0.2374436301E-04    0.5713080702E+00
    0.4500000000E+07    0.6800342405E+00    0.4437877117E-02    0.1073207729E+00    0.2317806288E-04    0.5714700898E+00
    0.4700000000E+07    0.6800360649E+00    0.4346317251E-02    0.1073060114E+00    0.2264889943E-04    0.5716225961E+00
    0.4900000000E+07    0.6800377446E+00    0.4260324023E-02    0.1072914403E+00    0.2215301185E-04    0.5717665280E+00
    0.1000000000E+07    0.6798898951E+00    0.9085837509E-02    0.1074666250E+00    0.5128813382E-04    0.5643143453E+00
    0.3000000000E+07    0.6800130678E+00    0.5388499141E-02    0.1074347942E+00    0.2873890643E-04    0.5699252559E+00
    0.5000000000E+07    0.6800385354E+00    0.4219241663E-02    0.1072842291E+00    0.2191648981E-04    0.5718355367E+00
    0.7000000000E+07    0.6800497269E+00    0.3589841808E-02    0.1071508762E+00    0.1832554829E-04    0.5729154215E+00
    0.9000000000E+07    0.6800560772E+00    0.3181210911E-02    0.1070364879E+00    0.1602986723E-04    0.5736441424E+00
    0.1100000000E+08    0.6800601943E+00    0.2888299576E-02    0.1069371797E+00    0.1440363431E-04    0.5741837514E+00
    0.1300000000E+08    0.6800630931E+00    0.2664973450E-02    0.1068496358E+00    0.1317557948E-04    0.5746069816E+00
    0.1500000000E+08    0.6800652521E+00    0.2487350701E-02    0.1067714114E+00    0.1220670977E-04    0.5749521964E+00
    0.1700000000E+08    0.6800669272E+00    0.2341658655E-02    0.1067007185E+00    0.1141754446E-04    0.5752418925E+00
    0.1900000000E+08    0.6800682676E+00    0.2219319864E-02    0.1066362266E+00    0.1075894124E-04    0.5754902943E+00
    0.2100000000E+08    0.6800693666E+00    0.2114675062E-02    0.1065769254E+00    0.1019868147E-04    0.5757069183E+00
    0.2300000000E+08    0.6800702856E+00    0.2023818510E-02    0.1065220313E+00    0.9714654246E-05    0.5758984175E+00
    0.2500000000E+08    0.6800710665E+00    0.1943955552E-02    0.1064709255E+00    0.9291118666E-05    0.5760696104E+00
    0.2700000000E+08    0.6800717391E+00    0.1873026385E-02    0.1064231109E+00    0.8916526245E-05    0.5762240890E+00
