  Pressure (Pa) 22mC5-400 (mol/kg) 2mC6-400 (mol/kg) 3mC6-400 (mol/kg) 33mC5-400 (mol/kg) C7-400 (mol/kg)
    0.1000000000E+01    0.2648727835E-02    0.1583108514E-02    0.3150875354E-02    0.2578110537E-03    0.5113032363E-02
    0.3000000000E+01    0.7857004089E-02    0.4609318150E-02    0.9189546795E-02    0.7507494718E-03    0.1491415012E-01
    0.5000000000E+01    0.1295021696E-01    0.7461182957E-02    0.1490170331E-01    0.1215442577E-02    0.2418779618E-01
    0.7000000000E+01    0.1793276638E-01    0.1015214799E-01    0.2031369722E-01    0.1654070067E-02    0.3297647697E-01
    0.9000000000E+01    0.2280882505E-01    0.1269429236E-01    0.2544910446E-01    0.2068589741E-02    0.4131822404E-01
    0.1100000000E+02    0.2758235288E-01    0.1509850141E-01    0.3032908140E-01    0.2460765526E-02    0.4924716888E-01
    0.1300000000E+02    0.3225711036E-01    0.1737461325E-01    0.3497266792E-01    0.2832191303E-02    0.5679403126E-01
    0.1500000000E+02    0.3683667096E-01    0.1953154394E-01    0.3939704614E-01    0.3184311274E-02    0.6398653599E-01
    0.1700000000E+02    0.4132443258E-01    0.2157739494E-01    0.4361776195E-01    0.3518437437E-02    0.7084977001E-01
    0.1900000000E+02    0.4572362821E-01    0.2351954569E-01    0.4764891565E-01    0.3835764630E-02    0.7740648947E-01
    0.2100000000E+02    0.5003733582E-01    0.2536473371E-01    0.5150332652E-01    0.4137383557E-02    0.8367738494E-01
    0.2300000000E+02    0.5426848752E-01    0.2711912407E-01    0.5519267536E-01    0.4424292079E-02    0.8968131116E-01
    0.2500000000E+02    0.5841987813E-01    0.2878836997E-01    0.5872762841E-01    0.4697405056E-02    0.9543548674E-01
    0.2700000000E+02    0.6249417310E-01    0.3037766566E-01    0.6211794543E-01    0.4957562944E-02    0.1009556683E+00
    0.2900000000E+02    0.6649391593E-01    0.3189179284E-01    0.6537257423E-01    0.5205539334E-02    0.1062563031E+00
    0.3100000000E+02    0.7042153511E-01    0.3333516147E-01    0.6849973362E-01    0.5442047575E-02    0.1113506621E+00
    0.3300000000E+02    0.7427935050E-01    0.3471184575E-01    0.7150698634E-01    0.5667746619E-02    0.1162509584E+00
    0.3500000000E+02    0.7806957940E-01    0.3602561596E-01    0.7440130344E-01    0.5883246189E-02    0.1209684504E+00
    0.3700000000E+02    0.8179434213E-01    0.3727996667E-01    0.7718912123E-01    0.6089111356E-02    0.1255135337E+00
    0.3900000000E+02    0.8545566734E-01    0.3847814185E-01    0.7987639169E-01    0.6285866616E-02    0.1298958226E+00
    0.4100000000E+02    0.8905549689E-01    0.3962315722E-01    0.8246862738E-01    0.6473999515E-02    0.1341242225E+00
    0.4300000000E+02    0.9259569047E-01    0.4071782024E-01    0.8497094137E-01    0.6653963887E-02    0.1382069939E+00
    0.4500000000E+02    0.9607802992E-01    0.4176474795E-01    0.8738808289E-01    0.6826182758E-02    0.1421518103E+00
    0.4700000000E+02    0.9950422328E-01    0.4276638311E-01    0.8972446926E-01    0.6991050947E-02    0.1459658095E+00
    0.4900000000E+02    0.1028759086E+00    0.4372500851E-01    0.9198421448E-01    0.7148937403E-02    0.1496556398E+00
    0.1000000000E+02    0.2520816577E-01    0.1391300094E-01    0.2791978535E-01    0.2267367271E-02    0.4533230199E-01
    0.3000000000E+02    0.6846659352E-01    0.3262205986E-01    0.6695160035E-01    0.5325184578E-02    0.1088284802E+00
    0.5000000000E+02    0.1045418044E+00    0.4418886543E-01    0.9308655574E-01    0.7225371228E-02    0.1514559457E+00
    0.7000000000E+02    0.1353483354E+00    0.5166004371E-01    0.1119162130E+00    0.8460558993E-02    0.1822468567E+00
    0.9000000000E+02    0.1621526287E+00    0.5658723279E-01    0.1261921366E+00    0.9281503949E-02    0.2056498684E+00
    0.1100000000E+03    0.1858271718E+00    0.5984631562E-01    0.1374291311E+00    0.9829796718E-02    0.2241162334E+00
    0.1300000000E+03    0.2069938512E+00    0.6196856116E-01    0.1465317130E+00    0.1019140974E-01    0.2391109065E+00
    0.1500000000E+03    0.2261089559E+00    0.6329373835E-01    0.1540743600E+00    0.1042142132E-01    0.2515651083E+00
    0.1700000000E+03    0.2435157432E+00    0.6404814455E-01    0.1604400751E+00    0.1055660186E-01    0.2621002076E+00
    0.1900000000E+03    0.2594781307E+00    0.6438740519E-01    0.1658944096E+00    0.1062231287E-01    0.2711473857E+00
    0.2100000000E+03    0.2742029679E+00    0.6442134212E-01    0.1706275282E+00    0.1063651406E-01    0.2790156743E+00
    0.2300000000E+03    0.2878551637E+00    0.6422910886E-01    0.1747793536E+00    0.1061220210E-01    0.2859326459E+00
    0.2500000000E+03    0.3005682068E+00    0.6386876021E-01    0.1784552437E+00    0.1055895299E-01    0.2920697972E+00
    0.2700000000E+03    0.3124516387E+00    0.6338349953E-01    0.1817361234E+00    0.1048392960E-01    0.2975589607E+00
    0.2900000000E+03    0.3235964645E+00    0.6280586957E-01    0.1846852351E+00    0.1039255803E-01    0.3025032468E+00
    0.3100000000E+03    0.3340791369E+00    0.6216063032E-01    0.1873527593E+00    0.1028899271E-01    0.3069845351E+00
    0.3300000000E+03    0.3439645353E+00    0.6146677605E-01    0.1897790511E+00    0.1017644277E-01    0.3110687262E+00
    0.3500000000E+03    0.3533082264E+00    0.6073897452E-01    0.1919969558E+00    0.1005740537E-01    0.3148094991E+00
    0.3700000000E+03    0.3621582003E+00    0.5998861025E-01    0.1940334950E+00    0.9933835107E-02    0.3182510502E+00
    0.3900000000E+03    0.3705562212E+00    0.5922455155E-01    0.1959111157E+00    0.9807268922E-02    0.3214301225E+00
    0.4100000000E+03    0.3785388892E+00    0.5845372160E-01    0.1976486295E+00    0.9678919264E-02    0.3243775320E+00
    0.4300000000E+03    0.3861384835E+00    0.5768152844E-01    0.1992619276E+00    0.9549744475E-02    0.3271193313E+00
    0.4500000000E+03    0.3933836389E+00    0.5691219203E-01    0.2007645330E+00    0.9420502487E-02    0.3296777073E+00
    0.4700000000E+03    0.4002998934E+00    0.5614899539E-01    0.2021680309E+00    0.9291792179E-02    0.3320716819E+00
    0.4900000000E+03    0.4069101350E+00    0.5539447899E-01    0.2034824076E+00    0.9164085522E-02    0.3343176644E+00
    0.1000000000E+03    0.1743375774E+00    0.5838631544E-01    0.1321239300E+00    0.9583428030E-02    0.2153923434E+00
    0.3000000000E+03    0.3289162731E+00    0.6249039799E-01    0.1860514739E+00    0.1034207997E-01    0.3047973224E+00
    0.5000000000E+03    0.4101070204E+00    0.5502110475E-01    0.2041089267E+00    0.9100727658E-02    0.3353896824E+00
    0.7000000000E+03    0.4620579510E+00    0.4827993297E-01    0.2135598965E+00    0.7940633931E-02    0.3516943491E+00
    0.9000000000E+03    0.4982405468E+00    0.4297511544E-01    0.2194956380E+00    0.7009208738E-02    0.3621014603E+00
    0.1100000000E+04    0.5247805885E+00    0.3883474111E-01    0.2236192182E+00    0.6272877442E-02    0.3694392479E+00
    0.1300000000E+04    0.5449852027E+00    0.3555601934E-01    0.2266743136E+00    0.5685121934E-02    0.3749513572E+00
    0.1500000000E+04    0.5608167660E+00    0.3291031507E-01    0.2290413530E+00    0.5208692708E-02    0.3792781082E+00
    0.1700000000E+04    0.5735144716E+00    0.3073562207E-01    0.2309367236E+00    0.4816294675E-02    0.3827859368E+00
    0.1900000000E+04    0.5838976526E+00    0.2891772523E-01    0.2324932839E+00    0.4488230269E-02    0.3857011319E+00
    0.2100000000E+04    0.5925281122E+00    0.2737516068E-01    0.2337974665E+00    0.4210201769E-02    0.3881717234E+00
    0.2300000000E+04    0.5998028097E+00    0.2604884395E-01    0.2349081131E+00    0.3971696783E-02    0.3902990223E+00
    0.2500000000E+04    0.6060094531E+00    0.2489515115E-01    0.2358667754E+00    0.3764869321E-02    0.3921549372E+00
    0.2700000000E+04    0.6113611897E+00    0.2388130831E-01    0.2367036941E+00    0.3583773713E-02    0.3937920623E+00
    0.2900000000E+04    0.6160189826E+00    0.2298228627E-01    0.2374414421E+00    0.3423837879E-02    0.3952498446E+00
    0.3100000000E+04    0.6201064578E+00    0.2217867825E-01    0.2380972351E+00    0.3281497279E-02    0.3965585106E+00
    0.3300000000E+04    0.6237200025E+00    0.2145522534E-01    0.2386844487E+00    0.3153937109E-02    0.3977416522E+00
    0.3500000000E+04    0.6269357846E+00    0.2079977548E-01    0.2392136446E+00    0.3038908177E-02    0.3988179807E+00
    0.3700000000E+04    0.6298147276E+00    0.2020253669E-01    0.2396932811E+00    0.2934593553E-02    0.3998025472E+00
    0.3900000000E+04    0.6324060994E+00    0.1965553342E-01    0.2401302184E+00    0.2839510665E-02    0.4007076105E+00
    0.4100000000E+04    0.6347501412E+00    0.1915220517E-01    0.2405300826E+00    0.2752438508E-02    0.4015432671E+00
    0.4300000000E+04    0.6368800223E+00    0.1868710619E-01    0.2408975346E+00    0.2672362848E-02    0.4023179156E+00
    0.4500000000E+04    0.6388233121E+00    0.1825567816E-01    0.2412364711E+00    0.2598434513E-02    0.4030386059E+00
    0.4700000000E+04    0.6406031020E+00    0.1785407594E-01    0.2415501767E+00    0.2529937288E-02    0.4037113040E+00
    0.4900000000E+04    0.6422388701E+00    0.1747903277E-01    0.2418414407E+00    0.2466262978E-02    0.4043410966E+00
    0.1000000000E+04    0.5124667953E+00    0.4077986259E-01    0.2217251468E+00    0.6619716351E-02    0.3660558650E+00
    0.3000000000E+04    0.6181274416E+00    0.2256959249E-01    0.2377786709E+00    0.3350659221E-02    0.3959212109E+00
    0.5000000000E+04    0.6430080139E+00    0.1730058168E-01    0.2419794162E+00    0.2436068984E-02    0.4046412925E+00
    0.7000000000E+04    0.6537780459E+00    0.1462100266E-01    0.2439919144E+00    0.1991683442E-02    0.4091875019E+00
    0.9000000000E+04    0.6597379574E+00    0.1292856804E-01    0.2451854191E+00    0.1720997293E-02    0.4120906444E+00
    0.1100000000E+05    0.6635091014E+00    0.1173292002E-01    0.2459776892E+00    0.1535077103E-02    0.4141527236E+00
    0.1300000000E+05    0.6661058797E+00    0.1082873953E-01    0.2465418400E+00    0.1397584413E-02    0.4157171746E+00
    0.1500000000E+05    0.6680012395E+00    0.1011302288E-01    0.2469632799E+00    0.1290707642E-02    0.4169585586E+00
    0.1700000000E+05    0.6694447828E+00    0.9527622595E-02    0.2472892588E+00    0.1204599579E-02    0.4179761560E+00
    0.1900000000E+05    0.6705804752E+00    0.9036864488E-02    0.2475481361E+00    0.1133329487E-02    0.4188311276E+00
    0.2100000000E+05    0.6714971007E+00    0.8617464615E-02    0.2477580064E+00    0.1073089188E-02    0.4195634764E+00
    0.2300000000E+05    0.6722523523E+00    0.8253481091E-02    0.2479309793E+00    0.1021308806E-02    0.4202006162E+00
    0.2500000000E+05    0.6728853291E+00    0.7933574889E-02    0.2480754746E+00    0.9761838820E-03    0.4207620487E+00
    0.2700000000E+05    0.6734234600E+00    0.7649426234E-02    0.2481975340E+00    0.9364056438E-03    0.4212620793E+00
    0.2900000000E+05    0.6738865507E+00    0.7394770856E-02    0.2483016074E+00    0.9009988740E-03    0.4217114737E+00
    0.3100000000E+05    0.6742892575E+00    0.7164788071E-02    0.2483910469E+00    0.8692201394E-03    0.4221185112E+00
    0.3300000000E+05    0.6746426571E+00    0.6955698150E-02    0.2484684259E+00    0.8404915276E-03    0.4224896792E+00
    0.3500000000E+05    0.6749552757E+00    0.6764489212E-02    0.2485357532E+00    0.8143561361E-03    0.4228301435E+00
    0.3700000000E+05    0.6752337823E+00    0.6588727048E-02    0.2485946201E+00    0.7904473573E-03    0.4231440766E+00
    0.3900000000E+05    0.6754834683E+00    0.6426419641E-02    0.2486463035E+00    0.7684671762E-03    0.4234348910E+00
    0.4100000000E+05    0.6757085852E+00    0.6275918664E-02    0.2486918397E+00    0.7481705183E-03    0.4237054090E+00
    0.4300000000E+05    0.6759125880E+00    0.6135846601E-02    0.2487320786E+00    0.7293537488E-03    0.4239579881E+00
    0.4500000000E+05    0.6760983133E+00    0.6005041933E-02    0.2487677236E+00    0.7118460840E-03    0.4241946155E+00
    0.4700000000E+05    0.6762681117E+00    0.5882517338E-02    0.2487993618E+00    0.6955030820E-03    0.4244169798E+00
    0.4900000000E+05    0.6764239473E+00    0.5767427383E-02    0.2488274871E+00    0.6802016416E-03    0.4246265267E+00
    0.1000000000E+05    0.6618147156E+00    0.1228499478E-01    0.2456178689E+00    0.1620353748E-02    0.4131995884E+00
    0.3000000000E+05    0.6740946900E+00    0.7276952326E-02    0.2483479803E+00    0.8846953972E-03    0.4219198459E+00
    0.5000000000E+05    0.6764971565E+00    0.5712438667E-02    0.2488403657E+00    0.6729078988E-03    0.4247268898E+00
    0.7000000000E+05    0.6775198528E+00    0.4869334567E-02    0.2489878091E+00    0.5624836910E-03    0.4262897486E+00
    0.9000000000E+05    0.6780863035E+00    0.4321044198E-02    0.2490248453E+00    0.4921276267E-03    0.4273383019E+00
    0.1100000000E+06    0.6784462288E+00    0.3927437157E-02    0.2490161360E+00    0.4423608175E-03    0.4281131335E+00
    0.1300000000E+06    0.6786952221E+00    0.3626956642E-02    0.2489859603E+00    0.4048040711E-03    0.4287206738E+00
    0.1500000000E+06    0.6788777603E+00    0.3387711323E-02    0.2489451317E+00    0.3751819967E-03    0.4292165431E+00
    0.1700000000E+06    0.6790173423E+00    0.3191292381E-02    0.2488990115E+00    0.3510559684E-03    0.4296331521E+00
    0.1900000000E+06    0.6791275530E+00    0.3026224576E-02    0.2488504540E+00    0.3309206534E-03    0.4299909022E+00
    0.2100000000E+06    0.6792167935E+00    0.2884930235E-02    0.2488010519E+00    0.3137901966E-03    0.4303033984E+00
    0.2300000000E+06    0.6792905384E+00    0.2762175485E-02    0.2487517198E+00    0.2989885304E-03    0.4305801302E+00
    0.2500000000E+06    0.6793525083E+00    0.2654212627E-02    0.2487029893E+00    0.2860346028E-03    0.4308279583E+00
    0.2700000000E+06    0.6794053204E+00    0.2558277566E-02    0.2486551673E+00    0.2745756099E-03    0.4310519909E+00
    0.2900000000E+06    0.6794508692E+00    0.2472280620E-02    0.2486084251E+00    0.2643461824E-03    0.4312561258E+00
    0.3100000000E+06    0.6794905600E+00    0.2394608473E-02    0.2485628503E+00    0.2551423929E-03    0.4314433999E+00
    0.3300000000E+06    0.6795254574E+00    0.2323992914E-02    0.2485184786E+00    0.2468046173E-03    0.4316162214E+00
    0.3500000000E+06    0.6795563825E+00    0.2259421268E-02    0.2484753129E+00    0.2392058959E-03    0.4317765302E+00
    0.3700000000E+06    0.6795839788E+00    0.2200073717E-02    0.2484333361E+00    0.2322438232E-03    0.4319259101E+00
    0.3900000000E+06    0.6796087578E+00    0.2145278454E-02    0.2483925182E+00    0.2258347686E-03    0.4320656695E+00
    0.4100000000E+06    0.6796311313E+00    0.2094478970E-02    0.2483528223E+00    0.2199096763E-03    0.4321969013E+00
    0.4300000000E+06    0.6796514344E+00    0.2047209766E-02    0.2483142071E+00    0.2144109585E-03    0.4323205265E+00
    0.4500000000E+06    0.6796699427E+00    0.2003078053E-02    0.2482766297E+00    0.2092901605E-03    0.4324373286E+00
    0.4700000000E+06    0.6796868850E+00    0.1961749749E-02    0.2482400469E+00    0.2045061816E-03    0.4325479788E+00
    0.4900000000E+06    0.6797024525E+00    0.1922938651E-02    0.2482044158E+00    0.2000239014E-03    0.4326530565E+00
    0.1000000000E+06    0.6782843078E+00    0.4109757483E-02    0.2490242164E+00    0.4653341260E-03    0.4277515625E+00
    0.3000000000E+06    0.6794713737E+00    0.2432490089E-02    0.2485854886E+00    0.2596269404E-03    0.4313517074E+00
    0.5000000000E+06    0.6797097723E+00    0.1904398579E-02    0.2481869441E+00    0.1978862898E-03    0.4327036655E+00
    0.7000000000E+06    0.6798125018E+00    0.1620470868E-02    0.2478782827E+00    0.1654536993E-03    0.4335168117E+00
    0.9000000000E+06    0.6798698673E+00    0.1436234781E-02    0.2476282595E+00    0.1447379269E-03    0.4340912377E+00
    0.1100000000E+07    0.6799065471E+00    0.1304211122E-02    0.2474182703E+00    0.1300701005E-03    0.4345323103E+00
    0.1300000000E+07    0.6799320541E+00    0.1203568545E-02    0.2472371962E+00    0.1189967372E-03    0.4348887899E+00
    0.1500000000E+07    0.6799508377E+00    0.1123530167E-02    0.2470779604E+00    0.1102619316E-03    0.4351870729E+00
    0.1700000000E+07    0.6799652587E+00    0.1057883613E-02    0.2469357998E+00    0.1031479856E-03    0.4354429925E+00
    0.1900000000E+07    0.6799766867E+00    0.1002761106E-02    0.2468073592E+00    0.9721136144E-04    0.4356667633E+00
    0.2100000000E+07    0.6799859713E+00    0.9556113540E-03    0.2466901874E+00    0.9216136946E-04    0.4358653436E+00
    0.2300000000E+07    0.6799936677E+00    0.9146739067E-03    0.2465824391E+00    0.8779857068E-04    0.4360436785E+00
    0.2500000000E+07    0.6800001542E+00    0.8786893007E-03    0.2464826900E+00    0.8398101311E-04    0.4362054038E+00
    0.2700000000E+07    0.6800056975E+00    0.8467293550E-03    0.2463898179E+00    0.8060456992E-04    0.4363532678E+00
    0.2900000000E+07    0.6800104911E+00    0.8180928548E-03    0.2463029224E+00    0.7759091174E-04    0.4364893964E+00
    0.3100000000E+07    0.6800146787E+00    0.7922387844E-03    0.2462212702E+00    0.7487984207E-04    0.4366154670E+00
    0.3300000000E+07    0.6800183694E+00    0.7687421069E-03    0.2461442559E+00    0.7242424181E-04    0.4367328255E+00
    0.3500000000E+07    0.6800216476E+00    0.7472636115E-03    0.2460713737E+00    0.7018663469E-04    0.4368425675E+00
    0.3700000000E+07    0.6800245796E+00    0.7275288245E-03    0.2460021970E+00    0.6813679363E-04    0.4369455966E+00
    0.3900000000E+07    0.6800272178E+00    0.7093129295E-03    0.2459363622E+00    0.6625003478E-04    0.4370426662E+00
    0.4100000000E+07    0.6800296050E+00    0.6924297733E-03    0.2458735572E+00    0.6450597744E-04    0.4371344112E+00
    0.4300000000E+07    0.6800317757E+00    0.6767237083E-03    0.2458135117E+00    0.6288762674E-04    0.4372213713E+00
    0.4500000000E+07    0.6800337583E+00    0.6620634464E-03    0.2457559904E+00    0.6138068427E-04    0.4373040088E+00
    0.4700000000E+07    0.6800355768E+00    0.6483373619E-03    0.2457007870E+00    0.5997302271E-04    0.4373827230E+00
    0.4900000000E+07    0.6800372507E+00    0.6354498574E-03    0.2456477196E+00    0.5865428026E-04    0.4374578609E+00
    0.1000000000E+07    0.6798900204E+00    0.1365339076E-02    0.2475190793E+00    0.1368421048E-03    0.4343246490E+00
    0.3000000000E+07    0.6800126531E+00    0.8048468918E-03    0.2462614813E+00    0.7620075835E-04    0.4365535982E+00
    0.5000000000E+07    0.6800380389E+00    0.6292943680E-03    0.2456219359E+00    0.5802541901E-04    0.4374941849E+00
    0.7000000000E+07    0.6800491893E+00    0.5350981758E-03    0.2451874146E+00    0.4848838783E-04    0.4380899406E+00
    0.9000000000E+07    0.6800555114E+00    0.4740466738E-03    0.2448572306E+00    0.4240132065E-04    0.4385246324E+00
    0.1100000000E+08    0.6800596067E+00    0.4303313420E-03    0.2445905817E+00    0.3809371498E-04    0.4388661723E+00
    0.1300000000E+08    0.6800624875E+00    0.3970259444E-03    0.2443667838E+00    0.3484308728E-04    0.4391470918E+00
    0.1500000000E+08    0.6800646310E+00    0.3705508070E-03    0.2441738775E+00    0.3227981556E-04    0.4393854641E+00
    0.1700000000E+08    0.6800662924E+00    0.3488439614E-03    0.2440043147E+00    0.3019277330E-04    0.4395923560E+00
    0.1900000000E+08    0.6800676205E+00    0.3306224075E-03    0.2438530217E+00    0.2845153438E-04    0.4397750292E+00
    0.2100000000E+08    0.6800687084E+00    0.3150402568E-03    0.2437164218E+00    0.2697064718E-04    0.4399385026E+00
    0.2300000000E+08    0.6800696171E+00    0.3015140666E-03    0.2435918983E+00    0.2569150090E-04    0.4400863876E+00
    0.2500000000E+08    0.6800703885E+00    0.2896265765E-03    0.2434774782E+00    0.2457238937E-04    0.4402213686E+00
    0.2700000000E+08    0.6800710523E+00    0.2790703737E-03    0.2433716368E+00    0.2358272642E-04    0.4403454944E+00
