  Pressure (Pa) 22mC5-400 (mol/kg) 2mC6-400 (mol/kg) 3mC6-400 (mol/kg) 33mC5-400 (mol/kg) C7-400 (mol/kg)
    0.1000000000E+01    0.3168703108E-02    0.3952243477E-02    0.1050531553E-02    0.2574398568E-03    0.5114177142E-02
    0.3000000000E+01    0.9343612664E-02    0.1147589678E-01    0.3065324342E-02    0.7475631129E-03    0.1492438325E-01
    0.5000000000E+01    0.1531298619E-01    0.1852741065E-01    0.4973132592E-02    0.1206993414E-02    0.2421598724E-01
    0.7000000000E+01    0.2108920694E-01    0.2514553694E-01    0.6782678088E-02    0.1638248563E-02    0.3303120889E-01
    0.9000000000E+01    0.2668365310E-01    0.3136497749E-01    0.8501748997E-02    0.2043583102E-02    0.4140775181E-01
    0.1100000000E+02    0.3210679800E-01    0.3721689834E-01    0.1013732197E-01    0.2425021761E-02    0.4937939391E-01
    0.1300000000E+02    0.3736829869E-01    0.4272936744E-01    0.1169566557E-01    0.2784387923E-02    0.5697648740E-01
    0.1500000000E+02    0.4247707426E-01    0.4792772872E-01    0.1318242822E-01    0.3123327950E-02    0.6422638412E-01
    0.1700000000E+02    0.4744137531E-01    0.5283492327E-01    0.1460271335E-01    0.3443332065E-02    0.7115379903E-01
    0.1900000000E+02    0.5226884577E-01    0.5747176602E-01    0.1596114389E-01    0.3745752345E-02    0.7778112190E-01
    0.2100000000E+02    0.5696657792E-01    0.6185718505E-01    0.1726191776E-01    0.4031818277E-02    0.8412868582E-01
    0.2300000000E+02    0.6154116159E-01    0.6600842933E-01    0.1850885584E-01    0.4302650258E-02    0.9021499922E-01
    0.2500000000E+02    0.6599872812E-01    0.6994124956E-01    0.1970544360E-01    0.4559271356E-02    0.9605694712E-01
    0.2700000000E+02    0.7034498987E-01    0.7367005618E-01    0.2085486728E-01    0.4802617579E-02    0.1016699663E+00
    0.2900000000E+02    0.7458527562E-01    0.7720805782E-01    0.2196004550E-01    0.5033546867E-02    0.1070681981E+00
    0.3100000000E+02    0.7872456249E-01    0.8056738292E-01    0.2302365698E-01    0.5252847004E-02    0.1122646224E+00
    0.3300000000E+02    0.8276750470E-01    0.8375918699E-01    0.2404816474E-01    0.5461242581E-02    0.1172711753E+00
    0.3500000000E+02    0.8671845960E-01    0.8679374727E-01    0.2503583762E-01    0.5659401150E-02    0.1220988522E+00
    0.3700000000E+02    0.9058151111E-01    0.8968054661E-01    0.2598876908E-01    0.5847938672E-02    0.1267577997E+00
    0.3900000000E+02    0.9436049110E-01    0.9242834800E-01    0.2690889398E-01    0.6027424362E-02    0.1312573964E+00
    0.4100000000E+02    0.9805899869E-01    0.9504526076E-01    0.2779800338E-01    0.6198384985E-02    0.1356063247E+00
    0.4300000000E+02    0.1016804179E+00    0.9753879977E-01    0.2865775780E-01    0.6361308707E-02    0.1398126346E+00
    0.4500000000E+02    0.1052279334E+00    0.9991593820E-01    0.2948969892E-01    0.6516648518E-02    0.1438838006E+00
    0.4700000000E+02    0.1087045457E+00    0.1021831549E+00    0.3029526014E-01    0.6664825309E-02    0.1478267729E+00
    0.4900000000E+02    0.1121130838E+00    0.1043464768E+00    0.3107577599E-01    0.6806230635E-02    0.1516480227E+00
    0.1000000000E+02    0.2941601647E-01    0.3433505569E-01    0.9329565446E-02    0.2237171039E-02    0.4544221347E-01
    0.3000000000E+02    0.7666724577E-01    0.7890933608E-01    0.2249688835E-01    0.5144603887E-02    0.1096908670E+00
    0.5000000000E+02    0.1137926654E+00    0.1053909466E+00    0.3145703400E-01    0.6874508950E-02    0.1535149031E+00
    0.7000000000E+02    0.1443855196E+00    0.1220022875E+00    0.3802872668E-01    0.7961013179E-02    0.1857300139E+00
    0.9000000000E+02    0.1704534361E+00    0.1327405244E+00    0.4310376777E-01    0.8663881823E-02    0.2106624278E+00
    0.1100000000E+03    0.1932126319E+00    0.1397639815E+00    0.4717300293E-01    0.9123491246E-02    0.2306951435E+00
    0.1300000000E+03    0.2134472838E+00    0.1443299668E+00    0.5053005513E-01    0.9421710368E-02    0.2472547413E+00
    0.1500000000E+03    0.2316887787E+00    0.1472142796E+00    0.5336199978E-01    0.9609130045E-02    0.2612508049E+00
    0.1700000000E+03    0.2483121738E+00    0.1489176831E+00    0.5579407107E-01    0.9718464891E-02    0.2732926777E+00
    0.1900000000E+03    0.2635913669E+00    0.1497753174E+00    0.5791351387E-01    0.9771656216E-02    0.2838051626E+00
    0.2100000000E+03    0.2777322706E+00    0.1500182053E+00    0.5978313541E-01    0.9783866057E-02    0.2930942870E+00
    0.2300000000E+03    0.2908936129E+00    0.1498095418E+00    0.6144941065E-01    0.9765834658E-02    0.3013866557E+00
    0.2500000000E+03    0.3032004522E+00    0.1492669870E+00    0.6294754220E-01    0.9725329546E-02    0.3088540279E+00
    0.2700000000E+03    0.3147532307E+00    0.1484768402E+00    0.6430473565E-01    0.9668067409E-02    0.3156292331E+00
    0.2900000000E+03    0.3256340044E+00    0.1475033195E+00    0.6554238675E-01    0.9598318211E-02    0.3218168040E+00
    0.3100000000E+03    0.3359108302E+00    0.1463947955E+00    0.6667758184E-01    0.9519311387E-02    0.3275002734E+00
    0.3300000000E+03    0.3456409216E+00    0.1451880742E+00    0.6772415181E-01    0.9433515191E-02    0.3327473023E+00
    0.3500000000E+03    0.3548729607E+00    0.1439113968E+00    0.6869342808E-01    0.9342832683E-02    0.3376133600E+00
    0.3700000000E+03    0.3636488209E+00    0.1425865801E+00    0.6959479504E-01    0.9248741692E-02    0.3421444134E+00
    0.3900000000E+03    0.3720048702E+00    0.1412305657E+00    0.7043610045E-01    0.9152396364E-02    0.3463789267E+00
    0.4100000000E+03    0.3799729714E+00    0.1398565591E+00    0.7122396507E-01    0.9054701909E-02    0.3503493702E+00
    0.4300000000E+03    0.3875812591E+00    0.1384748767E+00    0.7196401932E-01    0.8956370318E-02    0.3540833741E+00
    0.4500000000E+03    0.3948547513E+00    0.1370935834E+00    0.7266108649E-01    0.8857962390E-02    0.3576046219E+00
    0.4700000000E+03    0.4018158355E+00    0.1357189773E+00    0.7331932616E-01    0.8759919771E-02    0.3609335503E+00
    0.4900000000E+03    0.4084846593E+00    0.1343559620E+00    0.7394234769E-01    0.8662589611E-02    0.3640879030E+00
    0.1000000000E+03    0.1821901415E+00    0.1366232924E+00    0.4524251889E-01    0.8918020711E-02    0.2211863652E+00
    0.3000000000E+03    0.3308441113E+00    0.1469634017E+00    0.6612186061E-01    0.9559802520E-02    0.3247169994E+00
    0.5000000000E+03    0.4117152365E+00    0.1336800241E+00    0.7424165179E-01    0.8614279148E-02    0.3656045328E+00
    0.7000000000E+03    0.4646326474E+00    0.1213132614E+00    0.7896794405E-01    0.7725387451E-02    0.3896730848E+00
    0.9000000000E+03    0.5017965584E+00    0.1113385984E+00    0.8218863505E-01    0.7002472168E-02    0.4062246101E+00
    0.1100000000E+04    0.5290786667E+00    0.1033630778E+00    0.8457810917E-01    0.6422166975E-02    0.4186005835E+00
    0.1300000000E+04    0.5497851450E+00    0.9689557965E-01    0.8644816136E-01    0.5951390683E-02    0.4283533379E+00
    0.1500000000E+04    0.5659294277E+00    0.9155466003E-01    0.8796651377E-01    0.5563447160E-02    0.4363214556E+00
    0.1700000000E+04    0.5788020270E+00    0.8706547789E-01    0.8923292640E-01    0.5238640513E-02    0.4430056240E+00
    0.1900000000E+04    0.5892628961E+00    0.8323168070E-01    0.9031115541E-01    0.4962662233E-02    0.4487269453E+00
    0.2100000000E+04    0.5979036533E+00    0.7991153610E-01    0.9124420883E-01    0.4725056550E-02    0.4537027229E+00
    0.2300000000E+04    0.6051425208E+00    0.7700106625E-01    0.9206234763E-01    0.4518083158E-02    0.4580863131E+00
    0.2500000000E+04    0.6112822076E+00    0.7442263325E-01    0.9278759666E-01    0.4335924370E-02    0.4619896477E+00
    0.2700000000E+04    0.6165464104E+00    0.7211725230E-01    0.9343643781E-01    0.4174139676E-02    0.4654967123E+00
    0.2900000000E+04    0.6211035102E+00    0.7003937002E-01    0.9402149484E-01    0.4029289124E-02    0.4686719957E+00
    0.3100000000E+04    0.6250823522E+00    0.6815326782E-01    0.9455262903E-01    0.3898670518E-02    0.4715659963E+00
    0.3300000000E+04    0.6285829949E+00    0.6643054531E-01    0.9503767540E-01    0.3780133600E-02    0.4742189290E+00
    0.3500000000E+04    0.6316841838E+00    0.6484833092E-01    0.9548295143E-01    0.3671946802E-02    0.4766632918E+00
    0.3700000000E+04    0.6344486432E+00    0.6338798960E-01    0.9589361729E-01    0.3572700349E-02    0.4789256864E+00
    0.3900000000E+04    0.6369268875E+00    0.6203417552E-01    0.9627393636E-01    0.3481234821E-02    0.4810281364E+00
    0.4100000000E+04    0.6391600079E+00    0.6077412773E-01    0.9662746710E-01    0.3396587803E-02    0.4829890612E+00
    0.4300000000E+04    0.6411817383E+00    0.5959713960E-01    0.9695720695E-01    0.3317953559E-02    0.4848240062E+00
    0.4500000000E+04    0.6430200077E+00    0.5849415426E-01    0.9726570164E-01    0.3244652180E-02    0.4865461989E+00
    0.4700000000E+04    0.6446981197E+00    0.5745745239E-01    0.9755512953E-01    0.3176105740E-02    0.4881669788E+00
    0.4900000000E+04    0.6462356586E+00    0.5648040889E-01    0.9782736731E-01    0.3111819679E-02    0.4896961326E+00
    0.1000000000E+04    0.5164261825E+00    0.1071337326E+00    0.8346297856E-01    0.6696662478E-02    0.4128137304E+00
    0.3000000000E+04    0.6231583854E+00    0.6907426910E-01    0.9429327195E-01    0.3962346383E-02    0.4701514364E+00
    0.5000000000E+04    0.6469569928E+00    0.5601243986E-01    0.9795755690E-01    0.3081138856E-02    0.4904290499E+00
    0.7000000000E+04    0.6569393305E+00    0.4873242042E-01    0.9995992781E-01    0.2613336260E-02    0.5018547044E+00
    0.9000000000E+04    0.6623570634E+00    0.4387277052E-01    0.1012625770E+00    0.2311292788E-02    0.5094777484E+00
    0.1100000000E+05    0.6657401232E+00    0.4031041039E-01    0.1021933054E+00    0.2095157613E-02    0.5150460170E+00
    0.1300000000E+05    0.6680473868E+00    0.3754415969E-01    0.1028988124E+00    0.1930390337E-02    0.5193519713E+00
    0.1500000000E+05    0.6697191464E+00    0.3531027072E-01    0.1034559151E+00    0.1799273733E-02    0.5228153134E+00
    0.1700000000E+05    0.6709850586E+00    0.3345422733E-01    0.1039092369E+00    0.1691644673E-02    0.5256823566E+00
    0.1900000000E+05    0.6719763525E+00    0.3187838709E-01    0.1042866969E+00    0.1601192704E-02    0.5281086627E+00
    0.2100000000E+05    0.6727733405E+00    0.3051746413E-01    0.1046067673E+00    0.1523760818E-02    0.5301980611E+00
    0.2300000000E+05    0.6734278793E+00    0.2932585258E-01    0.1048822167E+00    0.1456481979E-02    0.5320229116E+00
    0.2500000000E+05    0.6739749227E+00    0.2827055876E-01    0.1051221866E+00    0.1397304952E-02    0.5336354259E+00
    0.2700000000E+05    0.6744388774E+00    0.2732701913E-01    0.1053334146E+00    0.1344717479E-02    0.5350743701E+00
    0.2900000000E+05    0.6748372960E+00    0.2647650358E-01    0.1055209880E+00    0.1297576425E-02    0.5363692240E+00
    0.3100000000E+05    0.6751831209E+00    0.2570443763E-01    0.1056888284E+00    0.1254999196E-02    0.5375428662E+00
    0.3300000000E+05    0.6754861030E+00    0.2499928121E-01    0.1058400124E+00    0.1216291864E-02    0.5386133665E+00
    0.3500000000E+05    0.6757537265E+00    0.2435175778E-01    0.1059769920E+00    0.1180900183E-02    0.5395952147E+00
    0.3700000000E+05    0.6759918311E+00    0.2375431079E-01    0.1061017475E+00    0.1148375317E-02    0.5405001872E+00
    0.3900000000E+05    0.6762050390E+00    0.2320071223E-01    0.1062158979E+00    0.1118349339E-02    0.5413379686E+00
    0.4100000000E+05    0.6763970568E+00    0.2268577526E-01    0.1063207808E+00    0.1090517361E-02    0.5421166077E+00
    0.4300000000E+05    0.6765708907E+00    0.2220513945E-01    0.1064175124E+00    0.1064624262E-02    0.5428428579E+00
    0.4500000000E+05    0.6767290046E+00    0.2175510815E-01    0.1065070319E+00    0.1040454696E-02    0.5435224338E+00
    0.4700000000E+05    0.6768734369E+00    0.2133252332E-01    0.1065901358E+00    0.1017825441E-02    0.5441602088E+00
    0.4900000000E+05    0.6770058886E+00    0.2093466825E-01    0.1066675049E+00    0.9965794789E-03    0.5447603684E+00
    0.1000000000E+05    0.6642246853E+00    0.4196876244E-01    0.1017629089E+00    0.2195218165E-02    0.5124566917E+00
    0.3000000000E+05    0.6750161111E+00    0.2608144640E-01    0.1056071657E+00    0.1275764463E-02    0.5369699710E+00
    0.5000000000E+05    0.6770680778E+00    0.2074426688E-01    0.1067042250E+00    0.9864321682E-03    0.5450474924E+00
    0.7000000000E+05    0.6779344675E+00    0.1780021745E-01    0.1072443371E+00    0.8312466322E-03    0.5494815210E+00
    0.9000000000E+05    0.6784123774E+00    0.1586126280E-01    0.1075672553E+00    0.7308729441E-03    0.5524001892E+00
    0.1100000000E+06    0.6787152793E+00    0.1445783477E-01    0.1077811877E+00    0.6591872639E-03    0.5545153856E+00
    0.1300000000E+06    0.6789244632E+00    0.1338013463E-01    0.1079322143E+00    0.6047211714E-03    0.5561431093E+00
    0.1500000000E+06    0.6790776232E+00    0.1251821669E-01    0.1080435063E+00    0.5615427780E-03    0.5574482858E+00
    0.1700000000E+06    0.6791946267E+00    0.1180807835E-01    0.1081280624E+00    0.5262348292E-03    0.5585266703E+00
    0.1900000000E+06    0.6792869385E+00    0.1120956082E-01    0.1081937663E+00    0.4966717005E-03    0.5594382421E+00
    0.2100000000E+06    0.6793616383E+00    0.1069600476E-01    0.1082456876E+00    0.4714527647E-03    0.5602227763E+00
    0.2300000000E+06    0.6794233345E+00    0.1024891592E-01    0.1082872390E+00    0.4496126766E-03    0.5609078488E+00
    0.2500000000E+06    0.6794751561E+00    0.9855002450E-02    0.1083208039E+00    0.4304616442E-03    0.5615132729E+00
    0.2700000000E+06    0.6795193022E+00    0.9504429795E-02    0.1083480974E+00    0.4134919447E-03    0.5620537082E+00
    0.2900000000E+06    0.6795573638E+00    0.9189742286E-02    0.1083703854E+00    0.3983204870E-03    0.5625402701E+00
    0.3100000000E+06    0.6795905203E+00    0.8905169768E-02    0.1083886227E+00    0.3846520697E-03    0.5629815639E+00
    0.3300000000E+06    0.6796196645E+00    0.8646166505E-02    0.1084035422E+00    0.3722550623E-03    0.5633843720E+00
    0.3500000000E+06    0.6796454850E+00    0.8409095605E-02    0.1084157161E+00    0.3609448331E-03    0.5637541234E+00
    0.3700000000E+06    0.6796685210E+00    0.8191007600E-02    0.1084255970E+00    0.3505721675E-03    0.5640952240E+00
    0.3900000000E+06    0.6796892011E+00    0.7989481646E-02    0.1084335478E+00    0.3410149920E-03    0.5644112923E+00
    0.4100000000E+06    0.6797078701E+00    0.7802509427E-02    0.1084398622E+00    0.3321723451E-03    0.5647053325E+00
    0.4300000000E+06    0.6797248087E+00    0.7628408806E-02    0.1084447806E+00    0.3239599073E-03    0.5649798628E+00
    0.4500000000E+06    0.6797402474E+00    0.7465758614E-02    0.1084485014E+00    0.3163066355E-03    0.5652370124E+00
    0.4700000000E+06    0.6797543776E+00    0.7313348714E-02    0.1084511895E+00    0.3091521933E-03    0.5654785958E+00
    0.4900000000E+06    0.6797673596E+00    0.7170141279E-02    0.1084529834E+00    0.3024449636E-03    0.5657061706E+00
    0.1000000000E+06    0.6785790869E+00    0.1510908598E-01    0.1076841823E+00    0.6923484481E-03    0.5535333690E+00
    0.3000000000E+06    0.6795744938E+00    0.9044000203E-02    0.1083799602E+00    0.3913141413E-03    0.5627661153E+00
    0.5000000000E+06    0.6797734629E+00    0.7101703673E-02    0.1084535822E+00    0.2992449179E-03    0.5658151325E+00
    0.7000000000E+06    0.6798590781E+00    0.6051457324E-02    0.1084391551E+00    0.2505874858E-03    0.5675066220E+00
    0.9000000000E+06    0.6799068478E+00    0.5367846144E-02    0.1084011497E+00    0.2194077339E-03    0.5686319518E+00
    0.1100000000E+07    0.6799373747E+00    0.4876984582E-02    0.1083561159E+00    0.1972852819E-03    0.5694556574E+00
    0.1300000000E+07    0.6799585940E+00    0.4502264928E-02    0.1083096441E+00    0.1805599311E-03    0.5700954012E+00
    0.1500000000E+07    0.6799742148E+00    0.4203942641E-02    0.1082638716E+00    0.1673525628E-03    0.5706127766E+00
    0.1700000000E+07    0.6799862041E+00    0.3959058753E-02    0.1082196390E+00    0.1565870207E-03    0.5710436643E+00
    0.1900000000E+07    0.6799957028E+00    0.3753295846E-02    0.1081772456E+00    0.1475971310E-03    0.5714106181E+00
    0.2100000000E+07    0.6800034183E+00    0.3577197338E-02    0.1081367520E+00    0.1399457084E-03    0.5717286469E+00
    0.2300000000E+07    0.6800098129E+00    0.3424230877E-02    0.1080981108E+00    0.1333324756E-03    0.5720081926E+00
    0.2500000000E+07    0.6800152014E+00    0.3289718797E-02    0.1080612283E+00    0.1275435115E-03    0.5722567834E+00
    0.2700000000E+07    0.6800198056E+00    0.3170211115E-02    0.1080259932E+00    0.1224217740E-03    0.5724800080E+00
    0.2900000000E+07    0.6800237865E+00    0.3063099691E-02    0.1079922913E+00    0.1178490481E-03    0.5726821179E+00
    0.3100000000E+07    0.6800272638E+00    0.2966371037E-02    0.1079600119E+00    0.1137344311E-03    0.5728664148E+00
    0.3300000000E+07    0.6800303282E+00    0.2878442467E-02    0.1079290510E+00    0.1100067312E-03    0.5730355092E+00
    0.3500000000E+07    0.6800330498E+00    0.2798050282E-02    0.1078993127E+00    0.1066092994E-03    0.5731914970E+00
    0.3700000000E+07    0.6800354836E+00    0.2724171526E-02    0.1078707092E+00    0.1034964256E-03    0.5733360841E+00
    0.3900000000E+07    0.6800376736E+00    0.2655967991E-02    0.1078431605E+00    0.1006307680E-03    0.5734706756E+00
    0.4100000000E+07    0.6800396549E+00    0.2592745381E-02    0.1078165936E+00    0.9798148447E-04    0.5735964413E+00
    0.4300000000E+07    0.6800414565E+00    0.2533922992E-02    0.1077909426E+00    0.9552284837E-04    0.5737143643E+00
    0.4500000000E+07    0.6800431019E+00    0.2479010862E-02    0.1077661473E+00    0.9323320892E-04    0.5738252783E+00
    0.4700000000E+07    0.6800446109E+00    0.2427592294E-02    0.1077421528E+00    0.9109419799E-04    0.5739298954E+00
    0.4900000000E+07    0.6800459999E+00    0.2379310338E-02    0.1077189095E+00    0.8909011777E-04    0.5740288286E+00
    0.1000000000E+07    0.6799236221E+00    0.5104357316E-02    0.1083790374E+00    0.2075036232E-03    0.5690722608E+00
    0.3000000000E+07    0.6800255819E+00    0.3013545024E-02    0.1079759805E+00    0.1157393176E-03    0.5727763160E+00
    0.5000000000E+07    0.6800466540E+00    0.2356247724E-02    0.1077075551E+00    0.8813438134E-04    0.5740763325E+00
    0.7000000000E+07    0.6800559048E+00    0.2003207831E-02    0.1075107153E+00    0.7363562955E-04    0.5748261559E+00
    0.9000000000E+07    0.6800611492E+00    0.1774291542E-02    0.1073551048E+00    0.6437803899E-04    0.5753399692E+00
    0.1100000000E+08    0.6800645467E+00    0.1610342637E-02    0.1072262509E+00    0.5782554827E-04    0.5757252168E+00
    0.1300000000E+08    0.6800669371E+00    0.1485421162E-02    0.1071161843E+00    0.5288045866E-04    0.5760305736E+00
    0.1500000000E+08    0.6800687165E+00    0.1386113524E-02    0.1070200503E+00    0.4898091287E-04    0.5762819213E+00
    0.1700000000E+08    0.6800700961E+00    0.1304690418E-02    0.1069346705E+00    0.4580587454E-04    0.5764945453E+00
    0.1900000000E+08    0.6800711996E+00    0.1236341259E-02    0.1068578489E+00    0.4315697335E-04    0.5766781723E+00
    0.2100000000E+08    0.6800721040E+00    0.1177893799E-02    0.1067880036E+00    0.4090422068E-04    0.5768393478E+00
    0.2300000000E+08    0.6800728599E+00    0.1127159695E-02    0.1067239568E+00    0.3895844706E-04    0.5769826725E+00
    0.2500000000E+08    0.6800735020E+00    0.1082573738E-02    0.1066648075E+00    0.3725619558E-04    0.5771114947E+00
    0.2700000000E+08    0.6800740549E+00    0.1042982679E-02    0.1066098506E+00    0.3575092552E-04    0.5772283223E+00
