  Pressure (Pa) 22mC5-400 (mol/kg) 2mC6-400 (mol/kg) 3mC6-400 (mol/kg) 33mC5-400 (mol/kg) C7-400 (mol/kg)
    0.1000000000E+01    0.3171538022E-02    0.3168930532E-02    0.3685088674E-02    0.1290091001E-03    0.1708523943E-02
    0.3000000000E+01    0.9368045596E-02    0.9241369839E-02    0.1079877783E-01    0.3762391696E-03    0.5007175329E-02
    0.5000000000E+01    0.1537803536E-01    0.1498126864E-01    0.1759078568E-01    0.6099523555E-03    0.8157323840E-02
    0.7000000000E+01    0.2121150713E-01    0.2041219200E-01    0.2408347661E-01    0.8311056703E-03    0.1116927952E-01
    0.9000000000E+01    0.2687773799E-01    0.2555558610E-01    0.3029716652E-01    0.1040570048E-02    0.1405240875E-01
    0.1100000000E+02    0.3238534656E-01    0.3043100952E-01    0.3625035291E-01    0.1239139747E-02    0.1681524017E-01
    0.1300000000E+02    0.3774235045E-01    0.3505633502E-01    0.4195991461E-01    0.1427540550E-02    0.1946555669E-01
    0.1500000000E+02    0.4295621784E-01    0.3944792589E-01    0.4744128567E-01    0.1606436932E-02    0.2201047552E-01
    0.1700000000E+02    0.4803391391E-01    0.4362079073E-01    0.5270860736E-01    0.1776438349E-02    0.2445651818E-01
    0.1900000000E+02    0.5298194256E-01    0.4758871955E-01    0.5777486123E-01    0.1938104769E-02    0.2680967181E-01
    0.2100000000E+02    0.5780638411E-01    0.5136440382E-01    0.6265198613E-01    0.2091951550E-02    0.2907544305E-01
    0.2300000000E+02    0.6251292936E-01    0.5495954268E-01    0.6735098132E-01    0.2238453753E-02    0.3125890549E-01
    0.2500000000E+02    0.6710691042E-01    0.5838493700E-01    0.7188199747E-01    0.2378049970E-02    0.3336474167E-01
    0.2700000000E+02    0.7159332862E-01    0.6165057312E-01    0.7625441741E-01    0.2511145714E-02    0.3539728018E-01
    0.2900000000E+02    0.7597687994E-01    0.6476569726E-01    0.8047692766E-01    0.2638116453E-02    0.3736052869E-01
    0.3100000000E+02    0.8026197807E-01    0.6773888208E-01    0.8455758221E-01    0.2759310307E-02    0.3925820330E-01
    0.3300000000E+02    0.8445277540E-01    0.7057808614E-01    0.8850385936E-01    0.2875050464E-02    0.4109375470E-01
    0.3500000000E+02    0.8855318226E-01    0.7329070722E-01    0.9232271252E-01    0.2985637350E-02    0.4287039163E-01
    0.3700000000E+02    0.9256688434E-01    0.7588363022E-01    0.9602061569E-01    0.3091350565E-02    0.4459110180E-01
    0.3900000000E+02    0.9649735879E-01    0.7836327022E-01    0.9960360438E-01    0.3192450642E-02    0.4625867073E-01
    0.4100000000E+02    0.1003478888E+00    0.8073561135E-01    0.1030773122E+00    0.3289180616E-02    0.4787569869E-01
    0.4300000000E+02    0.1041215771E+00    0.8300624180E-01    0.1064470043E+00    0.3381767453E-02    0.4944461591E-01
    0.4500000000E+02    0.1078213583E+00    0.8518038559E-01    0.1097176065E+00    0.3470423336E-02    0.5096769636E-01
    0.4700000000E+02    0.1114500102E+00    0.8726293131E-01    0.1128937333E+00    0.3555346832E-02    0.5244707023E-01
    0.4900000000E+02    0.1150101642E+00    0.8925845813E-01    0.1159797114E+00    0.3636723949E-02    0.5388473512E-01
    0.1000000000E+02    0.2965085551E-01    0.2802563976E-01    0.3330523194E-01    0.1141169854E-02    0.1544835877E-01
    0.3000000000E+02    0.7813147024E-01    0.6626952093E-01    0.8253450663E-01    0.2699414733E-02    0.3831734113E-01
    0.5000000000E+02    0.1167653391E+00    0.9022494173E-01    0.1174901737E+00    0.3676137549E-02    0.5458851725E-01
    0.7000000000E+02    0.1488149554E+00    0.1058979780E+00    0.1438318308E+00    0.4315271392E-02    0.6687397599E-01
    0.9000000000E+02    0.1761900847E+00    0.1164237114E+00    0.1645472018E+00    0.4744210937E-02    0.7655359911E-01
    0.1100000000E+03    0.2000877335E+00    0.1235837449E+00    0.1813679278E+00    0.5035412966E-02    0.8442767748E-01
    0.1300000000E+03    0.2212998248E+00    0.1284569294E+00    0.1953699861E+00    0.5232803995E-02    0.9099380401E-01
    0.1500000000E+03    0.2403738310E+00    0.1317295953E+00    0.2072590274E+00    0.5364368598E-02    0.9657851826E-01
    0.1700000000E+03    0.2577023317E+00    0.1338558892E+00    0.2175182265E+00    0.5448655723E-02    0.1014055486E+00
    0.1900000000E+03    0.2735756968E+00    0.1351461072E+00    0.2264902994E+00    0.5498363746E-02    0.1056336830E+00
    0.2100000000E+03    0.2882144937E+00    0.1358179506E+00    0.2344255829E+00    0.5522421393E-02    0.1093789782E+00
    0.2300000000E+03    0.3017901909E+00    0.1360275796E+00    0.2415115378E+00    0.5527248965E-02    0.1127283937E+00
    0.2500000000E+03    0.3144388202E+00    0.1358891230E+00    0.2478915646E+00    0.5517551197E-02    0.1157484895E+00
    0.2700000000E+03    0.3262702515E+00    0.1354873242E+00    0.2536774031E+00    0.5496831508E-02    0.1184911606E+00
    0.2900000000E+03    0.3373746457E+00    0.1348859621E+00    0.2589575403E+00    0.5467734721E-02    0.1209975265E+00
    0.3100000000E+03    0.3478270446E+00    0.1341335917E+00    0.2638030543E+00    0.5432280933E-02    0.1233006360E+00
    0.3300000000E+03    0.3576907007E+00    0.1332675400E+00    0.2682717669E+00    0.5392028491E-02    0.1254273892E+00
    0.3500000000E+03    0.3670195352E+00    0.1323167395E+00    0.2724112507E+00    0.5348189674E-02    0.1273999307E+00
    0.3700000000E+03    0.3758599820E+00    0.1313037695E+00    0.2762610465E+00    0.5301714193E-02    0.1292366766E+00
    0.3900000000E+03    0.3842523927E+00    0.1302463495E+00    0.2798543227E+00    0.5253350346E-02    0.1309530835E+00
    0.4100000000E+03    0.3922321193E+00    0.1291584459E+00    0.2832191360E+00    0.5203690425E-02    0.1325622331E+00
    0.4300000000E+03    0.3998303623E+00    0.1280511023E+00    0.2863794006E+00    0.5153204837E-02    0.1340752817E+00
    0.4500000000E+03    0.4070748391E+00    0.1269330680E+00    0.2893556425E+00    0.5102268025E-02    0.1355018100E+00
    0.4700000000E+03    0.4139903197E+00    0.1258112805E+00    0.2921655929E+00    0.5051178350E-02    0.1368500987E+00
    0.4900000000E+03    0.4205990585E+00    0.1246912374E+00    0.2948246594E+00    0.5000173502E-02    0.1381273470E+00
    0.1000000000E+03    0.1885169552E+00    0.1203451942E+00    0.1733660580E+00    0.4903803841E-02    0.8068011097E-01
    0.3000000000E+03    0.3426781473E+00    0.1345260946E+00    0.2614307405E+00    0.5450695776E-02    0.1221726813E+00
    0.5000000000E+03    0.4237947542E+00    0.1241332669E+00    0.2961018854E+00    0.4974763588E-02    0.1387413290E+00
    0.7000000000E+03    0.4756072475E+00    0.1137222915E+00    0.3162472262E+00    0.4499900189E-02    0.1484716407E+00
    0.9000000000E+03    0.5114119156E+00    0.1051457794E+00    0.3299455127E+00    0.4107542649E-02    0.1551461974E+00
    0.1100000000E+04    0.5374145631E+00    0.9820661559E-01    0.3400935014E+00    0.3789983765E-02    0.1601282342E+00
    0.1300000000E+04    0.5570092320E+00    0.9252849455E-01    0.3480289378E+00    0.3530749211E-02    0.1640501104E+00
    0.1500000000E+04    0.5722149492E+00    0.8780259184E-01    0.3544697727E+00    0.3315926210E-02    0.1672525572E+00
    0.1700000000E+04    0.5843025790E+00    0.8380206008E-01    0.3598419994E+00    0.3135106712E-02    0.1699384785E+00
    0.1900000000E+04    0.5941073322E+00    0.8036325475E-01    0.3644172547E+00    0.2980684877E-02    0.1722376879E+00
    0.2100000000E+04    0.6021977500E+00    0.7736729621E-01    0.3683784112E+00    0.2847084097E-02    0.1742378497E+00
    0.2300000000E+04    0.6089724873E+00    0.7472652396E-01    0.3718539188E+00    0.2730165441E-02    0.1760007178E+00
    0.2500000000E+04    0.6147182900E+00    0.7237518050E-01    0.3749371288E+00    0.2626810597E-02    0.1775712947E+00
    0.2700000000E+04    0.6196460384E+00    0.7026308554E-01    0.3776978116E+00    0.2534633622E-02    0.1789833018E+00
    0.2900000000E+04    0.6239138765E+00    0.6835131709E-01    0.3801893484E+00    0.2451781481E-02    0.1802626032E+00
    0.3100000000E+04    0.6276424699E+00    0.6660922558E-01    0.3824534015E+00    0.2376794687E-02    0.1814294321E+00
    0.3300000000E+04    0.6309253205E+00    0.6501233826E-01    0.3845230476E+00    0.2308508670E-02    0.1824998885E+00
    0.3500000000E+04    0.6338358920E+00    0.6354086487E-01    0.3864249400E+00    0.2245982989E-02    0.1834869738E+00
    0.3700000000E+04    0.6364326299E+00    0.6217861554E-01    0.3881808383E+00    0.2188449791E-02    0.1844013245E+00
    0.3900000000E+04    0.6387625611E+00    0.6091220527E-01    0.3898087122E+00    0.2135275781E-02    0.1852517422E+00
    0.4100000000E+04    0.6408639164E+00    0.5973046091E-01    0.3913235556E+00    0.2085933772E-02    0.1860455851E+00
    0.4300000000E+04    0.6427680694E+00    0.5862397320E-01    0.3927379946E+00    0.2039981155E-02    0.1867890614E+00
    0.4500000000E+04    0.6445009897E+00    0.5758475410E-01    0.3940627505E+00    0.1997043398E-02    0.1874874521E+00
    0.4700000000E+04    0.6460843447E+00    0.5660597173E-01    0.3953069958E+00    0.1956801277E-02    0.1881452834E+00
    0.4900000000E+04    0.6475363451E+00    0.5568174308E-01    0.3964786322E+00    0.1918980879E-02    0.1887664613E+00
    0.1000000000E+04    0.5253833029E+00    0.1014958547E+00    0.3353589925E+00    0.3940463614E-02    0.1577995340E+00
    0.3000000000E+04    0.6258391941E+00    0.6746071613E-01    0.3813475710E+00    0.2413383673E-02    0.1808589875E+00
    0.5000000000E+04    0.6482179973E+00    0.5523846641E-01    0.3970393986E+00    0.1900903643E-02    0.1890643827E+00
    0.7000000000E+04    0.6576867928E+00    0.4829402898E-01    0.4057102777E+00    0.1623063625E-02    0.1937280331E+00
    0.9000000000E+04    0.6628615003E+00    0.4361111428E-01    0.4114126110E+00    0.1441472408E-02    0.1968653037E+00
    0.1100000000E+05    0.6661097564E+00    0.4015683607E-01    0.4155290433E+00    0.1310500616E-02    0.1991744375E+00
    0.1300000000E+05    0.6683340274E+00    0.3746310963E-01    0.4186800641E+00    0.1210102346E-02    0.2009726967E+00
    0.1500000000E+05    0.6699507858E+00    0.3528103944E-01    0.4211916310E+00    0.1129879449E-02    0.2024285420E+00
    0.1700000000E+05    0.6711781934E+00    0.3346372918E-01    0.4232537353E+00    0.1063816865E-02    0.2036411071E+00
    0.1900000000E+05    0.6721413640E+00    0.3191783772E-01    0.4249856544E+00    0.1008155274E-02    0.2046731725E+00
    0.2100000000E+05    0.6729171057E+00    0.3058068767E-01    0.4264665763E+00    0.9604052798E-03    0.2055667547E+00
    0.2300000000E+05    0.6735551453E+00    0.2940834562E-01    0.4277514221E+00    0.9188426522E-03    0.2063512135E+00
    0.2500000000E+05    0.6740890793E+00    0.2836893906E-01    0.4288796446E+00    0.8822294039E-03    0.2070477889E+00
    0.2700000000E+05    0.6745424150E+00    0.2743868388E-01    0.4298804156E+00    0.8496500966E-03    0.2076722912E+00
    0.2900000000E+05    0.6749320882E+00    0.2659940850E-01    0.4307758335E+00    0.8204109584E-03    0.2082367730E+00
    0.3100000000E+05    0.6752706072E+00    0.2583694901E-01    0.4315829859E+00    0.7939751425E-03    0.2087506108E+00
    0.3300000000E+05    0.6755674092E+00    0.2514007385E-01    0.4323153221E+00    0.7699197352E-03    0.2092212274E+00
    0.3500000000E+05    0.6758297471E+00    0.2449974270E-01    0.4329835916E+00    0.7479063634E-03    0.2096545890E+00
    0.3700000000E+05    0.6760632868E+00    0.2390858290E-01    0.4335965032E+00    0.7276605860E-03    0.2100555549E+00
    0.3900000000E+05    0.6762725177E+00    0.2336051175E-01    0.4341611974E+00    0.7089571204E-03    0.2104281301E+00
    0.4100000000E+05    0.6764610433E+00    0.2285045860E-01    0.4346835915E+00    0.6916090471E-03    0.2107756505E+00
    0.4300000000E+05    0.6766317890E+00    0.2237415714E-01    0.4351686363E+00    0.6754597807E-03    0.2111009204E+00
    0.4500000000E+05    0.6767871544E+00    0.2192798765E-01    0.4356205100E+00    0.6603770081E-03    0.2114063178E+00
    0.4700000000E+05    0.6769291262E+00    0.2150885563E-01    0.4360427665E+00    0.6462480462E-03    0.2116938747E+00
    0.4900000000E+05    0.6770593633E+00    0.2111409727E-01    0.4364384501E+00    0.6329762423E-03    0.2119653397E+00
    0.1000000000E+05    0.6646528969E+00    0.4176701023E-01    0.4136203710E+00    0.1371238884E-02    0.1980985679E+00
    0.3000000000E+05    0.6751070923E+00    0.2620933750E-01    0.4311895297E+00    0.8068713411E-03    0.2084995193E+00
    0.5000000000E+05    0.6771205265E+00    0.2092512486E-01    0.4366271618E+00    0.6266352466E-03    0.2120955190E+00
    0.7000000000E+05    0.6779735048E+00    0.1799872919E-01    0.4394876887E+00    0.5294791316E-03    0.2141341376E+00
    0.9000000000E+05    0.6784446537E+00    0.1606667687E-01    0.4413058427E+00    0.4664525713E-03    0.2155105056E+00
    0.1100000000E+06    0.6787434424E+00    0.1466574885E-01    0.4425836867E+00    0.4213455538E-03    0.2165293799E+00
    0.1300000000E+06    0.6789498266E+00    0.1358845373E-01    0.4435401130E+00    0.3870182729E-03    0.2173280058E+00
    0.1500000000E+06    0.6791009350E+00    0.1272585601E-01    0.4442876025E+00    0.3597692331E-03    0.2179789143E+00
    0.1700000000E+06    0.6792163551E+00    0.1201445069E-01    0.4448905559E+00    0.3374623152E-03    0.2185246870E+00
    0.1900000000E+06    0.6793073979E+00    0.1141434456E-01    0.4453888000E+00    0.3187669117E-03    0.2189922663E+00
    0.2100000000E+06    0.6793810508E+00    0.1089902826E-01    0.4458084330E+00    0.3028052124E-03    0.2193996848E+00
    0.2300000000E+06    0.6794418639E+00    0.1045009572E-01    0.4461673475E+00    0.2889715945E-03    0.2197595519E+00
    0.2500000000E+06    0.6794929269E+00    0.1005430835E-01    0.4464782637E+00    0.2768329219E-03    0.2200810005E+00
    0.2700000000E+06    0.6795364117E+00    0.9701864259E-02    0.4467504987E+00    0.2660701314E-03    0.2203708387E+00
    0.2900000000E+06    0.6795738899E+00    0.9385327927E-02    0.4469910489E+00    0.2564423091E-03    0.2206342655E+00
    0.3100000000E+06    0.6796065262E+00    0.9098941507E-02    0.4472052806E+00    0.2477636920E-03    0.2208753329E+00
    0.3300000000E+06    0.6796352026E+00    0.8838166570E-02    0.4473973856E+00    0.2398884339E-03    0.2210972551E+00
    0.3500000000E+06    0.6796605993E+00    0.8599370299E-02    0.4475706905E+00    0.2327002179E-03    0.2213026210E+00
    0.3700000000E+06    0.6796832487E+00    0.8379605188E-02    0.4477278720E+00    0.2261049915E-03    0.2214935434E+00
    0.3900000000E+06    0.6797035741E+00    0.8176450966E-02    0.4478711107E+00    0.2200257732E-03    0.2216717677E+00
    0.4100000000E+06    0.6797219162E+00    0.7987898985E-02    0.4480022026E+00    0.2143988667E-03    0.2218387508E+00
    0.4300000000E+06    0.6797385519E+00    0.7812266192E-02    0.4481226415E+00    0.2091710527E-03    0.2219957199E+00
    0.4500000000E+06    0.6797537090E+00    0.7648130129E-02    0.4482336809E+00    0.2042974737E-03    0.2221437184E+00
    0.4700000000E+06    0.6797675764E+00    0.7494279147E-02    0.4483363812E+00    0.1997400182E-03    0.2222836394E+00
    0.4900000000E+06    0.6797803122E+00    0.7349673785E-02    0.4484316461E+00    0.1954660707E-03    0.2224162532E+00
    0.1000000000E+06    0.6786090871E+00    0.1531610992E-01    0.4419950109E+00    0.4422217298E-03    0.2160538747E+00
    0.3000000000E+06    0.6795907526E+00    0.9238673978E-02    0.4471011692E+00    0.2519942606E-03    0.2207573764E+00
    0.5000000000E+06    0.6797862982E+00    0.7280552869E-02    0.4484767368E+00    0.1934264778E-03    0.2224800325E+00
    0.7000000000E+06    0.6798701280E+00    0.6218506478E-02    0.4491290388E+00    0.1623736321E-03    0.2234960679E+00
    0.9000000000E+06    0.6799167426E+00    0.5525759524E-02    0.4495057476E+00    0.1424309229E-03    0.2242031550E+00
    0.1100000000E+07    0.6799464383E+00    0.5027535827E-02    0.4497466465E+00    0.1282574330E-03    0.2247396297E+00
    0.1300000000E+07    0.6799670198E+00    0.4646697738E-02    0.4499104045E+00    0.1175271318E-03    0.2251689423E+00
    0.1500000000E+07    0.6799821296E+00    0.4343169745E-02    0.4500261673E+00    0.1090440826E-03    0.2255251643E+00
    0.1700000000E+07    0.6799936968E+00    0.4093774887E-02    0.4501101079E+00    0.1021225464E-03    0.2258285845E+00
    0.1900000000E+07    0.6800028386E+00    0.3884045513E-02    0.4501719358E+00    0.9633758873E-04    0.2260922049E+00
    0.2100000000E+07    0.6800102467E+00    0.3704417544E-02    0.4502178347E+00    0.9141008793E-04    0.2263248297E+00
    0.2300000000E+07    0.6800163726E+00    0.3548279297E-02    0.4502519281E+00    0.8714817733E-04    0.2265326814E+00
    0.2500000000E+07    0.6800215234E+00    0.3410893020E-02    0.4502770688E+00    0.8341506998E-04    0.2267203115E+00
    0.2700000000E+07    0.6800259153E+00    0.3288762210E-02    0.4502952914E+00    0.8011028294E-04    0.2268911442E+00
    0.2900000000E+07    0.6800297049E+00    0.3179242033E-02    0.4503080836E+00    0.7715813104E-04    0.2270478171E+00
    0.3100000000E+07    0.6800330085E+00    0.3080289583E-02    0.4503165566E+00    0.7450038296E-04    0.2271924024E+00
    0.3300000000E+07    0.6800359143E+00    0.2990298249E-02    0.4503215563E+00    0.7209141037E-04    0.2273265565E+00
    0.3500000000E+07    0.6800384902E+00    0.2907984641E-02    0.4503237362E+00    0.6989488829E-04    0.2274516230E+00
    0.3700000000E+07    0.6800407896E+00    0.2832309402E-02    0.4503236085E+00    0.6788149271E-04    0.2275687062E+00
    0.3900000000E+07    0.6800428548E+00    0.2762420544E-02    0.4503215797E+00    0.6602725804E-04    0.2276787239E+00
    0.4100000000E+07    0.6800447201E+00    0.2697612078E-02    0.4503179757E+00    0.6431238188E-04    0.2277824474E+00
    0.4300000000E+07    0.6800464131E+00    0.2637293307E-02    0.4503130602E+00    0.6272034016E-04    0.2278805299E+00
    0.4500000000E+07    0.6800479569E+00    0.2580965659E-02    0.4503070489E+00    0.6123722158E-04    0.2279735300E+00
    0.4700000000E+07    0.6800493704E+00    0.2528204978E-02    0.4503001190E+00    0.5985122000E-04    0.2280619285E+00
    0.4900000000E+07    0.6800506695E+00    0.2478647807E-02    0.4502924175E+00    0.5855224229E-04    0.2281461424E+00
    0.1000000000E+07    0.6799330712E+00    0.5258407135E-02    0.4496384941E+00    0.1348067785E-03    0.2244877701E+00
    0.3000000000E+07    0.6800314114E+00    0.3128553955E-02    0.4503128019E+00    0.7579555908E-04    0.2271215088E+00
    0.5000000000E+07    0.6800512804E+00    0.2454970860E-02    0.4502883164E+00    0.5793262485E-04    0.2281867955E+00
    0.7000000000E+07    0.6800598608E+00    0.2092079471E-02    0.4501868800E+00    0.4852090441E-04    0.2288482347E+00
    0.9000000000E+07    0.6800646584E+00    0.1856281069E-02    0.4500740455E+00    0.4249836019E-04    0.2293247908E+00
    0.1100000000E+08    0.6800677287E+00    0.1687131409E-02    0.4499638747E+00    0.3822852338E-04    0.2296958569E+00
    0.1300000000E+08    0.6800698651E+00    0.1558078765E-02    0.4498598380E+00    0.3500176947E-04    0.2299989630E+00
    0.1500000000E+08    0.6800714391E+00    0.1455374079E-02    0.4497625094E+00    0.3245435295E-04    0.2302547492E+00
    0.1700000000E+08    0.6800726480E+00    0.1371085607E-02    0.4496715846E+00    0.3037818741E-04    0.2304757511E+00
    0.1900000000E+08    0.6800736062E+00    0.1300271908E-02    0.4495865106E+00    0.2864456387E-04    0.2306701390E+00
    0.2100000000E+08    0.6800743848E+00    0.1239671634E-02    0.4495066995E+00    0.2716906635E-04    0.2308435269E+00
    0.2300000000E+08    0.6800750303E+00    0.1187033258E-02    0.4494316007E+00    0.2589374141E-04    0.2309999345E+00
    0.2500000000E+08    0.6800755744E+00    0.1140745264E-02    0.4493607223E+00    0.2477731739E-04    0.2311423364E+00
    0.2700000000E+08    0.6800760393E+00    0.1099619539E-02    0.4492936331E+00    0.2378950507E-04    0.2312729940E+00
