  Pressure (Pa) 22mC5-400 (mol/kg) 2mC6-400 (mol/kg) 3mC6-400 (mol/kg) 33mC5-400 (mol/kg) C7-400 (mol/kg)
    0.1000000000E+01    0.3161847897E-02    0.6307229106E-02    0.5242521661E-03    0.1283855956E-03    0.5104341381E-02
    0.3000000000E+01    0.9284997009E-02    0.1822386319E-01    0.1524128257E-02    0.3709696153E-03    0.1484156379E-01
    0.5000000000E+01    0.1515809858E-01    0.2928615890E-01    0.2464345125E-02    0.5961838391E-03    0.2400031348E-01
    0.7000000000E+01    0.2080006827E-01    0.3957547983E-01    0.3350434007E-02    0.8056817574E-03    0.3263415213E-01
    0.9000000000E+01    0.2622789856E-01    0.4916335571E-01    0.4187253115E-02    0.1000916980E-02    0.4079012872E-01
    0.1100000000E+02    0.3145689880E-01    0.5811291617E-01    0.4979087469E-02    0.1183172386E-02    0.4850974519E-01
    0.1300000000E+02    0.3650090012E-01    0.6648008116E-01    0.5729731436E-02    0.1353584329E-02    0.5582975476E-01
    0.1500000000E+02    0.4137243105E-01    0.7431455491E-01    0.6442557374E-02    0.1513162836E-02    0.6278282605E-01
    0.1700000000E+02    0.4608286859E-01    0.8166066027E-01    0.7120573039E-02    0.1662808577E-02    0.6939809843E-01
    0.1900000000E+02    0.5064256878E-01    0.8855804247E-01    0.7766469851E-02    0.1803327162E-02    0.7570164896E-01
    0.2100000000E+02    0.5506097973E-01    0.9504226555E-01    0.8382663668E-02    0.1935441273E-02    0.8171688695E-01
    0.2300000000E+02    0.5934673997E-01    0.1011453201E+00    0.8971329396E-02    0.2059800974E-02    0.8746488884E-01
    0.2500000000E+02    0.6350776423E-01    0.1068960574E+00    0.9534430498E-02    0.2176992541E-02    0.9296468373E-01
    0.2700000000E+02    0.6755131857E-01    0.1123205618E+00    0.1007374426E-01    0.2287546028E-02    0.9823349789E-01
    0.2900000000E+02    0.7148408614E-01    0.1174424715E+00    0.1059088349E-01    0.2391941789E-02    0.1032869649E+00
    0.3100000000E+02    0.7531222528E-01    0.1222832562E+00    0.1108731527E-01    0.2490616115E-02    0.1081393068E+00
    0.3300000000E+02    0.7904142061E-01    0.1268624577E+00    0.1156437719E-01    0.2583966129E-02    0.1128034916E+00
    0.3500000000E+02    0.8267692832E-01    0.1311978993E+00    0.1202329139E-01    0.2672354033E-02    0.1172913692E+00
    0.3700000000E+02    0.8622361630E-01    0.1353058685E+00    0.1246517692E-01    0.2756110835E-02    0.1216137906E+00
    0.3900000000E+02    0.8968599986E-01    0.1392012775E+00    0.1289106043E-01    0.2835539591E-02    0.1257807117E+00
    0.4100000000E+02    0.9306827354E-01    0.1428978035E+00    0.1330188562E-01    0.2910918271E-02    0.1298012850E+00
    0.4300000000E+02    0.9637433950E-01    0.1464080124E+00    0.1369852151E-01    0.2982502268E-02    0.1336839394E+00
    0.4500000000E+02    0.9960783293E-01    0.1497434683E+00    0.1408176977E-01    0.3050526620E-02    0.1374364510E+00
    0.4700000000E+02    0.1027721449E+00    0.1529148301E+00    0.1445237118E-01    0.3115207976E-02    0.1410660059E+00
    0.4900000000E+02    0.1058704428E+00    0.1559319373E+00    0.1481101134E-01    0.3176746334E-02    0.1445792559E+00
    0.1000000000E+02    0.2886635554E-01    0.5371427391E-01    0.4588545603E-02    0.1093592958E-02    0.4470208197E-01
    0.3000000000E+02    0.7341086843E-01    0.1198967405E+00    0.1084160135E-01    0.2441968446E-02    0.1057374383E+00
    0.5000000000E+02    0.1073957697E+00    0.1573855152E+00    0.1498604639E-01    0.3206395222E-02    0.1462942112E+00
    0.7000000000E+02    0.1350631128E+00    0.1802376453E+00    0.1799087243E-01    0.3672562957E-02    0.1757691359E+00
    0.9000000000E+02    0.1585642041E+00    0.1947605869E+00    0.2030268189E-01    0.3968713610E-02    0.1984968972E+00
    0.1100000000E+03    0.1791175188E+00    0.2041750737E+00    0.2215753963E-01    0.4160373919E-02    0.2167706179E+00
    0.1300000000E+03    0.1974712152E+00    0.2102823127E+00    0.2369277603E-01    0.4284223407E-02    0.2319253805E+00
    0.1500000000E+03    0.2141139805E+00    0.2141601568E+00    0.2499416652E-01    0.4362236922E-02    0.2447957090E+00
    0.1700000000E+03    0.2293810813E+00    0.2164882255E+00    0.2611830820E-01    0.4408290066E-02    0.2559326596E+00
    0.1900000000E+03    0.2435119321E+00    0.2177132208E+00    0.2710421351E-01    0.4431518520E-02    0.2657163538E+00
    0.2100000000E+03    0.2566833131E+00    0.2181388184E+00    0.2797974913E-01    0.4438145165E-02    0.2744185080E+00
    0.2300000000E+03    0.2690295189E+00    0.2179772773E+00    0.2876541836E-01    0.4432529451E-02    0.2822391813E+00
    0.2500000000E+03    0.2806550996E+00    0.2173804363E+00    0.2947668844E-01    0.4417797898E-02    0.2893293979E+00
    0.2700000000E+03    0.2916432081E+00    0.2164590485E+00    0.3012547948E-01    0.4396237589E-02    0.2958056255E+00
    0.2900000000E+03    0.3020612365E+00    0.2152952395E+00    0.3072114914E-01    0.4369549853E-02    0.3017593559E+00
    0.3100000000E+03    0.3119647228E+00    0.2139507617E+00    0.3127116291E-01    0.4339018481E-02    0.3072636277E+00
    0.3300000000E+03    0.3214001233E+00    0.2124726001E+00    0.3178156181E-01    0.4305624029E-02    0.3123775812E+00
    0.3500000000E+03    0.3304068186E+00    0.2108968597E+00    0.3225729609E-01    0.4270123190E-02    0.3171497083E+00
    0.3700000000E+03    0.3390185936E+00    0.2092515156E+00    0.3270246794E-01    0.4233104976E-02    0.3216202187E+00
    0.3900000000E+03    0.3472647458E+00    0.2075583902E+00    0.3312051128E-01    0.4195031172E-02    0.3258227915E+00
    0.4100000000E+03    0.3551709280E+00    0.2058345969E+00    0.3351432682E-01    0.4156265914E-02    0.3297858934E+00
    0.4300000000E+03    0.3627597987E+00    0.2040936096E+00    0.3388638516E-01    0.4117097623E-02    0.3335337842E+00
    0.4500000000E+03    0.3700515288E+00    0.2023460636E+00    0.3423880642E-01    0.4077755472E-02    0.3370872942E+00
    0.4700000000E+03    0.3770642020E+00    0.2006003633E+00    0.3457342248E-01    0.4038421892E-02    0.3404644318E+00
    0.4900000000E+03    0.3838141340E+00    0.1988631470E+00    0.3489182618E-01    0.3999242169E-02    0.3436808640E+00
    0.1000000000E+03    0.1691547435E+00    0.1999713237E+00    0.2127706031E-01    0.4074855511E-02    0.2080916723E+00
    0.3000000000E+03    0.3070742076E+00    0.2146423538E+00    0.3100145650E-01    0.4354697296E-02    0.3045636953E+00
    0.5000000000E+03    0.3870952515E+00    0.1979994024E+00    0.3504539060E-01    0.3979747115E-02    0.3452331673E+00
    0.7000000000E+03    0.4419147089E+00    0.1819541140E+00    0.3752729558E-01    0.3615606600E-02    0.3704209570E+00
    0.9000000000E+03    0.4816535168E+00    0.1687007807E+00    0.3928893780E-01    0.3312114733E-02    0.3884241735E+00
    0.1100000000E+04    0.5114708721E+00    0.1579176635E+00    0.4063929327E-01    0.3063898612E-02    0.4023038485E+00
    0.1300000000E+04    0.5344445126E+00    0.1490597801E+00    0.4172505999E-01    0.2859646950E-02    0.4135194111E+00
    0.1500000000E+04    0.5525410783E+00    0.1416727875E+00    0.4262709473E-01    0.2689478739E-02    0.4228781422E+00
    0.1700000000E+04    0.5670698515E+00    0.1354159958E+00    0.4339456233E-01    0.2545773033E-02    0.4308724416E+00
    0.1900000000E+04    0.5789294244E+00    0.1300393316E+00    0.4405951747E-01    0.2422821860E-02    0.4378242401E+00
    0.2100000000E+04    0.5887523126E+00    0.1253587154E+00    0.4464397945E-01    0.2316359159E-02    0.4439552383E+00
    0.2300000000E+04    0.5969936757E+00    0.1212371144E+00    0.4516370060E-01    0.2223172015E-02    0.4494244043E+00
    0.2500000000E+04    0.6039875588E+00    0.1175710670E+00    0.4563032199E-01    0.2140812963E-02    0.4543494674E+00
    0.2700000000E+04    0.6099835057E+00    0.1142812938E+00    0.4605267843E-01    0.2067393958E-02    0.4588199544E+00
    0.2900000000E+04    0.6151709521E+00    0.1113061579E+00    0.4643762546E-01    0.2001439862E-02    0.4629054657E+00
    0.3100000000E+04    0.6196958180E+00    0.1085970743E+00    0.4679058380E-01    0.1941783863E-02    0.4666611321E+00
    0.3300000000E+04    0.6236720085E+00    0.1061152491E+00    0.4711590945E-01    0.1887492187E-02    0.4701313303E+00
    0.3500000000E+04    0.6271895247E+00    0.1038293339E+00    0.4741715226E-01    0.1837809327E-02    0.4733522823E+00
    0.3700000000E+04    0.6303202764E+00    0.1017137148E+00    0.4769724090E-01    0.1792117742E-02    0.4763539175E+00
    0.3900000000E+04    0.6331223090E+00    0.9974724899E-01    0.4795861795E-01    0.1749907847E-02    0.4791612346E+00
    0.4100000000E+04    0.6356429192E+00    0.9791231970E-01    0.4820334040E-01    0.1710755423E-02    0.4817953157E+00
    0.4300000000E+04    0.6379209817E+00    0.9619412016E-01    0.4843315564E-01    0.1674304420E-02    0.4842740942E+00
    0.4500000000E+04    0.6399887064E+00    0.9458010556E-01    0.4864955966E-01    0.1640253731E-02    0.4866129437E+00
    0.4700000000E+04    0.6418729808E+00    0.9305956866E-01    0.4885384236E-01    0.1608346911E-02    0.4888251372E+00
    0.4900000000E+04    0.6435964046E+00    0.9162330791E-01    0.4904712318E-01    0.1578364118E-02    0.4909222073E+00
    0.1000000000E+04    0.4975764280E+00    0.1630355658E+00    0.4000417663E-01    0.3181808991E-02    0.3957666614E+00
    0.3000000000E+04    0.6175084467E+00    0.1099209825E+00    0.4661780947E-01    0.1970887699E-02    0.4648215387E+00
    0.5000000000E+04    0.6444038898E+00    0.9093425173E-01    0.4913994816E-01    0.1564033943E-02    0.4919307712E+00
    0.7000000000E+04    0.6554936777E+00    0.8011059606E-01    0.5060187488E-01    0.1343689253E-02    0.5079501061E+00
    0.9000000000E+04    0.6614267421E+00    0.7276175309E-01    0.5159110621E-01    0.1199270130E-02    0.5189594009E+00
    0.1100000000E+05    0.6650906295E+00    0.6730247231E-01    0.5231910880E-01    0.1094681809E-02    0.5271705113E+00
    0.1300000000E+05    0.6675677369E+00    0.6301738030E-01    0.5288419734E-01    0.1014162634E-02    0.5336206158E+00
    0.1500000000E+05    0.6693500795E+00    0.5952601131E-01    0.5333937652E-01    0.9495576959E-03    0.5388730198E+00
    0.1700000000E+05    0.6706920545E+00    0.5660329540E-01    0.5371617098E-01    0.8961516590E-03    0.5432649487E+00
    0.1900000000E+05    0.6717379358E+00    0.5410574802E-01    0.5403469694E-01    0.8509951495E-03    0.5470128739E+00
    0.2100000000E+05    0.6725754461E+00    0.5193666666E-01    0.5430849105E-01    0.8121321658E-03    0.5502632652E+00
    0.2300000000E+05    0.6732609065E+00    0.5002801228E-01    0.5454704944E-01    0.7782053413E-03    0.5531194001E+00
    0.2500000000E+05    0.6738320914E+00    0.4833024051E-01    0.5475726084E-01    0.7482380381E-03    0.5556565608E+00
    0.2700000000E+05    0.6743152621E+00    0.4680624694E-01    0.5494426247E-01    0.7215064844E-03    0.5579311445E+00
    0.2900000000E+05    0.6747292305E+00    0.4542758548E-01    0.5511197509E-01    0.6974609450E-03    0.5599863814E+00
    0.3100000000E+05    0.6750878197E+00    0.4417201127E-01    0.5526345064E-01    0.6756750931E-03    0.5618560619E+00
    0.3300000000E+05    0.6754014110E+00    0.4302183026E-01    0.5540110542E-01    0.6558123565E-03    0.5635670454E+00
    0.3500000000E+05    0.6756779502E+00    0.4196275877E-01    0.5552688104E-01    0.6376028808E-03    0.5651409975E+00
    0.3700000000E+05    0.6759236205E+00    0.4098311588E-01    0.5564235804E-01    0.6208273551E-03    0.5665956204E+00
    0.3900000000E+05    0.6761433051E+00    0.4007323917E-01    0.5574883799E-01    0.6053054017E-03    0.5679455436E+00
    0.4100000000E+05    0.6763409107E+00    0.3922505407E-01    0.5584740378E-01    0.5908870790E-03    0.5692029813E+00
    0.4300000000E+05    0.6765195998E+00    0.3843175089E-01    0.5593896471E-01    0.5774465532E-03    0.5703782243E+00
    0.4500000000E+05    0.6766819598E+00    0.3768753923E-01    0.5602429075E-01    0.5648773125E-03    0.5714800149E+00
    0.4700000000E+05    0.6768301273E+00    0.3698745842E-01    0.5610403879E-01    0.5530884971E-03    0.5725158356E+00
    0.4900000000E+05    0.6769658824E+00    0.3632722968E-01    0.5617877316E-01    0.5420020496E-03    0.5734921347E+00
    0.1000000000E+05    0.6634537697E+00    0.6985189168E-01    0.5198010761E-01    0.1143240540E-02    0.5233341639E+00
    0.3000000000E+05    0.6749147318E+00    0.4478560968E-01    0.5518957875E-01    0.6863083868E-03    0.5609425984E+00
    0.5000000000E+05    0.6770295821E+00    0.3601087992E-01    0.5621441530E-01    0.5367007607E-03    0.5739597403E+00
    0.7000000000E+05    0.6779142308E+00    0.3108740775E-01    0.5675387584E-01    0.4551114960E-03    0.5812222673E+00
    0.9000000000E+05    0.6783998915E+00    0.2781158320E-01    0.5709453099E-01    0.4018108276E-03    0.5860406498E+00
    0.1100000000E+06    0.6787068037E+00    0.2542382226E-01    0.5733170341E-01    0.3634816363E-03    0.5895476086E+00
    0.1300000000E+06    0.6789183334E+00    0.2358064291E-01    0.5750728762E-01    0.3342100752E-03    0.5922527864E+00
    0.1500000000E+06    0.6790729856E+00    0.2210047172E-01    0.5764289879E-01    0.3109116771E-03    0.5944246272E+00
    0.1700000000E+06    0.6791909980E+00    0.2087689925E-01    0.5775093475E-01    0.2917980532E-03    0.5962200309E+00
    0.1900000000E+06    0.6792840243E+00    0.1984279779E-01    0.5783906544E-01    0.2757509924E-03    0.5977377748E+00
    0.2100000000E+06    0.6793592490E+00    0.1895340553E-01    0.5791231398E-01    0.2620305020E-03    0.5990436202E+00
    0.2300000000E+06    0.6794213425E+00    0.1817755257E-01    0.5797411985E-01    0.2501246993E-03    0.6001833025E+00
    0.2500000000E+06    0.6794734720E+00    0.1749276396E-01    0.5802692400E-01    0.2396666650E-03    0.6011897655E+00
    0.2700000000E+06    0.6795178619E+00    0.1688236324E-01    0.5807251049E-01    0.2303855841E-03    0.6020874339E+00
    0.2900000000E+06    0.6795561198E+00    0.1633367597E-01    0.5811221582E-01    0.2220766219E-03    0.6028948586E+00
    0.3100000000E+06    0.6795894368E+00    0.1583687100E-01    0.5814706239E-01    0.2145815948E-03    0.6036264215E+00
    0.3300000000E+06    0.6796187140E+00    0.1538418763E-01    0.5817784657E-01    0.2077761409E-03    0.6042934707E+00
    0.3500000000E+06    0.6796446458E+00    0.1496940543E-01    0.5820519846E-01    0.2015609562E-03    0.6049050989E+00
    0.3700000000E+06    0.6796677761E+00    0.1458747126E-01    0.5822962353E-01    0.1958556562E-03    0.6054686907E+00
    0.3900000000E+06    0.6796885368E+00    0.1423423126E-01    0.5825153223E-01    0.1905943801E-03    0.6059903151E+00
    0.4100000000E+06    0.6797072752E+00    0.1390623457E-01    0.5827126150E-01    0.1857225832E-03    0.6064750131E+00
    0.4300000000E+06    0.6797242739E+00    0.1360058701E-01    0.5828909066E-01    0.1811946542E-03    0.6069270123E+00
    0.4500000000E+06    0.6797397652E+00    0.1331484044E-01    0.5830525329E-01    0.1769721181E-03    0.6073498883E+00
    0.4700000000E+06    0.6797539416E+00    0.1304690786E-01    0.5831994629E-01    0.1730222628E-03    0.6077466891E+00
    0.4900000000E+06    0.6797669644E+00    0.1279499757E-01    0.5833333686E-01    0.1693170749E-03    0.6081200316E+00
    0.1000000000E+06    0.6785688968E+00    0.2653360007E-01    0.5722274759E-01    0.3812399429E-03    0.5879180914E+00
    0.3000000000E+06    0.6795733339E+00    0.1607931462E-01    0.5813019219E-01    0.2182358135E-03    0.6032693529E+00
    0.5000000000E+06    0.6797730864E+00    0.1267455865E-01    0.5833958922E-01    0.1675485530E-03    0.6082986247E+00
    0.7000000000E+06    0.6798589271E+00    0.1082199229E-01    0.5842205067E-01    0.1405968162E-03    0.6110551536E+00
    0.9000000000E+06    0.6799067932E+00    0.9611816144E-02    0.5845927332E-01    0.1232655758E-03    0.6128681869E+00
    0.1100000000E+07    0.6799373710E+00    0.8740764759E-02    0.5847572794E-01    0.1109399505E-03    0.6141814150E+00
    0.1300000000E+07    0.6799586207E+00    0.8074640447E-02    0.5848125853E-01    0.1016053715E-03    0.6151915753E+00
    0.1500000000E+07    0.6799742614E+00    0.7543604385E-02    0.5848054561E-01    0.9422447420E-04    0.6160012813E+00
    0.1700000000E+07    0.6799862647E+00    0.7107218373E-02    0.5847607028E-01    0.8820182198E-04    0.6166700840E+00
    0.1900000000E+07    0.6799957737E+00    0.6740217776E-02    0.5846925201E-01    0.8316815911E-04    0.6172352729E+00
    0.2100000000E+07    0.6800034972E+00    0.6425889938E-02    0.5846094980E-01    0.7888080052E-04    0.6177215699E+00
    0.2300000000E+07    0.6800098980E+00    0.6152675417E-02    0.5845170598E-01    0.7517285432E-04    0.6181461114E+00
    0.2500000000E+07    0.6800152915E+00    0.5912287694E-02    0.5844187436E-01    0.7192529952E-04    0.6185212075E+00
    0.2700000000E+07    0.6800199000E+00    0.5698609290E-02    0.5843169161E-01    0.6905068157E-04    0.6188559651E+00
    0.2900000000E+07    0.6800238846E+00    0.5507011613E-02    0.5842131915E-01    0.6648311533E-04    0.6191572882E+00
    0.3100000000E+07    0.6800273650E+00    0.5333918732E-02    0.5841086860E-01    0.6417190163E-04    0.6194305211E+00
    0.3300000000E+07    0.6800304321E+00    0.5176517952E-02    0.5840041789E-01    0.6207730937E-04    0.6196798756E+00
    0.3500000000E+07    0.6800331561E+00    0.5032562130E-02    0.5839002170E-01    0.6016770546E-04    0.6199087228E+00
    0.3700000000E+07    0.6800355922E+00    0.4900231223E-02    0.5837971835E-01    0.5841755178E-04    0.6201197981E+00
    0.3900000000E+07    0.6800377841E+00    0.4778033157E-02    0.5836953454E-01    0.5680597576E-04    0.6203153477E+00
    0.4100000000E+07    0.6800397672E+00    0.4664731469E-02    0.5835948862E-01    0.5531573017E-04    0.6204972365E+00
    0.4300000000E+07    0.6800415704E+00    0.4559291556E-02    0.5834959287E-01    0.5393242278E-04    0.6206670275E+00
    0.4500000000E+07    0.6800432173E+00    0.4460840142E-02    0.5833985511E-01    0.5264393695E-04    0.6208260421E+00
    0.4700000000E+07    0.6800447278E+00    0.4368634272E-02    0.5833027989E-01    0.5143998958E-04    0.6209754064E+00
    0.4900000000E+07    0.6800461182E+00    0.4282037299E-02    0.5832086939E-01    0.5031178970E-04    0.6211160870E+00
    0.1000000000E+07    0.6799235965E+00    0.9144462675E-02    0.5846930243E-01    0.1166361327E-03    0.6135718006E+00
    0.3000000000E+07    0.6800256815E+00    0.5418343087E-02    0.5841609811E-01    0.6529816589E-04    0.6192971301E+00
    0.5000000000E+07    0.6800467728E+00    0.4240667550E-02    0.5831622608E-01    0.4977368898E-04    0.6211834363E+00
    0.7000000000E+07    0.6800560333E+00    0.3606956089E-02    0.5823158982E-01    0.4160527258E-04    0.6222281963E+00
    0.9000000000E+07    0.6800612844E+00    0.3195629341E-02    0.5816023585E-01    0.3638454671E-04    0.6229223386E+00
    0.1100000000E+08    0.6800646871E+00    0.2900844024E-02    0.5809888074E-01    0.3268699286E-04    0.6234298459E+00
    0.1300000000E+08    0.6800670819E+00    0.2676125951E-02    0.5804513055E-01    0.2989524140E-04    0.6238236098E+00
    0.1500000000E+08    0.6800688649E+00    0.2497421127E-02    0.5799731560E-01    0.2769301435E-04    0.6241417650E+00
    0.1700000000E+08    0.6800702478E+00    0.2350859432E-02    0.5795424938E-01    0.2589947776E-04    0.6244065151E+00
    0.1900000000E+08    0.6800713543E+00    0.2227803730E-02    0.5791506507E-01    0.2440283653E-04    0.6246318099E+00
    0.2100000000E+08    0.6800722613E+00    0.2122555966E-02    0.5787911232E-01    0.2312980330E-04    0.6248269282E+00
    0.2300000000E+08    0.6800730197E+00    0.2031183993E-02    0.5784589141E-01    0.2203008748E-04    0.6249983228E+00
    0.2500000000E+08    0.6800736641E+00    0.1950874497E-02    0.5781501044E-01    0.2106788987E-04    0.6251506438E+00
    0.2700000000E+08    0.6800742190E+00    0.1879554085E-02    0.5778615642E-01    0.2021694814E-04    0.6252873420E+00
