  Pressure (Pa) 22mC5-400 (mol/kg) 2mC6-400 (mol/kg) 3mC6-400 (mol/kg) 33mC5-400 (mol/kg) C7-400 (mol/kg)
    0.1000000000E+01    0.3171727628E-02    0.3140588610E-02    0.1041378794E-02    0.6393489540E-04    0.1182963490E-01
    0.3000000000E+01    0.9369684137E-02    0.9004449224E-02    0.2988713648E-02    0.1833602878E-03    0.3395761655E-01
    0.5000000000E+01    0.1538240901E-01    0.1436835217E-01    0.4774656567E-02    0.2926705986E-03    0.5426034474E-01
    0.7000000000E+01    0.2121975046E-01    0.1929058615E-01    0.6418915470E-02    0.3930464909E-03    0.7296036546E-01
    0.9000000000E+01    0.2689085086E-01    0.2382051980E-01    0.7938097420E-02    0.4854875519E-03    0.9024523607E-01
    0.1100000000E+02    0.3240420894E-01    0.2800027400E-01    0.9346296385E-02    0.5708462958E-03    0.1062741542E+00
    0.1300000000E+02    0.3776773547E-01    0.3186602831E-01    0.1065555213E-01    0.6498547202E-03    0.1211831337E+00
    0.1500000000E+02    0.4298880342E-01    0.3544905201E-01    0.1187621205E-01    0.7231452568E-03    0.1350890863E+00
    0.1700000000E+02    0.4807429292E-01    0.3877652540E-01    0.1301721907E-01    0.7912674563E-03    0.1480930692E+00
    0.1900000000E+02    0.5303063191E-01    0.4187219981E-01    0.1408634264E-01    0.8547013918E-03    0.1602828918E+00
    0.2100000000E+02    0.5786383277E-01    0.4475693228E-01    0.1509036564E-01    0.9138685137E-03    0.1717352237E+00
    0.2300000000E+02    0.6257952551E-01    0.4744912197E-01    0.1603523651E-01    0.9691405065E-03    0.1825173122E+00
    0.2500000000E+02    0.6718298780E-01    0.4996506891E-01    0.1692619413E-01    0.1020846568E-02    0.1926883914E+00
    0.2700000000E+02    0.7167917220E-01    0.5231927087E-01    0.1776787090E-01    0.1069279428E-02    0.2023008451E+00
    0.2900000000E+02    0.7607273099E-01    0.5452467048E-01    0.1856437828E-01    0.1114700364E-02    0.2114011729E+00
    0.3100000000E+02    0.8036803863E-01    0.5659286227E-01    0.1931937828E-01    0.1157343393E-02    0.2200307972E+00
    0.3300000000E+02    0.8456921237E-01    0.5853426697E-01    0.2003614347E-01    0.1197418805E-02    0.2282267400E+00
    0.3500000000E+02    0.8868013096E-01    0.6035827901E-01    0.2071760757E-01    0.1235116149E-02    0.2360221951E+00
    0.3700000000E+02    0.9270445178E-01    0.6207339205E-01    0.2136640842E-01    0.1270606780E-02    0.2434470120E+00
    0.3900000000E+02    0.9664562656E-01    0.6368730623E-01    0.2198492448E-01    0.1304046024E-02    0.2505281092E+00
    0.4100000000E+02    0.1005069157E+00    0.6520702015E-01    0.2257530610E-01    0.1335575044E-02    0.2572898269E+00
    0.4300000000E+02    0.1042914015E+00    0.6663891026E-01    0.2313950233E-01    0.1365322444E-02    0.2637542296E+00
    0.4500000000E+02    0.1080020001E+00    0.6798879944E-01    0.2367928406E-01    0.1393405656E-02    0.2699413680E+00
    0.4700000000E+02    0.1116414730E+00    0.6926201664E-01    0.2419626404E-01    0.1419932146E-02    0.2758695041E+00
    0.4900000000E+02    0.1152124367E+00    0.7046344879E-01    0.2469191418E-01    0.1445000467E-02    0.2815553081E+00
    0.1000000000E+02    0.2966674010E-01    0.2595178210E-01    0.8655273795E-02    0.5290039082E-03    0.9840769741E-01
    0.3000000000E+02    0.7823240308E-01    0.5557524039E-01    0.1894685368E-01    0.1136355456E-02    0.2157724132E+00
    0.5000000000E+02    0.1169730081E+00    0.7103866308E-01    0.2493216579E-01    0.1457016401E-02    0.2843121520E+00
    0.7000000000E+02    0.1491274426E+00    0.7969193384E-01    0.2889008989E-01    0.1639289004E-02    0.3298164020E+00
    0.9000000000E+02    0.1765977974E+00    0.8459624851E-01    0.3172444075E-01    0.1744927166E-02    0.3625281455E+00
    0.1100000000E+03    0.2005791353E+00    0.8726280539E-01    0.3386729679E-01    0.1804461722E-02    0.3873509798E+00
    0.1300000000E+03    0.2218635502E+00    0.8852163935E-01    0.3555221863E-01    0.1834710044E-02    0.4069391656E+00
    0.1500000000E+03    0.2409994263E+00    0.8886332900E-01    0.3691699728E-01    0.1845652300E-02    0.4228607037E+00
    0.1700000000E+03    0.2583804547E+00    0.8859372429E-01    0.3804843641E-01    0.1843542950E-02    0.4361046851E+00
    0.1900000000E+03    0.2742981044E+00    0.8791136962E-01    0.3900408680E-01    0.1832467675E-02    0.4473277306E+00
    0.2100000000E+03    0.2889739518E+00    0.8694925381E-01    0.3982369989E-01    0.1815183430E-02    0.4569839639E+00
    0.2300000000E+03    0.3025803625E+00    0.8579867483E-01    0.4053567007E-01    0.1793599156E-02    0.4653981773E+00
    0.2500000000E+03    0.3152541555E+00    0.8452353494E-01    0.4116085563E-01    0.1769064185E-02    0.4728092603E+00
    0.2700000000E+03    0.3271058865E+00    0.8316924002E-01    0.4171494692E-01    0.1742548159E-02    0.4793971372E+00
    0.2900000000E+03    0.3382263140E+00    0.8176842128E-01    0.4220998956E-01    0.1714756994E-02    0.4853001074E+00
    0.3100000000E+03    0.3486910007E+00    0.8034471643E-01    0.4265539584E-01    0.1686209742E-02    0.4906263678E+00
    0.3300000000E+03    0.3585636541E+00    0.7891532798E-01    0.4305863505E-01    0.1657290778E-02    0.4954618829E+00
    0.3500000000E+03    0.3678985932E+00    0.7749279011E-01    0.4342571597E-01    0.1628285984E-02    0.4998758908E+00
    0.3700000000E+03    0.3767426019E+00    0.7608621078E-01    0.4376153150E-01    0.1599408297E-02    0.5039248377E+00
    0.3900000000E+03    0.3851363391E+00    0.7470215896E-01    0.4407010937E-01    0.1570816049E-02    0.5076552434E+00
    0.4100000000E+03    0.3931154284E+00    0.7334530706E-01    0.4435479770E-01    0.1542626327E-02    0.5111058228E+00
    0.4300000000E+03    0.4007113098E+00    0.7201890187E-01    0.4461840439E-01    0.1514924816E-02    0.5143090813E+00
    0.4500000000E+03    0.4079519133E+00    0.7072511361E-01    0.4486330328E-01    0.1487773152E-02    0.5172925304E+00
    0.4700000000E+03    0.4148621975E+00    0.6946529697E-01    0.4509151601E-01    0.1461214458E-02    0.5200796265E+00
    0.4900000000E+03    0.4214645841E+00    0.6824018812E-01    0.4530477594E-01    0.1435277560E-02    0.5226905032E+00
    0.1000000000E+03    0.1889679713E+00    0.8614675349E-01    0.3286468167E-01    0.1779192563E-02    0.3757254717E+00
    0.3000000000E+03    0.3435363978E+00    0.8105822743E-01    0.4243839134E-01    0.1700551185E-02    0.4880295062E+00
    0.5000000000E+03    0.4246567175E+00    0.6764074762E-01    0.4540627405E-01    0.1422548193E-02    0.5239353871E+00
    0.7000000000E+03    0.4763656620E+00    0.5739617549E-01    0.4692538090E-01    0.1201351646E-02    0.5427761154E+00
    0.9000000000E+03    0.5120477125E+00    0.4988493135E-01    0.4786787679E-01    0.1035160614E-02    0.5547236840E+00
    0.1100000000E+04    0.5379360773E+00    0.4427292539E-01    0.4851691625E-01    0.9090425755E-03    0.5631171080E+00
    0.1300000000E+04    0.5574319261E+00    0.3996600036E-01    0.4899432533E-01    0.8113029716E-03    0.5694070514E+00
    0.1500000000E+04    0.5725545508E+00    0.3657403190E-01    0.4936186079E-01    0.7338868109E-03    0.5743354586E+00
    0.1700000000E+04    0.5845729754E+00    0.3384029207E-01    0.4965442861E-01    0.6713217068E-03    0.5783251668E+00
    0.1900000000E+04    0.5943201625E+00    0.3159230235E-01    0.4989335831E-01    0.6198440472E-03    0.5816365696E+00
    0.2100000000E+04    0.6023625691E+00    0.2971128350E-01    0.5009247277E-01    0.5768149438E-03    0.5844396699E+00
    0.2300000000E+04    0.6090970841E+00    0.2811340708E-01    0.5026115190E-01    0.5403454694E-03    0.5868506462E+00
    0.2500000000E+04    0.6148090118E+00    0.2673813888E-01    0.5040600074E-01    0.5090561411E-03    0.5889518664E+00
    0.2700000000E+04    0.6197080730E+00    0.2554083901E-01    0.5053181423E-01    0.4819204729E-03    0.5908035205E+00
    0.2900000000E+04    0.6239514844E+00    0.2448795609E-01    0.5064216323E-01    0.4581613729E-03    0.5924507195E+00
    0.3100000000E+04    0.6276591695E+00    0.2355383499E-01    0.5073976530E-01    0.4371812165E-03    0.5939280090E+00
    0.3300000000E+04    0.6309240346E+00    0.2271855063E-01    0.5082672761E-01    0.4185137564E-03    0.5952623377E+00
    0.3500000000E+04    0.6338190630E+00    0.2196640832E-01    0.5090471079E-01    0.4017904521E-03    0.5964750699E+00
    0.3700000000E+04    0.6364023108E+00    0.2128488629E-01    0.5097504238E-01    0.3867164951E-03    0.5975833837E+00
    0.3900000000E+04    0.6387204871E+00    0.2066387706E-01    0.5103879711E-01    0.3730534688E-03    0.5986012654E+00
    0.4100000000E+04    0.6408115621E+00    0.2009513469E-01    0.5109685493E-01    0.3606066225E-03    0.5995402303E+00
    0.4300000000E+04    0.6427066947E+00    0.1957186609E-01    0.5114994359E-01    0.3492154047E-03    0.6004098547E+00
    0.4500000000E+04    0.6444316759E+00    0.1908842481E-01    0.5119867050E-01    0.3387463314E-03    0.6012181744E+00
    0.4700000000E+04    0.6460080240E+00    0.1864007872E-01    0.5124354686E-01    0.3290875525E-03    0.6019719882E+00
    0.4900000000E+04    0.6474538250E+00    0.1822283174E-01    0.5128500609E-01    0.3201446644E-03    0.6026770914E+00
    0.1000000000E+04    0.5259602179E+00    0.4688436804E-01    0.4821941805E-01    0.9679199873E-03    0.5592499171E+00
    0.3000000000E+04    0.6258659484E+00    0.2400740976E-01    0.5069241385E-01    0.4473556951E-03    0.5932087678E+00
    0.5000000000E+04    0.6481326467E+00    0.1802478824E-01    0.5130457209E-01    0.3159161320E-03    0.6030129587E+00
    0.7000000000E+04    0.6575687595E+00    0.1508805418E-01    0.5158319858E-01    0.2546012163E-03    0.6080779210E+00
    0.9000000000E+04    0.6627328276E+00    0.1326740622E-01    0.5173990425E-01    0.2181120659E-03    0.6112845770E+00
    0.1100000000E+05    0.6659783145E+00    0.1199595217E-01    0.5183822487E-01    0.1934293282E-03    0.6135436784E+00
    0.1300000000E+05    0.6682030283E+00    0.1104200481E-01    0.5190409906E-01    0.1753726020E-03    0.6152443289E+00
    0.1500000000E+05    0.6698216204E+00    0.1029122583E-01    0.5195013858E-01    0.1614500393E-03    0.6165838354E+00
    0.1700000000E+05    0.6710514566E+00    0.9679838069E-02    0.5198321993E-01    0.1503035389E-03    0.6176741437E+00
    0.1900000000E+05    0.6720172771E+00    0.9169070370E-02    0.5200741058E-01    0.1411243221E-03    0.6185840483E+00
    0.2100000000E+05    0.6727957073E+00    0.8733800220E-02    0.5202526791E-01    0.1333978060E-03    0.6193584337E+00
    0.2300000000E+05    0.6734363831E+00    0.8356927798E-02    0.5203847806E-01    0.1267793690E-03    0.6200279828E+00
    0.2500000000E+05    0.6739728574E+00    0.8026349614E-02    0.5204819587E-01    0.1210285857E-03    0.6206144694E+00
    0.2700000000E+05    0.6744286181E+00    0.7733221386E-02    0.5205523733E-01    0.1159720350E-03    0.6211338259E+00
    0.2900000000E+05    0.6748205947E+00    0.7470907263E-02    0.5206019417E-01    0.1114811110E-03    0.6215980134E+00
    0.3100000000E+05    0.6751612964E+00    0.7234316102E-02    0.5206350504E-01    0.1074581841E-03    0.6220162084E+00
    0.3300000000E+05    0.6754601645E+00    0.7019466701E-02    0.5206550130E-01    0.1038276417E-03    0.6223955839E+00
    0.3500000000E+05    0.6757244581E+00    0.6823194061E-02    0.5206643734E-01    0.1005299004E-03    0.6227418383E+00
    0.3700000000E+05    0.6759598498E+00    0.6642945548E-02    0.5206651128E-01    0.9751729295E-04    0.6230595634E+00
    0.3900000000E+05    0.6761708362E+00    0.6476636125E-02    0.5206587937E-01    0.9475117376E-04    0.6233525062E+00
    0.4100000000E+05    0.6763610275E+00    0.6322543397E-02    0.5206466615E-01    0.9219983891E-04    0.6236237583E+00
    0.4300000000E+05    0.6765333555E+00    0.6179230139E-02    0.5206297194E-01    0.8983700315E-04    0.6238758967E+00
    0.4500000000E+05    0.6766902259E+00    0.6045486173E-02    0.5206087822E-01    0.8764066598E-04    0.6241110885E+00
    0.4700000000E+05    0.6768336309E+00    0.5920284117E-02    0.5205845169E-01    0.8559225457E-04    0.6243311712E+00
    0.4900000000E+05    0.6769652347E+00    0.5802745269E-02    0.5205574736E-01    0.8367596712E-04    0.6245377148E+00
    0.1000000000E+05    0.6645222508E+00    0.1258157154E-01    0.5179428092E-01    0.2047124038E-03    0.6125017032E+00
    0.3000000000E+05    0.6749967051E+00    0.7349667173E-02    0.5206203254E-01    0.1094163084E-03    0.6218123719E+00
    0.5000000000E+05    0.6770270578E+00    0.5746608929E-02    0.5205430560E-01    0.8276306183E-04    0.6246363388E+00
    0.7000000000E+05    0.6778906848E+00    0.4887681258E-02    0.5201868090E-01    0.6898290493E-04    0.6261446454E+00
    0.9000000000E+05    0.6783692626E+00    0.4330833969E-02    0.5197937224E-01    0.6024147921E-04    0.6271237474E+00
    0.1100000000E+06    0.6786736139E+00    0.3931905059E-02    0.5194130737E-01    0.5407554717E-04    0.6278275276E+00
    0.1300000000E+06    0.6788843697E+00    0.3627820678E-02    0.5190561047E-01    0.4943172685E-04    0.6283663262E+00
    0.1500000000E+06    0.6790390352E+00    0.3385990977E-02    0.5187240838E-01    0.4577461828E-04    0.6287969100E+00
    0.1700000000E+06    0.6791574265E+00    0.3187640832E-02    0.5184154303E-01    0.4279968817E-04    0.6291518935E+00
    0.1900000000E+06    0.6792510017E+00    0.3021084525E-02    0.5181278588E-01    0.4031935346E-04    0.6294515426E+00
    0.2100000000E+06    0.6793268485E+00    0.2878614934E-02    0.5178590737E-01    0.3821097382E-04    0.6297092115E+00
    0.2300000000E+06    0.6793895874E+00    0.2754914263E-02    0.5176069849E-01    0.3639056443E-04    0.6299341118E+00
    0.2500000000E+06    0.6794423596E+00    0.2646178075E-02    0.5173697578E-01    0.3479843698E-04    0.6301328341E+00
    0.2700000000E+06    0.6794873757E+00    0.2549602570E-02    0.5171458042E-01    0.3339086039E-04    0.6303102379E+00
    0.2900000000E+06    0.6795262365E+00    0.2463069480E-02    0.5169337548E-01    0.3213497047E-04    0.6304699969E+00
    0.3100000000E+06    0.6795601300E+00    0.2384944401E-02    0.5167324281E-01    0.3100553185E-04    0.6306149483E+00
    0.3300000000E+06    0.6795899565E+00    0.2313943238E-02    0.5165408023E-01    0.2998280532E-04    0.6307473233E+00
    0.3500000000E+06    0.6796164107E+00    0.2249041140E-02    0.5163579897E-01    0.2905110080E-04    0.6308689050E+00
    0.3700000000E+06    0.6796400372E+00    0.2189408803E-02    0.5161832160E-01    0.2819776986E-04    0.6309811379E+00
    0.3900000000E+06    0.6796612692E+00    0.2134366928E-02    0.5160158025E-01    0.2741248841E-04    0.6310852069E+00
    0.4100000000E+06    0.6796804556E+00    0.2083353014E-02    0.5158551516E-01    0.2668673567E-04    0.6311820944E+00
    0.4300000000E+06    0.6796978804E+00    0.2035896721E-02    0.5157007349E-01    0.2601340899E-04    0.6312726234E+00
    0.4500000000E+06    0.6797137772E+00    0.1991601302E-02    0.5155520828E-01    0.2538653462E-04    0.6313574887E+00
    0.4700000000E+06    0.6797283400E+00    0.1950129420E-02    0.5154087767E-01    0.2480104739E-04    0.6314372823E+00
    0.4900000000E+06    0.6797417313E+00    0.1911192162E-02    0.5152704417E-01    0.2425262069E-04    0.6315125119E+00
    0.1000000000E+06    0.6785366587E+00    0.4116605696E-02    0.5196007556E-01    0.5692009628E-04    0.6275013357E+00
    0.3000000000E+06    0.6795437423E+00    0.2423043176E-02    0.5168318184E-01    0.3155578770E-04    0.6305441720E+00
    0.5000000000E+06    0.6797480312E+00    0.1892594820E-02    0.5152030316E-01    0.2399112165E-04    0.6315485546E+00
    0.7000000000E+06    0.6798367404E+00    0.1608041858E-02    0.5140495039E-01    0.2002744485E-04    0.6321104353E+00
    0.9000000000E+06    0.6798865994E+00    0.1423669797E-02    0.5131540696E-01    0.1749976535E-04    0.6324875028E+00
    0.1100000000E+07    0.6799186632E+00    0.1291691833E-02    0.5124212059E-01    0.1571213283E-04    0.6327657516E+00
    0.1300000000E+07    0.6799410766E+00    0.1191170702E-02    0.5118003633E-01    0.1436381671E-04    0.6329834756E+00
    0.1500000000E+07    0.6799576615E+00    0.1111285989E-02    0.5112615025E-01    0.1330105605E-04    0.6331607646E+00
    0.1700000000E+07    0.6799704514E+00    0.1045805423E-02    0.5107852936E-01    0.1243606369E-04    0.6333093525E+00
    0.1900000000E+07    0.6799806295E+00    0.9908515434E-03    0.5103585532E-01    0.1171462838E-04    0.6334366360E+00
    0.2100000000E+07    0.6799889315E+00    0.9438681996E-03    0.5099718810E-01    0.1110124377E-04    0.6335475512E+00
    0.2300000000E+07    0.6799958394E+00    0.9030925133E-03    0.5096183357E-01    0.1057156309E-04    0.6336455424E+00
    0.2500000000E+07    0.6800016823E+00    0.8672638715E-03    0.5092926432E-01    0.1010826606E-04    0.6337330995E+00
    0.2700000000E+07    0.6800066929E+00    0.8354536360E-03    0.5089907016E-01    0.9698653318E-05    0.6338120764E+00
    0.2900000000E+07    0.6800110401E+00    0.8069605149E-03    0.5087092562E-01    0.9333175688E-05    0.6338838870E+00
    0.3100000000E+07    0.6800148499E+00    0.7812436219E-03    0.5084456815E-01    0.9004497304E-05    0.6339496323E+00
    0.3300000000E+07    0.6800182180E+00    0.7578781597E-03    0.5081978277E-01    0.8706877949E-05    0.6340101851E+00
    0.3500000000E+07    0.6800212186E+00    0.7365252101E-03    0.5079639125E-01    0.8435753584E-05    0.6340662479E+00
    0.3700000000E+07    0.6800239100E+00    0.7169106131E-03    0.5077424414E-01    0.8187444098E-05    0.6341183937E+00
    0.3900000000E+07    0.6800263386E+00    0.6988098683E-03    0.5075321491E-01    0.7958945098E-05    0.6341670958E+00
    0.4100000000E+07    0.6800285420E+00    0.6820371300E-03    0.5073319544E-01    0.7747776592E-05    0.6342127489E+00
    0.4300000000E+07    0.6800305509E+00    0.6664370440E-03    0.5071409263E-01    0.7551871095E-05    0.6342556858E+00
    0.4500000000E+07    0.6800323906E+00    0.6518785986E-03    0.5069582575E-01    0.7369489559E-05    0.6342961890E+00
    0.4700000000E+07    0.6800340820E+00    0.6382504267E-03    0.5067832428E-01    0.7199157323E-05    0.6343345004E+00
    0.4900000000E+07    0.6800356430E+00    0.6254571710E-03    0.5066152634E-01    0.7039614674E-05    0.6343708289E+00
    0.1000000000E+07    0.6799041949E+00    0.1352783103E-02    0.5127711320E-01    0.1653724107E-04    0.6326359718E+00
    0.3000000000E+07    0.6800130056E+00    0.7937839026E-03    0.5085753791E-01    0.9164627080E-05    0.6339174587E+00
    0.5000000000E+07    0.6800363793E+00    0.6193475024E-03    0.5065337385E-01    0.6963544883E-05    0.6343883070E+00
    0.7000000000E+07    0.6800469059E+00    0.5259211860E-03    0.5051680679E-01    0.5810781486E-05    0.6346673639E+00
    0.9000000000E+07    0.6800529953E+00    0.4654438801E-03    0.5041395121E-01    0.5075971704E-05    0.6348623642E+00
    0.1100000000E+08    0.6800570078E+00    0.4221806244E-03    0.5033138447E-01    0.4556481634E-05    0.6350108199E+00
    0.1300000000E+08    0.6800598730E+00    0.3892448241E-03    0.5026239265E-01    0.4164771334E-05    0.6351299657E+00
    0.1500000000E+08    0.6800620339E+00    0.3630802713E-03    0.5020312938E-01    0.3856094383E-05    0.6352290735E+00
    0.1700000000E+08    0.6800637293E+00    0.3416399238E-03    0.5015118359E-01    0.3604910057E-05    0.6353136745E+00
    0.1900000000E+08    0.6800651000E+00    0.3236508141E-03    0.5010494331E-01    0.3395449816E-05    0.6353873193E+00
    0.2100000000E+08    0.6800662346E+00    0.3082740961E-03    0.5006327722E-01    0.3217387997E-05    0.6354524165E+00
    0.2300000000E+08    0.6800671916E+00    0.2949314458E-03    0.5002536061E-01    0.3063645598E-05    0.6355106707E+00
    0.2500000000E+08    0.6800680115E+00    0.2832094312E-03    0.4999057365E-01    0.2929187471E-05    0.6355633306E+00
    0.2700000000E+08    0.6800687230E+00    0.2728035724E-03    0.4995843864E-01    0.2810322379E-05    0.6356113371E+00
