  Pressure (Pa) 22mC5-400 (mol/kg) 2mC6-400 (mol/kg) 3mC6-400 (mol/kg) 33mC5-400 (mol/kg) C7-400 (mol/kg)
    0.1000000000E+01    0.3173963968E-02    0.2364511385E-02    0.2091711335E-02    0.1283577397E-03    0.8485894205E-02
    0.3000000000E+01    0.9389040417E-02    0.6828302493E-02    0.6051617962E-02    0.3707520909E-03    0.2455505735E-01
    0.5000000000E+01    0.1543415180E-01    0.1096814120E-01    0.9739686869E-02    0.5956562205E-03    0.3952630103E-01
    0.7000000000E+01    0.2131741015E-01    0.1481553640E-01    0.1318358528E-01    0.8047726052E-03    0.5351119966E-01
    0.9000000000E+01    0.2704640552E-01    0.1839797877E-01    0.1640732902E-01    0.9995861678E-03    0.6660661384E-01
    0.1100000000E+02    0.3262824731E-01    0.2173957237E-01    0.1943186656E-01    0.1181398530E-02    0.7889704285E-01
    0.1300000000E+02    0.3806960168E-01    0.2486154955E-01    0.2227555441E-01    0.1351355925E-02    0.9045653941E-01
    0.1500000000E+02    0.4337672555E-01    0.2778269368E-01    0.2495454670E-01    0.1510472113E-02    0.1013502791E+00
    0.1700000000E+02    0.4855549757E-01    0.3051968844E-01    0.2748311648E-01    0.1659647309E-02    0.1116358547E+00
    0.1900000000E+02    0.5361144626E-01    0.3308740832E-01    0.2987392239E-01    0.1799683918E-02    0.1213643508E+00
    0.2100000000E+02    0.5854977572E-01    0.3549916159E-01    0.3213823114E-01    0.1931299696E-02    0.1305812397E+00
    0.2300000000E+02    0.6337538916E-01    0.3776689463E-01    0.3428610415E-01    0.2055138817E-02    0.1393271342E+00
    0.2500000000E+02    0.6809291034E-01    0.3990136468E-01    0.3632655495E-01    0.2171781220E-02    0.1476384212E+00
    0.2700000000E+02    0.7270670326E-01    0.4191228660E-01    0.3826768253E-01    0.2281750553E-02    0.1555477994E+00
    0.2900000000E+02    0.7722089019E-01    0.4380845811E-01    0.4011678474E-01    0.2385520952E-02    0.1630847366E+00
    0.3100000000E+02    0.8163936823E-01    0.4559786716E-01    0.4188045527E-01    0.2483522847E-02    0.1702758600E+00
    0.3300000000E+02    0.8596582457E-01    0.4728778437E-01    0.4356466686E-01    0.2576147958E-02    0.1771452923E+00
    0.3500000000E+02    0.9020375043E-01    0.4888484288E-01    0.4517484295E-01    0.2663753618E-02    0.1837149398E+00
    0.3700000000E+02    0.9435645403E-01    0.5039510763E-01    0.4671591959E-01    0.2746666514E-02    0.1900047427E+00
    0.3900000000E+02    0.9842707243E-01    0.5182413570E-01    0.4819239923E-01    0.2825185949E-02    0.1960328915E+00
    0.4100000000E+02    0.1024185826E+00    0.5317702897E-01    0.4960839744E-01    0.2899586687E-02    0.2018160156E+00
    0.4300000000E+02    0.1063338114E+00    0.5445848032E-01    0.5096768378E-01    0.2970121444E-02    0.2073693479E+00
    0.4500000000E+02    0.1101754452E+00    0.5567281418E-01    0.5227371753E-01    0.3037023087E-02    0.2127068692E+00
    0.4700000000E+02    0.1139460385E+00    0.5682402234E-01    0.5352967915E-01    0.3100506558E-02    0.2178414345E+00
    0.4900000000E+02    0.1176480218E+00    0.5791579556E-01    0.5473849786E-01    0.3160770585E-02    0.2227848853E+00
    0.1000000000E+02    0.2985529400E-01    0.2009749269E-01    0.1794329547E-01    0.1092042507E-02    0.7284759824E-01
    0.3000000000E+02    0.7944185762E-01    0.4471603771E-01    0.4100891200E-01    0.2435217626E-02    0.1667219622E+00
    0.5000000000E+02    0.1194740123E+00    0.5844047209E-01    0.5532608141E-01    0.3189753353E-02    0.2251883902E+00
    0.7000000000E+02    0.1528993270E+00    0.6652249250E-01    0.6515921224E-01    0.3638554963E-02    0.2654751966E+00
    0.9000000000E+02    0.1815214263E+00    0.7135264839E-01    0.7237479743E-01    0.3910367080E-02    0.2951318656E+00
    0.1100000000E+03    0.2065092210E+00    0.7417743249E-01    0.7792241689E-01    0.4072389206E-02    0.3180035676E+00
    0.1300000000E+03    0.2286563428E+00    0.7570779479E-01    0.8233780512E-01    0.4163030622E-02    0.3362620897E+00
    0.1500000000E+03    0.2485228037E+00    0.7637588050E-01    0.8594700688E-01    0.4205710475E-02    0.3512306194E+00
    0.1700000000E+03    0.2665168370E+00    0.7645711489E-01    0.8896030647E-01    0.4215414615E-02    0.3637634785E+00
    0.1900000000E+03    0.2829444448E+00    0.7613355833E-01    0.9151969951E-01    0.4202097221E-02    0.3744381707E+00
    0.2100000000E+03    0.2980406080E+00    0.7552905516E-01    0.9372470803E-01    0.4172568367E-02    0.3836598873E+00
    0.2300000000E+03    0.3119896222E+00    0.7472979231E-01    0.9564726917E-01    0.4131598776E-02    0.3917218188E+00
    0.2500000000E+03    0.3249387447E+00    0.7379685156E-01    0.9734074770E-01    0.4082595069E-02    0.3988416879E+00
    0.2700000000E+03    0.3370075926E+00    0.7277415148E-01    0.9884561682E-01    0.4028027645E-02    0.4051847917E+00
    0.2900000000E+03    0.3482947634E+00    0.7169362548E-01    0.1001931645E+00    0.3969710185E-02    0.4108790445E+00
    0.3100000000E+03    0.3588825972E+00    0.7057868569E-01    0.1014079842E+00    0.3908987061E-02    0.4160250937E+00
    0.3300000000E+03    0.3688406636E+00    0.6944659209E-01    0.1025096926E+00    0.3846861871E-02    0.4207032994E+00
    0.3500000000E+03    0.3782283601E+00    0.6831010441E-01    0.1035141407E+00    0.3784087344E-02    0.4249786622E+00
    0.3700000000E+03    0.3870968762E+00    0.6717865364E-01    0.1044342865E+00    0.3721229320E-02    0.4289043700E+00
    0.3900000000E+03    0.3954907004E+00    0.6605918522E-01    0.1052808333E+00    0.3658713004E-02    0.4325243999E+00
    0.4100000000E+03    0.4034487909E+00    0.6495677411E-01    0.1060627054E+00    0.3596856836E-02    0.4358754554E+00
    0.4300000000E+03    0.4110054961E+00    0.6387507859E-01    0.1067874076E+00    0.3535897621E-02    0.4389884312E+00
    0.4500000000E+03    0.4181912862E+00    0.6281667860E-01    0.1074612998E+00    0.3476009361E-02    0.4418895346E+00
    0.4700000000E+03    0.4250333419E+00    0.6178333031E-01    0.1080898104E+00    0.3417317506E-02    0.4446011549E+00
    0.4900000000E+03    0.4315560310E+00    0.6077615922E-01    0.1086776027E+00    0.3359909841E-02    0.4471425444E+00
    0.1000000000E+03    0.1944132617E+00    0.7296268350E-01    0.7531709864E-01    0.4002239339E-02    0.3072537201E+00
    0.3000000000E+03    0.3536714841E+00    0.7113925653E-01    0.1008158389E+00    0.3939579824E-02    0.4135151624E+00
    0.5000000000E+03    0.4347045563E+00    0.6028260642E-01    0.1089575107E+00    0.3331706815E-02    0.4483546961E+00
    0.7000000000E+03    0.4852547514E+00    0.5179060469E-01    0.1131589292E+00    0.2839741131E-02    0.4667278411E+00
    0.9000000000E+03    0.5196683515E+00    0.4551129153E-01    0.1157775366E+00    0.2468760534E-02    0.4784013674E+00
    0.1100000000E+04    0.5444279102E+00    0.4078929488E-01    0.1175869569E+00    0.2186519477E-02    0.4866106900E+00
    0.1300000000E+04    0.5629783715E+00    0.3714177102E-01    0.1189217640E+00    0.1967101689E-02    0.4927668718E+00
    0.1500000000E+04    0.5773241420E+00    0.3424960740E-01    0.1199520940E+00    0.1792640434E-02    0.4975930330E+00
    0.1700000000E+04    0.5887062342E+00    0.3190249471E-01    0.1207743204E+00    0.1651029677E-02    0.5015017565E+00
    0.1900000000E+04    0.5979303428E+00    0.2995903816E-01    0.1214474307E+00    0.1533965145E-02    0.5047473053E+00
    0.2100000000E+04    0.6055399797E+00    0.2832176340E-01    0.1220097042E+00    0.1435634545E-02    0.5074957602E+00
    0.2300000000E+04    0.6119137013E+00    0.2692176792E-01    0.1224871466E+00    0.1351881064E-02    0.5098606582E+00
    0.2500000000E+04    0.6173224443E+00    0.2570918913E-01    0.1228980891E+00    0.1279669250E-02    0.5119225149E+00
    0.2700000000E+04    0.6219647300E+00    0.2464716103E-01    0.1232558517E+00    0.1216739130E-02    0.5137401778E+00
    0.2900000000E+04    0.6259890322E+00    0.2370789286E-01    0.1235703626E+00    0.1161377970E-02    0.5153577587E+00
    0.3100000000E+04    0.6295084172E+00    0.2287006549E-01    0.1238491837E+00    0.1112266631E-02    0.5168090418E+00
    0.3300000000E+04    0.6326103778E+00    0.2211706441E-01    0.1240981832E+00    0.1068374110E-02    0.5181203851E+00
    0.3500000000E+04    0.6353635928E+00    0.2143575580E-01    0.1243219889E+00    0.1028883795E-02    0.5193126860E+00
    0.3700000000E+04    0.6378226696E+00    0.2081562262E-01    0.1245243035E+00    0.9931409936E-03    0.5204027491E+00
    0.3900000000E+04    0.6400315336E+00    0.2024814407E-01    0.1247081264E+00    0.9606149922E-03    0.5214042572E+00
    0.4100000000E+04    0.6420258914E+00    0.1972634276E-01    0.1248759151E+00    0.9308712055E-03    0.5223284767E+00
    0.4300000000E+04    0.6438350481E+00    0.1924444925E-01    0.1250297038E+00    0.9035504525E-03    0.5231847776E+00
    0.4500000000E+04    0.6454832662E+00    0.1879765027E-01    0.1251711911E+00    0.8783533344E-03    0.5239810229E+00
    0.4700000000E+04    0.6469907959E+00    0.1838189723E-01    0.1253018077E+00    0.8550283181E-03    0.5247238659E+00
    0.4900000000E+04    0.6483746640E+00    0.1799375900E-01    0.1254227674E+00    0.8333625464E-03    0.5254189779E+00
    0.1000000000E+04    0.5329939539E+00    0.4299032569E-01    0.1167568907E+00    0.2318378786E-02    0.4828275145E+00
    0.3000000000E+04    0.6278058628E+00    0.2327743129E-01    0.1237138341E+00    0.1136111275E-02    0.5161023927E+00
    0.5000000000E+04    0.6490248177E+00    0.1780911335E-01    0.1254799560E+00    0.8230941398E-03    0.5257501834E+00
    0.7000000000E+04    0.6580939378E+00    0.1503834138E-01    0.1263039044E+00    0.6722880352E-03    0.5307541803E+00
    0.9000000000E+04    0.6630874165E+00    0.1328911093E-01    0.1267797073E+00    0.5806261305E-03    0.5339344894E+00
    0.1100000000E+05    0.6662393765E+00    0.1205346428E-01    0.1270869932E+00    0.5177097997E-03    0.5361833580E+00
    0.1300000000E+05    0.6684069699E+00    0.1111914704E-01    0.1272995991E+00    0.4711919502E-03    0.5378823306E+00
    0.1500000000E+05    0.6699879169E+00    0.1037970321E-01    0.1274536712E+00    0.4350355928E-03    0.5392250733E+00
    0.1700000000E+05    0.6711914980E+00    0.9775024811E-02    0.1275690540E+00    0.4059068134E-03    0.5403215811E+00
    0.1900000000E+05    0.6721381876E+00    0.9268225055E-02    0.1276575682E+00    0.3817986331E-03    0.5412395228E+00
    0.2100000000E+05    0.6729021831E+00    0.8835223081E-02    0.1277266989E+00    0.3614225890E-03    0.5420230972E+00
    0.2300000000E+05    0.6735316535E+00    0.8459528631E-02    0.1277814173E+00    0.3439092207E-03    0.5427025520E+00
    0.2500000000E+05    0.6740592212E+00    0.8129411399E-02    0.1278251534E+00    0.3286480135E-03    0.5432993759E+00
    0.2700000000E+05    0.6745077598E+00    0.7836264063E-02    0.1278603497E+00    0.3151961367E-03    0.5438293105E+00
    0.2900000000E+05    0.6748937795E+00    0.7573605775E-02    0.1278887912E+00    0.3032235986E-03    0.5443041866E+00
    0.3100000000E+05    0.6752294948E+00    0.7336449300E-02    0.1279118117E+00    0.2924788217E-03    0.5447330906E+00
    0.3300000000E+05    0.6755241348E+00    0.7120884511E-02    0.1279304273E+00    0.2827662294E-03    0.5451231331E+00
    0.3500000000E+05    0.6757848025E+00    0.6923795833E-02    0.1279454247E+00    0.2739311896E-03    0.5454799689E+00
    0.3700000000E+05    0.6760170534E+00    0.6742665466E-02    0.1279574221E+00    0.2658496241E-03    0.5458081595E+00
    0.3900000000E+05    0.6762252945E+00    0.6575433178E-02    0.1279669112E+00    0.2584206671E-03    0.5461114311E+00
    0.4100000000E+05    0.6764130671E+00    0.6420394379E-02    0.1279742881E+00    0.2515613687E-03    0.5463928616E+00
    0.4300000000E+05    0.6765832485E+00    0.6276124685E-02    0.1279798744E+00    0.2452028043E-03    0.5466550187E+00
    0.4500000000E+05    0.6767382014E+00    0.6141423199E-02    0.1279839345E+00    0.2392871681E-03    0.5469000645E+00
    0.4700000000E+05    0.6768798832E+00    0.6015269245E-02    0.1279866867E+00    0.2337655702E-03    0.5471298338E+00
    0.4900000000E+05    0.6770099300E+00    0.5896788934E-02    0.1279883132E+00    0.2285963444E-03    0.5473458958E+00
    0.1000000000E+05    0.6648238469E+00    0.1262399358E-01    0.1269484996E+00    0.5465651807E-03    0.5351450926E+00
    0.3000000000E+05    0.6750672902E+00    0.7452105617E-02    0.1279009093E+00    0.2977110718E-03    0.5445239014E+00
    0.5000000000E+05    0.6770710294E+00    0.5840186890E-02    0.1279887530E+00    0.2261324956E-03    0.5474492162E+00
    0.7000000000E+05    0.6779250194E+00    0.4972913119E-02    0.1279651327E+00    0.1888461012E-03    0.5490432013E+00
    0.9000000000E+05    0.6783985370E+00    0.4409529363E-02    0.1279136884E+00    0.1651073220E-03    0.5500947691E+00
    0.1100000000E+06    0.6786996972E+00    0.4005425322E-02    0.1278548640E+00    0.1483260464E-03    0.5508610784E+00
    0.1300000000E+06    0.6789082136E+00    0.3697136783E-02    0.1277952490E+00    0.1356686462E-03    0.5514548271E+00
    0.1500000000E+06    0.6790611958E+00    0.3451809680E-02    0.1277372188E+00    0.1256899057E-03    0.5519344261E+00
    0.1700000000E+06    0.6791782602E+00    0.3250491688E-02    0.1276816199E+00    0.1175658166E-03    0.5523336610E+00
    0.1900000000E+06    0.6792707529E+00    0.3081375252E-02    0.1276286871E+00    0.1107879123E-03    0.5526736559E+00
    0.2100000000E+06    0.6793456932E+00    0.2936666962E-02    0.1275783984E+00    0.1050233029E-03    0.5529684108E+00
    0.2300000000E+06    0.6794076575E+00    0.2810986185E-02    0.1275306256E+00    0.1000437722E-03    0.5532276345E+00
    0.2500000000E+06    0.6794597572E+00    0.2700481572E-02    0.1274852013E+00    0.9568697937E-04    0.5534583092E+00
    0.2700000000E+06    0.6795041814E+00    0.2602313530E-02    0.1274419498E+00    0.9183389380E-04    0.5536656073E+00
    0.2900000000E+06    0.6795425157E+00    0.2514335955E-02    0.1274007004E+00    0.8839500546E-04    0.5538534572E+00
    0.3100000000E+06    0.6795759365E+00    0.2434892430E-02    0.1273612939E+00    0.8530154401E-04    0.5540249057E+00
    0.3300000000E+06    0.6796053352E+00    0.2362681194E-02    0.1273235845E+00    0.8249969071E-04    0.5541823591E+00
    0.3500000000E+06    0.6796313995E+00    0.2296663032E-02    0.1272874398E+00    0.7994664822E-04    0.5543277476E+00
    0.3700000000E+06    0.6796546687E+00    0.2235996820E-02    0.1272527402E+00    0.7760790258E-04    0.5544626412E+00
    0.3900000000E+06    0.6796755716E+00    0.2179993439E-02    0.1272193780E+00    0.7545527250E-04    0.5545883323E+00
    0.4100000000E+06    0.6796944533E+00    0.2128082143E-02    0.1271872562E+00    0.7346549180E-04    0.5547058964E+00
    0.4300000000E+06    0.6797115948E+00    0.2079785617E-02    0.1271562874E+00    0.7161916106E-04    0.5548162370E+00
    0.4500000000E+06    0.6797272274E+00    0.2034701164E-02    0.1271263925E+00    0.6989995996E-04    0.5549201201E+00
    0.4700000000E+06    0.6797415429E+00    0.1992486335E-02    0.1270974999E+00    0.6829404705E-04    0.5550182001E+00
    0.4900000000E+06    0.6797547019E+00    0.1952847802E-02    0.1270695450E+00    0.6678959652E-04    0.5551110398E+00
    0.1000000000E+06    0.6785641801E+00    0.4192571100E-02    0.1278846332E+00    0.1560714220E-03    0.5505046966E+00
    0.3000000000E+06    0.6795597790E+00    0.2473635865E-02    0.1273807762E+00    0.8680875732E-04    0.5539410685E+00
    0.5000000000E+06    0.6797608909E+00    0.1933914229E-02    0.1270559005E+00    0.6607218456E-04    0.5551556495E+00
    0.7000000000E+06    0.6798478973E+00    0.1644109854E-02    0.1268204374E+00    0.5519281077E-04    0.5558628940E+00
    0.9000000000E+06    0.6798966418E+00    0.1456222443E-02    0.1266355262E+00    0.4824968596E-04    0.5563515266E+00
    0.1100000000E+07    0.6799278985E+00    0.1321669180E-02    0.1264830876E+00    0.4333675810E-04    0.5567204694E+00
    0.1300000000E+07    0.6799496905E+00    0.1219151241E-02    0.1263532957E+00    0.3962970038E-04    0.5570146772E+00
    0.1500000000E+07    0.6799657764E+00    0.1137656508E-02    0.1262402158E+00    0.3670679401E-04    0.5572581343E+00
    0.1700000000E+07    0.6799781536E+00    0.1070840098E-02    0.1261399865E+00    0.3432715809E-04    0.5574650533E+00
    0.1900000000E+07    0.6799879823E+00    0.1014753354E-02    0.1260499525E+00    0.3234198782E-04    0.5576445073E+00
    0.2100000000E+07    0.6799959832E+00    0.9667925564E-03    0.1259682083E+00    0.3065379232E-04    0.5578026210E+00
    0.2300000000E+07    0.6800026279E+00    0.9251616392E-03    0.1258933398E+00    0.2919570477E-04    0.5579437116E+00
    0.2500000000E+07    0.6800082380E+00    0.8885760159E-03    0.1258242679E+00    0.2792014545E-04    0.5580709300E+00
    0.2700000000E+07    0.6800130406E+00    0.8560892287E-03    0.1257601505E+00    0.2679222171E-04    0.5581866422E+00
    0.2900000000E+07    0.6800172004E+00    0.8269864193E-03    0.1257003173E+00    0.2578569157E-04    0.5582926674E+00
    0.3100000000E+07    0.6800208401E+00    0.8007161612E-03    0.1256442260E+00    0.2488039220E-04    0.5583904328E+00
    0.3300000000E+07    0.6800240529E+00    0.7768453233E-03    0.1255914319E+00    0.2406054413E-04    0.5584810776E+00
    0.3500000000E+07    0.6800269108E+00    0.7550282975E-03    0.1255415652E+00    0.2331359942E-04    0.5585655249E+00
    0.3700000000E+07    0.6800294705E+00    0.7349854806E-03    0.1254943155E+00    0.2262943906E-04    0.5586445325E+00
    0.3900000000E+07    0.6800317770E+00    0.7164878917E-03    0.1254494194E+00    0.2199980103E-04    0.5587187295E+00
    0.4100000000E+07    0.6800338669E+00    0.6993459572E-03    0.1254066515E+00    0.2141786470E-04    0.5587886441E+00
    0.4300000000E+07    0.6800357697E+00    0.6834011922E-03    0.1253658175E+00    0.2087794331E-04    0.5588547235E+00
    0.4500000000E+07    0.6800375100E+00    0.6685199333E-03    0.1253267487E+00    0.2037525308E-04    0.5589173494E+00
    0.4700000000E+07    0.6800391081E+00    0.6545885498E-03    0.1252892976E+00    0.1990573708E-04    0.5589768506E+00
    0.4900000000E+07    0.6800405811E+00    0.6415097386E-03    0.1252533345E+00    0.1946592947E-04    0.5590335115E+00
    0.1000000000E+07    0.6799138049E+00    0.1383958888E-02    0.1265559853E+00    0.4560466748E-04    0.5565474458E+00
    0.3000000000E+07    0.6800190788E+00    0.8135266490E-03    0.1256718337E+00    0.2532146141E-04    0.5583425056E+00
    0.5000000000E+07    0.6800412753E+00    0.6352633781E-03    0.1252358746E+00    0.1925621824E-04    0.5590608556E+00
    0.7000000000E+07    0.6800511480E+00    0.5397196168E-03    0.1249428450E+00    0.1607729600E-04    0.5595050297E+00
    0.9000000000E+07    0.6800568031E+00    0.4778418699E-03    0.1247215307E+00    0.1404991934E-04    0.5598242342E+00
    0.1100000000E+08    0.6800604985E+00    0.4335606122E-03    0.1245435324E+00    0.1261607222E-04    0.5600723249E+00
    0.1300000000E+08    0.6800631183E+00    0.3998398759E-03    0.1243945877E+00    0.1153457792E-04    0.5602746893E+00
    0.1500000000E+08    0.6800650814E+00    0.3730451353E-03    0.1242665028E+00    0.1068211539E-04    0.5604452616E+00
    0.1700000000E+08    0.6800666127E+00    0.3510837081E-03    0.1241541307E+00    0.9988274598E-05    0.5605924918E+00
    0.1900000000E+08    0.6800678441E+00    0.3326539503E-03    0.1240540247E+00    0.9409574878E-05    0.5607218805E+00
    0.2100000000E+08    0.6800688585E+00    0.3168979493E-03    0.1239637623E+00    0.8917538029E-05    0.5608372033E+00
    0.2300000000E+08    0.6800697102E+00    0.3032241329E-03    0.1238815756E+00    0.8492636580E-05    0.5609411612E+00
    0.2500000000E+08    0.6800704368E+00    0.2912095318E-03    0.1238061346E+00    0.8120978761E-05    0.5610357514E+00
    0.2700000000E+08    0.6800710649E+00    0.2805425979E-03    0.1237364135E+00    0.7792379094E-05    0.5611224912E+00
