  Pressure (Pa) 22mC5-400 (mol/kg) 2mC6-400 (mol/kg) 3mC6-400 (mol/kg) 33mC5-400 (mol/kg) C7-400 (mol/kg)
    0.1000000000E+01    0.3173560303E-02    0.2367053337E-02    0.1047305802E-02    0.2569873356E-03    0.8497601517E-02
    0.3000000000E+01    0.9385539072E-02    0.6849480741E-02    0.3037975968E-02    0.7437674473E-03    0.2465329443E-01
    0.5000000000E+01    0.1542477261E-01    0.1102274358E-01    0.4901429643E-02    0.1197143288E-02    0.3978135521E-01
    0.7000000000E+01    0.2129967199E-01    0.1491511369E-01    0.6649786394E-02    0.1620170876E-02    0.5397953606E-01
    0.9000000000E+01    0.2701809616E-01    0.1855149083E-01    0.8293664395E-02    0.2015541084E-02    0.6733348873E-01
    0.1100000000E+02    0.3258739652E-01    0.2195389852E-01    0.9842406342E-02    0.2385633412E-02    0.7991858445E-01
    0.1300000000E+02    0.3801445721E-01    0.2514189394E-01    0.1130426574E-01    0.2732560425E-02    0.9180141469E-01
    0.1500000000E+02    0.4330573167E-01    0.2813290882E-01    0.1268656148E-01    0.3058204711E-02    0.1030410364E+00
    0.1700000000E+02    0.4846727582E-01    0.3094253478E-01    0.1399580676E-01    0.3364249801E-02    0.1136900111E+00
    0.1900000000E+02    0.5350477825E-01    0.3358476324E-01    0.1523781722E-01    0.3652206166E-02    0.1237952760E+00
    0.2100000000E+02    0.5842358771E-01    0.3607218843E-01    0.1641780218E-01    0.3923433205E-02    0.1333988791E+00
    0.2300000000E+02    0.6322873810E-01    0.3841617975E-01    0.1754044182E-01    0.4179157917E-02    0.1425386013E+00
    0.2500000000E+02    0.6792497144E-01    0.4062702907E-01    0.1860995289E-01    0.4420490846E-02    0.1512484863E+00
    0.2700000000E+02    0.7251675870E-01    0.4271407686E-01    0.1963014485E-01    0.4648439740E-02    0.1595592927E+00
    0.2900000000E+02    0.7700831903E-01    0.4468582095E-01    0.2060446805E-01    0.4863921318E-02    0.1674988825E+00
    0.3100000000E+02    0.8140363724E-01    0.4655001039E-01    0.2153605522E-01    0.5067771428E-02    0.1750925552E+00
    0.3300000000E+02    0.8570647996E-01    0.4831372695E-01    0.2242775728E-01    0.5260753867E-02    0.1823633373E+00
    0.3500000000E+02    0.8992041040E-01    0.4998345612E-01    0.2328217448E-01    0.5443568054E-02    0.1893322326E+00
    0.3700000000E+02    0.9404880201E-01    0.5156514900E-01    0.2410168342E-01    0.5616855731E-02    0.1960184405E+00
    0.3900000000E+02    0.9809485098E-01    0.5306427669E-01    0.2488846075E-01    0.5781206834E-02    0.2024395467E+00
    0.4100000000E+02    0.1020615878E+00    0.5448587800E-01    0.2564450376E-01    0.5937164661E-02    0.2086116897E+00
    0.4300000000E+02    0.1059518880E+00    0.5583460157E-01    0.2637164864E-01    0.6085230414E-02    0.2145497077E+00
    0.4500000000E+02    0.1097684819E+00    0.5711474308E-01    0.2707158640E-01    0.6225867223E-02    0.2202672671E+00
    0.4700000000E+02    0.1135139637E+00    0.5833027823E-01    0.2774587706E-01    0.6359503714E-02    0.2257769771E+00
    0.4900000000E+02    0.1171908002E+00    0.5948489210E-01    0.2839596213E-01    0.6486537172E-02    0.2310904900E+00
    0.1000000000E+02    0.2982094606E-01    0.2028066503E-01    0.9079387953E-02    0.2203609158E-02    0.7371779167E-01
    0.3000000000E+02    0.7921776805E-01    0.4563090263E-01    0.2107541924E-01    0.4967250975E-02    0.1713374691E+00
    0.5000000000E+02    0.1190042143E+00    0.6004043215E-01    0.2871234838E-01    0.6547694047E-02    0.2336770745E+00
    0.7000000000E+02    0.1521825333E+00    0.6866535809E-01    0.3404564073E-01    0.7500989268E-02    0.2773430884E+00
    0.9000000000E+02    0.1805762461E+00    0.7391624499E-01    0.3800673216E-01    0.8087076252E-02    0.3098687882E+00
    0.1100000000E+03    0.2053605055E+00    0.7706903088E-01    0.4108062687E-01    0.8443674665E-02    0.3351808656E+00
    0.1300000000E+03    0.2273296673E+00    0.7885824459E-01    0.4354558495E-01    0.8650213898E-02    0.3555344606E+00
    0.1500000000E+03    0.2470422845E+00    0.7973318499E-01    0.4557313162E-01    0.8755409632E-02    0.3723210787E+00
    0.1700000000E+03    0.2649043659E+00    0.7998156463E-01    0.4727501798E-01    0.8790564811E-02    0.3864482007E+00
    0.1900000000E+03    0.2812195352E+00    0.7979431116E-01    0.4872733040E-01    0.8776539116E-02    0.3985342931E+00
    0.2100000000E+03    0.2962204961E+00    0.7930176426E-01    0.4998376598E-01    0.8727642698E-02    0.4090162538E+00
    0.2300000000E+03    0.3100894660E+00    0.7859495044E-01    0.5108336792E-01    0.8653925998E-02    0.4182120555E+00
    0.2500000000E+03    0.3229718485E+00    0.7773861939E-01    0.5205524794E-01    0.8562584154E-02    0.4263590127E+00
    0.2700000000E+03    0.3349856255E+00    0.7677951497E-01    0.5292158482E-01    0.8458849171E-02    0.4336380933E+00
    0.2900000000E+03    0.3462279602E+00    0.7575177987E-01    0.5369959286E-01    0.8346573860E-02    0.4401898886E+00
    0.3100000000E+03    0.3567799367E+00    0.7468057789E-01    0.5440285214E-01    0.8228623972E-02    0.4461254109E+00
    0.3300000000E+03    0.3667100256E+00    0.7358457540E-01    0.5504223016E-01    0.8107147469E-02    0.4515335801E+00
    0.3500000000E+03    0.3760766612E+00    0.7247767431E-01    0.5562653496E-01    0.7983763082E-02    0.4564865300E+00
    0.3700000000E+03    0.3849301887E+00    0.7137024287E-01    0.5616298677E-01    0.7859694636E-02    0.4610434446E+00
    0.3900000000E+03    0.3933143547E+00    0.7027000289E-01    0.5665756499E-01    0.7735868225E-02    0.4652533804E+00
    0.4100000000E+03    0.4012674646E+00    0.6918267790E-01    0.5711526719E-01    0.7612983468E-02    0.4691573753E+00
    0.4300000000E+03    0.4088232915E+00    0.6811247212E-01    0.5754030545E-01    0.7491566393E-02    0.4727900470E+00
    0.4500000000E+03    0.4160117981E+00    0.6706242830E-01    0.5793625695E-01    0.7372009133E-02    0.4761808211E+00
    0.4700000000E+03    0.4228597164E+00    0.6603469738E-01    0.5830618095E-01    0.7254599992E-02    0.4793548844E+00
    0.4900000000E+03    0.4293910171E+00    0.6503074352E-01    0.5865271062E-01    0.7139546435E-02    0.4823339343E+00
    0.1000000000E+03    0.1933630855E+00    0.7570023302E-01    0.3963388963E-01    0.8288154140E-02    0.3232589043E+00
    0.3000000000E+03    0.3515857020E+00    0.7522031655E-01    0.5405983201E-01    0.8288159694E-02    0.4432286793E+00
    0.5000000000E+03    0.4325447677E+00    0.6453799215E-01    0.5881792716E-01    0.7082950171E-02    0.4837563042E+00
    0.7000000000E+03    0.4832773453E+00    0.5598925649E-01    0.6131450472E-01    0.6088984818E-02    0.5054384374E+00
    0.9000000000E+03    0.5179240454E+00    0.4958915540E-01    0.6288849682E-01    0.5331902942E-02    0.5193434405E+00
    0.1100000000E+04    0.5429053044E+00    0.4473118023E-01    0.6398568104E-01    0.4751551028E-02    0.5291878894E+00
    0.1300000000E+04    0.5616496513E+00    0.4094925999E-01    0.6480082861E-01    0.4297509691E-02    0.5366080170E+00
    0.1500000000E+04    0.5761600624E+00    0.3793011466E-01    0.6543378510E-01    0.3934482162E-02    0.5424484563E+00
    0.1700000000E+04    0.5876806852E+00    0.3546512605E-01    0.6594148664E-01    0.3638334061E-02    0.5471939827E+00
    0.1900000000E+04    0.5970213080E+00    0.3341296100E-01    0.6635898146E-01    0.3392401191E-02    0.5511448371E+00
    0.2100000000E+04    0.6047292970E+00    0.3167558283E-01    0.6670912717E-01    0.3184958681E-02    0.5544979696E+00
    0.2300000000E+04    0.6111864935E+00    0.3018332324E-01    0.6700752088E-01    0.3007583798E-02    0.5573885192E+00
    0.2500000000E+04    0.6166665259E+00    0.2888552793E-01    0.6726520036E-01    0.2854101841E-02    0.5599126340E+00
    0.2700000000E+04    0.6213700853E+00    0.2774458548E-01    0.6749021469E-01    0.2719899319E-02    0.5621407902E+00
    0.2900000000E+04    0.6254473864E+00    0.2673203159E-01    0.6768858287E-01    0.2601468516E-02    0.5641259538E+00
    0.3100000000E+04    0.6290128927E+00    0.2582595037E-01    0.6786490313E-01    0.2496099661E-02    0.5659087851E+00
    0.3300000000E+04    0.6321552221E+00    0.2500920347E-01    0.6802275353E-01    0.2401668881E-02    0.5675210736E+00
    0.3500000000E+04    0.6349439639E+00    0.2426819902E-01    0.6816496331E-01    0.2316489461E-02    0.5689880719E+00
    0.3700000000E+04    0.6374344666E+00    0.2359201964E-01    0.6829380127E-01    0.2239205704E-02    0.5703301222E+00
    0.3900000000E+04    0.6396712625E+00    0.2297179436E-01    0.6841110962E-01    0.2168715985E-02    0.5715638150E+00
    0.4100000000E+04    0.6416905584E+00    0.2240023876E-01    0.6851840090E-01    0.2104116136E-02    0.5727028310E+00
    0.4300000000E+04    0.6435220737E+00    0.2187131352E-01    0.6861692945E-01    0.2044657216E-02    0.5737585634E+00
    0.4500000000E+04    0.6451904168E+00    0.2137996735E-01    0.6870774485E-01    0.1989713611E-02    0.5747405861E+00
    0.4700000000E+04    0.6467161278E+00    0.2092194115E-01    0.6879173260E-01    0.1938758651E-02    0.5756570088E+00
    0.4900000000E+04    0.6481164780E+00    0.2049361693E-01    0.6886964528E-01    0.1891345767E-02    0.5765147523E+00
    0.1000000000E+04    0.5313635054E+00    0.4700066110E-01    0.6348129717E-01    0.5023174826E-02    0.5246441767E+00
    0.3000000000E+04    0.6272880614E+00    0.2626684848E-01    0.6777925512E-01    0.2547295827E-02    0.5650404978E+00
    0.5000000000E+04    0.6487743016E+00    0.2028960827E-01    0.6890652843E-01    0.1868846267E-02    0.5769235107E+00
    0.7000000000E+04    0.6579443237E+00    0.1720904840E-01    0.6944179711E-01    0.1536176503E-02    0.5831018182E+00
    0.9000000000E+04    0.6629869596E+00    0.1524575852E-01    0.6975516873E-01    0.1331777811E-02    0.5870267124E+00
    0.1100000000E+05    0.6661667456E+00    0.1385059717E-01    0.6996003604E-01    0.1190452930E-02    0.5897977860E+00
    0.1300000000E+05    0.6683517173E+00    0.1279134181E-01    0.7010343907E-01    0.1085414651E-02    0.5918869803E+00
    0.1500000000E+05    0.6699442971E+00    0.1195052613E-01    0.7020857309E-01    0.1003451277E-02    0.5935343505E+00
    0.1700000000E+05    0.6711560767E+00    0.1126140268E-01    0.7028825027E-01    0.9372166855E-03    0.5948764041E+00
    0.1900000000E+05    0.6721087790E+00    0.1068280843E-01    0.7035014306E-01    0.8822641752E-03    0.5959971742E+00
    0.2100000000E+05    0.6728773261E+00    0.1018776564E-01    0.7039913333E-01    0.8357260312E-03    0.5969515630E+00
    0.2300000000E+05    0.6735103321E+00    0.9757741548E-02    0.7043847776E-01    0.7956597503E-03    0.5977771431E+00
    0.2500000000E+05    0.6740407055E+00    0.9379518179E-02    0.7047043286E-01    0.7606969517E-03    0.5985006021E+00
    0.2700000000E+05    0.6744915112E+00    0.9043375126E-02    0.7049661162E-01    0.7298423432E-03    0.5991414832E+00
    0.2900000000E+05    0.6748793915E+00    0.8741979637E-02    0.7051819740E-01    0.7023524628E-03    0.5997144681E+00
    0.3100000000E+05    0.6752166541E+00    0.8469679724E-02    0.7053607774E-01    0.6776593202E-03    0.6002308271E+00
    0.3300000000E+05    0.6755125962E+00    0.8222037798E-02    0.7055093109E-01    0.6553205382E-03    0.6006993742E+00
    0.3500000000E+05    0.6757743708E+00    0.7995513607E-02    0.7056328463E-01    0.6349857748E-03    0.6011271147E+00
    0.3700000000E+05    0.6760075713E+00    0.7787243001E-02    0.7057355397E-01    0.6163734970E-03    0.6015196958E+00
    0.3900000000E+05    0.6762166339E+00    0.7594880045E-02    0.7058207097E-01    0.5992545357E-03    0.6018817271E+00
    0.4100000000E+05    0.6764051222E+00    0.7416482052E-02    0.7058910364E-01    0.5834402012E-03    0.6022170136E+00
    0.4300000000E+05    0.6765759314E+00    0.7250424395E-02    0.7059487061E-01    0.5687735362E-03    0.6025287274E+00
    0.4500000000E+05    0.6767314382E+00    0.7095336365E-02    0.7059955188E-01    0.5551227722E-03    0.6028195371E+00
    0.4700000000E+05    0.6768736116E+00    0.6950052195E-02    0.7060329689E-01    0.5423763628E-03    0.6030917060E+00
    0.4900000000E+05    0.6770040967E+00    0.6813573172E-02    0.7060623062E-01    0.5304391631E-03    0.6033471680E+00
    0.1000000000E+05    0.6647390673E+00    0.1449560815E-01    0.6986740481E-01    0.1255374366E-02    0.5885190721E+00
    0.3000000000E+05    0.6750537103E+00    0.8602494260E-02    0.7052755423E-01    0.6896864366E-03    0.5999791262E+00
    0.5000000000E+05    0.6770653978E+00    0.6748361742E-02    0.7060742681E-01    0.5247480235E-03    0.6034691629E+00
    0.7000000000E+05    0.6779219037E+00    0.5748354777E-02    0.7060724956E-01    0.4385158228E-03    0.6053359514E+00
    0.9000000000E+05    0.6783965552E+00    0.5098004794E-02    0.7058510962E-01    0.3835202577E-03    0.6065489159E+00
    0.1100000000E+06    0.6786983300E+00    0.4631210489E-02    0.7055584386E-01    0.3446039428E-03    0.6074214483E+00
    0.1300000000E+06    0.6789072202E+00    0.4274941037E-02    0.7052451749E-01    0.3152317670E-03    0.6080898628E+00
    0.1500000000E+06    0.6790604482E+00    0.3991345960E-02    0.7049312191E-01    0.2920649585E-03    0.6086243290E+00
    0.1700000000E+06    0.6791776838E+00    0.3758573095E-02    0.7046248674E-01    0.2731976134E-03    0.6090651794E+00
    0.1900000000E+06    0.6792703010E+00    0.3563000171E-02    0.7043295001E-01    0.2574526379E-03    0.6094374847E+00
    0.2100000000E+06    0.6793453351E+00    0.3395631906E-02    0.7040462683E-01    0.2440588806E-03    0.6097577705E+00
    0.2300000000E+06    0.6794073720E+00    0.3250255641E-02    0.7037752764E-01    0.2324873906E-03    0.6100374391E+00
    0.2500000000E+06    0.6794595292E+00    0.3122423175E-02    0.7035161369E-01    0.2223617388E-03    0.6102846506E+00
    0.2700000000E+06    0.6795039999E+00    0.3008854061E-02    0.7032682430E-01    0.2134058251E-03    0.6105054230E+00
    0.2900000000E+06    0.6795423724E+00    0.2907068503E-02    0.7030309063E-01    0.2054119622E-03    0.6107043071E+00
    0.3100000000E+06    0.6795758250E+00    0.2815152198E-02    0.7028034267E-01    0.1982205447E-03    0.6108848178E+00
    0.3300000000E+06    0.6796052505E+00    0.2731600491E-02    0.7025851270E-01    0.1917066402E-03    0.6110497202E+00
    0.3500000000E+06    0.6796313377E+00    0.2655212037E-02    0.7023753692E-01    0.1857708825E-03    0.6112012242E+00
    0.3700000000E+06    0.6796546267E+00    0.2585014379E-02    0.7021735616E-01    0.1803331241E-03    0.6113411205E+00
    0.3900000000E+06    0.6796755467E+00    0.2520210713E-02    0.7019791593E-01    0.1753279140E-03    0.6114708781E+00
    0.4100000000E+06    0.6796944434E+00    0.2460141055E-02    0.7017916631E-01    0.1707012093E-03    0.6115917155E+00
    0.4300000000E+06    0.6797115981E+00    0.2404253410E-02    0.7016106169E-01    0.1664079440E-03    0.6117046530E+00
    0.4500000000E+06    0.6797272424E+00    0.2352082045E-02    0.7014356040E-01    0.1624102009E-03    0.6118105529E+00
    0.4700000000E+06    0.6797415684E+00    0.2303230881E-02    0.7012662437E-01    0.1586758192E-03    0.6119101495E+00
    0.4900000000E+06    0.6797547369E+00    0.2257360632E-02    0.7011021881E-01    0.1551773190E-03    0.6120040727E+00
    0.1000000000E+06    0.6785625471E+00    0.4847419024E-02    0.7057094016E-01    0.3625694991E-03    0.6070169689E+00
    0.3000000000E+06    0.6795596523E+00    0.2859978900E-02    0.7029159775E-01    0.2017244456E-03    0.6107966713E+00
    0.5000000000E+06    0.6797609303E+00    0.2235450329E-02    0.7010220490E-01    0.1535090066E-03    0.6120490798E+00
    0.7000000000E+06    0.6798479930E+00    0.1900078836E-02    0.6996333026E-01    0.1282084728E-03    0.6127514685E+00
    0.9000000000E+06    0.6798967656E+00    0.1682653109E-02    0.6985365790E-01    0.1120616392E-03    0.6132237483E+00
    0.1100000000E+07    0.6799280393E+00    0.1526953980E-02    0.6976293870E-01    0.1006365818E-03    0.6135728210E+00
    0.1300000000E+07    0.6799498430E+00    0.1408331708E-02    0.6968551925E-01    0.9201622320E-04    0.6138463423E+00
    0.1500000000E+07    0.6799659376E+00    0.1314040924E-02    0.6961795526E-01    0.8521971094E-04    0.6140693376E+00
    0.1700000000E+07    0.6799783216E+00    0.1236737916E-02    0.6955799249E-01    0.7968676788E-04    0.6142564358E+00
    0.1900000000E+07    0.6799881559E+00    0.1171852398E-02    0.6950407427E-01    0.7507127458E-04    0.6144168652E+00
    0.2100000000E+07    0.6799961617E+00    0.1116370770E-02    0.6945507999E-01    0.7114646682E-04    0.6145567892E+00
    0.2300000000E+07    0.6800028105E+00    0.1068214254E-02    0.6941017578E-01    0.6775681298E-04    0.6146805105E+00
    0.2500000000E+07    0.6800084244E+00    0.1025896088E-02    0.6936872409E-01    0.6479164447E-04    0.6147911424E+00
    0.2700000000E+07    0.6800132302E+00    0.9883208777E-03    0.6933022641E-01    0.6216980366E-04    0.6148910035E+00
    0.2900000000E+07    0.6800173930E+00    0.9546612907E-03    0.6929428545E-01    0.5983025493E-04    0.6149818633E+00
    0.3100000000E+07    0.6800210355E+00    0.9242791557E-03    0.6926057942E-01    0.5772610303E-04    0.6150651006E+00
    0.3300000000E+07    0.6800242508E+00    0.8966732179E-03    0.6922884397E-01    0.5582064847E-04    0.6151418088E+00
    0.3500000000E+07    0.6800271111E+00    0.8714435205E-03    0.6919885925E-01    0.5408470824E-04    0.6152128683E+00
    0.3700000000E+07    0.6800296730E+00    0.8482664998E-03    0.6917044045E-01    0.5249474892E-04    0.6152789977E+00
    0.3900000000E+07    0.6800319816E+00    0.8268771793E-03    0.6914343066E-01    0.5103155631E-04    0.6153407906E+00
    0.4100000000E+07    0.6800340734E+00    0.8070561901E-03    0.6911769557E-01    0.4967926863E-04    0.6153987426E+00
    0.4300000000E+07    0.6800359781E+00    0.7886201429E-03    0.6909311925E-01    0.4842466141E-04    0.6154532713E+00
    0.4500000000E+07    0.6800377202E+00    0.7714143736E-03    0.6906960100E-01    0.4725661019E-04    0.6155047314E+00
    0.4700000000E+07    0.6800393200E+00    0.7553074015E-03    0.6904705272E-01    0.4616568112E-04    0.6155534272E+00
    0.4900000000E+07    0.6800407947E+00    0.7401866410E-03    0.6902539696E-01    0.4514381492E-04    0.6155996208E+00
    0.1000000000E+07    0.6799139381E+00    0.1599031812E-02    0.6980635215E-01    0.1059105611E-03    0.6134099434E+00
    0.3000000000E+07    0.6800192729E+00    0.9390945981E-03    0.6927717076E-01    0.5875125084E-04    0.6150243607E+00
    0.5000000000E+07    0.6800414896E+00    0.7329652327E-03    0.6901488206E-01    0.4465657587E-04    0.6156218516E+00
    0.7000000000E+07    0.6800513756E+00    0.6225226555E-03    0.6883831071E-01    0.3727179786E-04    0.6159773785E+00
    0.9000000000E+07    0.6800570407E+00    0.5510135927E-03    0.6870485023E-01    0.3256332610E-04    0.6162265054E+00
    0.1100000000E+08    0.6800607444E+00    0.4998501049E-03    0.6859746182E-01    0.2923398431E-04    0.6164165711E+00
    0.1300000000E+08    0.6800633712E+00    0.4608949538E-03    0.6850757503E-01    0.2672322890E-04    0.6165693725E+00
    0.1500000000E+08    0.6800653404E+00    0.4299453513E-03    0.6843026110E-01    0.2474448054E-04    0.6166966569E+00
    0.1700000000E+08    0.6800668772E+00    0.4045817281E-03    0.6836242169E-01    0.2313413879E-04    0.6168054422E+00
    0.1900000000E+08    0.6800681136E+00    0.3832992860E-03    0.6830198077E-01    0.2179118650E-04    0.6169002397E+00
    0.2100000000E+08    0.6800691324E+00    0.3651063140E-03    0.6824747872E-01    0.2064946820E-04    0.6169841125E+00
    0.2300000000E+08    0.6800699883E+00    0.3493190420E-03    0.6819784989E-01    0.1966362555E-04    0.6170592312E+00
    0.2500000000E+08    0.6800707187E+00    0.3354486210E-03    0.6815229239E-01    0.1880139361E-04    0.6171271871E+00
    0.2700000000E+08    0.6800713505E+00    0.3231350057E-03    0.6811018750E-01    0.1803911757E-04    0.6171891801E+00
