  Pressure (Pa) 22mC5-400 (mol/kg) 2mC6-400 (mol/kg) 3mC6-400 (mol/kg) 33mC5-400 (mol/kg) C7-400 (mol/kg)
    0.1000000000E+01    0.3175800082E-02    0.1584152258E-02    0.2103670059E-02    0.3224682348E-03    0.5120507202E-02
    0.3000000000E+01    0.9404982921E-02    0.4617990941E-02    0.6152680867E-02    0.9401309251E-03    0.1497788754E-01
    0.5000000000E+01    0.1547689805E-01    0.7483457810E-02    0.1000382522E-01    0.1523642229E-02    0.2435578750E-01
    0.7000000000E+01    0.2139832356E-01    0.1019257131E-01    0.1367162142E-01    0.2075439066E-02    0.3328933576E-01
    0.9000000000E+01    0.2717564396E-01    0.1275624409E-01    0.1716919276E-01    0.2597733832E-02    0.4181028828E-01
    0.1100000000E+02    0.3281487826E-01    0.1518440846E-01    0.2050843147E-01    0.3092539916E-02    0.4994742431E-01
    0.1300000000E+02    0.3832170568E-01    0.1748612506E-01    0.2370013998E-01    0.3561693779E-02    0.5772688799E-01
    0.1500000000E+02    0.4370148931E-01    0.1966967713E-01    0.2675415323E-01    0.4006874124E-02    0.6517248383E-01
    0.1700000000E+02    0.4895929773E-01    0.2174265276E-01    0.2967944484E-01    0.4429618605E-02    0.7230593330E-01
    0.1900000000E+02    0.5409992496E-01    0.2371201673E-01    0.3248421954E-01    0.4831338435E-02    0.7914709840E-01
    0.2100000000E+02    0.5912790875E-01    0.2558417365E-01    0.3517599403E-01    0.5213331196E-02    0.8571417691E-01
    0.2300000000E+02    0.6404754755E-01    0.2736502335E-01    0.3776166776E-01    0.5576792108E-02    0.9202387364E-01
    0.2500000000E+02    0.6886291601E-01    0.2906000992E-01    0.4024758519E-01    0.5922823974E-02    0.9809155089E-01
    0.2700000000E+02    0.7357787944E-01    0.3067416495E-01    0.4263959061E-01    0.6252445972E-02    0.1039313610E+00
    0.2900000000E+02    0.7819610703E-01    0.3221214599E-01    0.4494307665E-01    0.6566601457E-02    0.1095563636E+00
    0.3100000000E+02    0.8272108421E-01    0.3367827074E-01    0.4716302718E-01    0.6866164900E-02    0.1149786293E+00
    0.3300000000E+02    0.8715612401E-01    0.3507654745E-01    0.4930405544E-01    0.7151948064E-02    0.1202093322E+00
    0.3500000000E+02    0.9150437761E-01    0.3641070220E-01    0.5137043797E-01    0.7424705536E-02    0.1252588313E+00
    0.3700000000E+02    0.9576884417E-01    0.3768420324E-01    0.5336614489E-01    0.7685139666E-02    0.1301367444E+00
    0.3900000000E+02    0.9995237986E-01    0.3890028286E-01    0.5529486691E-01    0.7933905004E-02    0.1348520130E+00
    0.4100000000E+02    0.1040577064E+00    0.4006195709E-01    0.5716003963E-01    0.8171612295E-02    0.1394129612E+00
    0.4300000000E+02    0.1080874188E+00    0.4117204336E-01    0.5896486521E-01    0.8398832068E-02    0.1438273481E+00
    0.4500000000E+02    0.1120439928E+00    0.4223317657E-01    0.6071233200E-01    0.8616097883E-02    0.1481024154E+00
    0.4700000000E+02    0.1159297917E+00    0.4324782351E-01    0.6240523215E-01    0.8823909262E-02    0.1522449297E+00
    0.4900000000E+02    0.1197470725E+00    0.4421829598E-01    0.6404617747E-01    0.9022734347E-02    0.1562612212E+00
    0.1000000000E+02    0.3001215924E-01    0.1398667927E-01    0.1885790452E-01    0.2848454272E-02    0.4592514125E-01
    0.3000000000E+02    0.8047004095E-01    0.3295393297E-01    0.4606319725E-01    0.6718155047E-02    0.1122921202E+00
    0.5000000000E+02    0.1216306964E+00    0.4468764980E-01    0.6484793753E-01    0.9118915341E-02    0.1582239009E+00
    0.7000000000E+02    0.1561826250E+00    0.5221674195E-01    0.7867402553E-01    0.1066415243E-01    0.1921078047E+00
    0.9000000000E+02    0.1858333214E+00    0.5712930548E-01    0.8932376394E-01    0.1167554470E-01    0.2182653523E+00
    0.1100000000E+03    0.2117217756E+00    0.6033362359E-01    0.9781038174E-01    0.1233722871E-01    0.2391552177E+00
    0.1300000000E+03    0.2346391383E+00    0.6238290018E-01    0.1047536485E+00    0.1276152108E-01    0.2562824673E+00
    0.1500000000E+03    0.2551539712E+00    0.6363052213E-01    0.1105546577E+00    0.1302031547E-01    0.2706218639E+00
    0.1700000000E+03    0.2736869152E+00    0.6431081440E-01    0.1154848844E+00    0.1316140462E-01    0.2828336547E+00
    0.1900000000E+03    0.2905570826E+00    0.6458386718E-01    0.1197349046E+00    0.1321753893E-01    0.2933816781E+00
    0.2100000000E+03    0.3060119192E+00    0.6456174697E-01    0.1234426218E+00    0.1321172386E-01    0.3026018192E+00
    0.2300000000E+03    0.3202470244E+00    0.6432448902E-01    0.1267104100E+00    0.1316045336E-01    0.3107436078E+00
    0.2500000000E+03    0.3334196637E+00    0.6393020770E-01    0.1296159490E+00    0.1307575553E-01    0.3179965193E+00
    0.2700000000E+03    0.3456582035E+00    0.6342168398E-01    0.1322193064E+00    0.1296652673E-01    0.3245071752E+00
    0.2900000000E+03    0.3570688386E+00    0.6283076995E-01    0.1345677049E+00    0.1283942480E-01    0.3303909253E+00
    0.3100000000E+03    0.3677404829E+00    0.6218140069E-01    0.1366988135E+00    0.1269948074E-01    0.3357398479E+00
    0.3300000000E+03    0.3777483859E+00    0.6149169471E-01    0.1386430706E+00    0.1255052611E-01    0.3406283997E+00
    0.3500000000E+03    0.3871568503E+00    0.6077544433E-01    0.1404253580E+00    0.1239549690E-01    0.3451174868E+00
    0.3700000000E+03    0.3960213029E+00    0.6004318949E-01    0.1420662268E+00    0.1223665301E-01    0.3492574501E+00
    0.3900000000E+03    0.4043898943E+00    0.5930300216E-01    0.1435828112E+00    0.1207573896E-01    0.3530902894E+00
    0.4100000000E+03    0.4123047502E+00    0.5856106626E-01    0.1449895184E+00    0.1191410312E-01    0.3566513445E+00
    0.4300000000E+03    0.4198029606E+00    0.5782211121E-01    0.1462985574E+00    0.1175278704E-01    0.3599705829E+00
    0.4500000000E+03    0.4269173707E+00    0.5708973917E-01    0.1475203475E+00    0.1159259315E-01    0.3630735974E+00
    0.4700000000E+03    0.4336772197E+00    0.5636667423E-01    0.1486638393E+00    0.1143413655E-01    0.3659823875E+00
    0.4900000000E+03    0.4401086605E+00    0.5565495379E-01    0.1497367679E+00    0.1127788485E-01    0.3687159780E+00
    0.1000000000E+03    0.1991920201E+00    0.5890442237E-01    0.9379214051E-01    0.1204186733E-01    0.2292587089E+00
    0.3000000000E+03    0.3624920467E+00    0.6251214337E-01    0.1356583708E+00    0.1277079450E-01    0.3331272275E+00
    0.5000000000E+03    0.4432086636E+00    0.5530383376E-01    0.1502489065E+00    0.1120069940E-01    0.3700223288E+00
    0.7000000000E+03    0.4925940399E+00    0.4906201233E-01    0.1580340159E+00    0.9818675047E-02    0.3900240430E+00
    0.9000000000E+03    0.5258349815E+00    0.4423873433E-01    0.1629873316E+00    0.8740576211E-02    0.4029309200E+00
    0.1100000000E+04    0.5495962459E+00    0.4049733409E-01    0.1664623072E+00    0.7900971027E-02    0.4121029841E+00
    0.1300000000E+04    0.5673354387E+00    0.3753149395E-01    0.1690571900E+00    0.7235290828E-02    0.4190345046E+00
    0.1500000000E+04    0.5810293856E+00    0.3512535566E-01    0.1710808822E+00    0.6696514309E-02    0.4245014169E+00
    0.1700000000E+04    0.5918869158E+00    0.3313181416E-01    0.1727104309E+00    0.6251931359E-02    0.4289508173E+00
    0.1900000000E+04    0.6006859903E+00    0.3144967390E-01    0.1740552446E+00    0.5878717493E-02    0.4326603914E+00
    0.2100000000E+04    0.6079481889E+00    0.3000788085E-01    0.1751869010E+00    0.5560683157E-02    0.4358126840E+00
    0.2300000000E+04    0.6140352263E+00    0.2875539736E-01    0.1761543708E+00    0.5286115326E-02    0.4385331636E+00
    0.2500000000E+04    0.6192052106E+00    0.2765474405E-01    0.1769923888E+00    0.5046369435E-02    0.4409112227E+00
    0.2700000000E+04    0.6236468779E+00    0.2667782734E-01    0.1777263363E+00    0.4834944407E-02    0.4430124634E+00
    0.2900000000E+04    0.6275011951E+00    0.2580319160E-01    0.1783752281E+00    0.4646865614E-02    0.4448862386E+00
    0.3100000000E+04    0.6308754246E+00    0.2501417133E-01    0.1789536151E+00    0.4478265731E-02    0.4465704689E+00
    0.3300000000E+04    0.6338525324E+00    0.2429762272E-01    0.1794728377E+00    0.4326094682E-02    0.4480948252E+00
    0.3500000000E+04    0.6364976352E+00    0.2364303581E-01    0.1799418760E+00    0.4187915303E-02    0.4494828943E+00
    0.3700000000E+04    0.6388625127E+00    0.2304190149E-01    0.1803679415E+00    0.4061756899E-02    0.4507536887E+00
    0.3900000000E+04    0.6409888261E+00    0.2248725246E-01    0.1807568973E+00    0.3946008631E-02    0.4519227234E+00
    0.4100000000E+04    0.6429104540E+00    0.2197332516E-01    0.1811135635E+00    0.3839340743E-02    0.4530027997E+00
    0.4300000000E+04    0.6446552144E+00    0.2149530710E-01    0.1814419420E+00    0.3740645545E-02    0.4540045839E+00
    0.4500000000E+04    0.6462461510E+00    0.2104914553E-01    0.1817453857E+00    0.3648992654E-02    0.4549370428E+00
    0.4700000000E+04    0.6477025081E+00    0.2063140077E-01    0.1820267261E+00    0.3563594628E-02    0.4558077761E+00
    0.4900000000E+04    0.6490404766E+00    0.2023913239E-01    0.1822883728E+00    0.3483780304E-02    0.4566232715E+00
    0.1000000000E+04    0.5386371381E+00    0.4225418543E-01    0.1648624413E+00    0.8295406840E-02    0.4078661715E+00
    0.3000000000E+04    0.6292426530E+00    0.2539887166E-01    0.1786724622E+00    0.4560337860E-02    0.4457500284E+00
    0.5000000000E+04    0.6496694350E+00    0.2005174716E-01    0.1824124677E+00    0.3445783849E-02    0.4570120787E+00
    0.7000000000E+04    0.6584705187E+00    0.1717910365E-01    0.1842346616E+00    0.2874395892E-02    0.4629053555E+00
    0.9000000000E+04    0.6633420165E+00    0.1530707157E-01    0.1853281669E+00    0.2513885147E-02    0.4666693694E+00
    0.1100000000E+05    0.6664280673E+00    0.1395841262E-01    0.1860609999E+00    0.2260234481E-02    0.4693396644E+00
    0.1300000000E+05    0.6685558231E+00    0.1292498553E-01    0.1865871524E+00    0.2069379215E-02    0.4713617903E+00
    0.1500000000E+05    0.6701107077E+00    0.1209923760E-01    0.1869831649E+00    0.1919088288E-02    0.4729628550E+00
    0.1700000000E+05    0.6712962034E+00    0.1141909959E-01    0.1872916389E+00    0.1796783473E-02    0.4742722492E+00
    0.1900000000E+05    0.6722297569E+00    0.1084584143E-01    0.1875382754E+00    0.1694745443E-02    0.4753697659E+00
    0.2100000000E+05    0.6729838577E+00    0.1035384603E-01    0.1877395469E+00    0.1607940136E-02    0.4763076243E+00
    0.2300000000E+05    0.6736056502E+00    0.9925385502E-02    0.1879065216E+00    0.1532926112E-02    0.4771216183E+00
    0.2500000000E+05    0.6741271113E+00    0.9547739706E-02    0.1880469233E+00    0.1467260299E-02    0.4778372110E+00
    0.2700000000E+05    0.6745706907E+00    0.9211507393E-02    0.1881663129E+00    0.1409154031E-02    0.4784730772E+00
    0.2900000000E+05    0.6749526109E+00    0.8909566531E-02    0.1882687989E+00    0.1357263654E-02    0.4790432662E+00
    0.3100000000E+05    0.6752848847E+00    0.8636407660E-02    0.1883574853E+00    0.1310557595E-02    0.4795585782E+00
    0.3300000000E+05    0.6755765967E+00    0.8387691539E-02    0.1884347615E+00    0.1268228956E-02    0.4800274712E+00
    0.3500000000E+05    0.6758347440E+00    0.8159946903E-02    0.1885024978E+00    0.1229636278E-02    0.4804566766E+00
    0.3700000000E+05    0.6760648023E+00    0.7950358650E-02    0.1885621796E+00    0.1194262342E-02    0.4808516280E+00
    0.3900000000E+05    0.6762711187E+00    0.7756616082E-02    0.1886150013E+00    0.1161684852E-02    0.4812167662E+00
    0.4100000000E+05    0.6764571874E+00    0.7576802040E-02    0.1886619349E+00    0.1131555153E-02    0.4815557615E+00
    0.4300000000E+05    0.6766258494E+00    0.7409310488E-02    0.1887037792E+00    0.1103582507E-02    0.4818716777E+00
    0.4500000000E+05    0.6767794381E+00    0.7252784300E-02    0.1887411968E+00    0.1077522287E-02    0.4821670953E+00
    0.4700000000E+05    0.6769198878E+00    0.7106067633E-02    0.1887747421E+00    0.1053166979E-02    0.4824442055E+00
    0.4900000000E+05    0.6770488154E+00    0.6968169001E-02    0.1888048823E+00    0.1030339250E-02    0.4827048827E+00
    0.1000000000E+05    0.6650410054E+00    0.1458374498E-01    0.1857273835E+00    0.2377204034E-02    0.4681059401E+00
    0.3000000000E+05    0.6751243287E+00    0.8769683898E-02    0.1883147036E+00    0.1333317480E-02    0.4793072066E+00
    0.5000000000E+05    0.6771093928E+00    0.6902254296E-02    0.1888188017E+00    0.1019449705E-02    0.4828295723E+00
    0.7000000000E+05    0.6779562597E+00    0.5889524430E-02    0.1889891210E+00    0.8539742708E-03    0.4847562636E+00
    0.9000000000E+05    0.6784258506E+00    0.5229056036E-02    0.1890490662E+00    0.7479985165E-03    0.4860308177E+00
    0.1100000000E+06    0.6787244342E+00    0.4754158555E-02    0.1890615614E+00    0.6728133026E-03    0.4869616797E+00
    0.1300000000E+06    0.6789310852E+00    0.4391248249E-02    0.1890507260E+00    0.6159653624E-03    0.4876842816E+00
    0.1500000000E+06    0.6790826300E+00    0.4102090017E-02    0.1890275409E+00    0.5710676267E-03    0.4882689216E+00
    0.1700000000E+06    0.6791985390E+00    0.3864569294E-02    0.1889975866E+00    0.5344641140E-03    0.4887563114E+00
    0.1900000000E+06    0.6792900738E+00    0.3664881124E-02    0.1889639207E+00    0.5038922328E-03    0.4891719329E+00
    0.2100000000E+06    0.6793642017E+00    0.3493899570E-02    0.1889283098E+00    0.4778672987E-03    0.4895326906E+00
    0.2300000000E+06    0.6794254643E+00    0.3345316067E-02    0.1888918139E+00    0.4553696017E-03    0.4898503180E+00
    0.2500000000E+06    0.6794769491E+00    0.3214610331E-02    0.1888550852E+00    0.4356726763E-03    0.4901332598E+00
    0.2700000000E+06    0.6795208282E+00    0.3098446597E-02    0.1888185307E+00    0.4182431906E-03    0.4903877770E+00
    0.2900000000E+06    0.6795586744E+00    0.2994301834E-02    0.1887824057E+00    0.4026796462E-03    0.4906186277E+00
    0.3100000000E+06    0.6795916544E+00    0.2900227395E-02    0.1887468686E+00    0.3886732824E-03    0.4908295050E+00
    0.3300000000E+06    0.6796206523E+00    0.2814690956E-02    0.1887120151E+00    0.3759822677E-03    0.4910233273E+00
    0.3500000000E+06    0.6796463499E+00    0.2736468590E-02    0.1886778995E+00    0.3644141537E-03    0.4912024371E+00
    0.3700000000E+06    0.6796692817E+00    0.2664569204E-02    0.1886445485E+00    0.3538136390E-03    0.4913687407E+00
    0.3900000000E+06    0.6796898727E+00    0.2598180460E-02    0.1886119707E+00    0.3440538427E-03    0.4915238084E+00
    0.4100000000E+06    0.6797084648E+00    0.2536629300E-02    0.1885801623E+00    0.3350299576E-03    0.4916689474E+00
    0.4300000000E+06    0.6797253365E+00    0.2479352636E-02    0.1885491113E+00    0.3266545526E-03    0.4918052567E+00
    0.4500000000E+06    0.6797407168E+00    0.2425875258E-02    0.1885188006E+00    0.3188540414E-03    0.4919336683E+00
    0.4700000000E+06    0.6797547955E+00    0.2375792925E-02    0.1884892096E+00    0.3115659891E-03    0.4920549787E+00
    0.4900000000E+06    0.6797677319E+00    0.2328759281E-02    0.1884603158E+00    0.3047370328E-03    0.4921698736E+00
    0.1000000000E+06    0.6785900895E+00    0.4974205621E-02    0.1890592764E+00    0.7075416580E-03    0.4865285382E+00
    0.3000000000E+06    0.6795757119E+00    0.2946109895E-02    0.1887645565E+00    0.3954982627E-03    0.4907263651E+00
    0.5000000000E+06    0.6797738144E+00    0.2306290741E-02    0.1884461231E+00    0.3014801130E-03    0.4922251041E+00
    0.7000000000E+06    0.6798591757E+00    0.1962163750E-02    0.1881932050E+00    0.2520529629E-03    0.4931028428E+00
    0.9000000000E+06    0.6799068347E+00    0.1738838852E-02    0.1879860636E+00    0.2204727523E-03    0.4937117698E+00
    0.1100000000E+07    0.6799373022E+00    0.1578798855E-02    0.1878109781E+00    0.1981093985E-03    0.4941730182E+00
    0.1300000000E+07    0.6799584851E+00    0.1456799676E-02    0.1876593639E+00    0.1812253844E-03    0.4945417996E+00
    0.1500000000E+07    0.6799740815E+00    0.1359779038E-02    0.1875256315E+00    0.1679068063E-03    0.4948476424E+00
    0.1700000000E+07    0.6799860533E+00    0.1280206262E-02    0.1874059658E+00    0.1570596866E-03    0.4951080808E+00
    0.1900000000E+07    0.6799955388E+00    0.1213392455E-02    0.1872976542E+00    0.1480078379E-03    0.4953343293E+00
    0.2100000000E+07    0.6800032440E+00    0.1156244548E-02    0.1871987010E+00    0.1403080460E-03    0.4955339698E+00
    0.2300000000E+07    0.6800096301E+00    0.1106628188E-02    0.1871075958E+00    0.1336562023E-03    0.4957123550E+00
    0.2500000000E+07    0.6800150116E+00    0.1063016387E-02    0.1870231681E+00    0.1278358432E-03    0.4958733966E+00
    0.2700000000E+07    0.6800196098E+00    0.1024283794E-02    0.1869444921E+00    0.1226881787E-03    0.4960200354E+00
    0.2900000000E+07    0.6800235855E+00    0.9895802369E-03    0.1868708233E+00    0.1180937558E-03    0.4961545352E+00
    0.3100000000E+07    0.6800270583E+00    0.9582497744E-03    0.1868015535E+00    0.1139607725E-03    0.4962786739E+00
    0.3300000000E+07    0.6800301186E+00    0.9297770830E-03    0.1867361797E+00    0.1102173691E-03    0.4963938721E+00
    0.3500000000E+07    0.6800328365E+00    0.9037508995E-03    0.1866742810E+00    0.1068063918E-03    0.4965012818E+00
    0.3700000000E+07    0.6800352671E+00    0.8798384515E-03    0.1866155015E+00    0.1036817419E-03    0.4966018494E+00
    0.3900000000E+07    0.6800374539E+00    0.8577671749E-03    0.1865595378E+00    0.1008057749E-03    0.4966963617E+00
    0.4100000000E+07    0.6800394325E+00    0.8373113824E-03    0.1865061289E+00    0.9814740849E-04    0.4967854794E+00
    0.4300000000E+07    0.6800412314E+00    0.8182823738E-03    0.1864550485E+00    0.9568072454E-04    0.4968697623E+00
    0.4500000000E+07    0.6800428743E+00    0.8005209830E-03    0.1864060997E+00    0.9338391716E-04    0.4969496890E+00
    0.4700000000E+07    0.6800443810E+00    0.7838918841E-03    0.1863591092E+00    0.9123849168E-04    0.4970256713E+00
    0.4900000000E+07    0.6800457679E+00    0.7682791835E-03    0.1863139246E+00    0.8922864606E-04    0.4970980663E+00
    0.1000000000E+07    0.6799235753E+00    0.1652898764E-02    0.1878951403E+00    0.2084345907E-03    0.4939565419E+00
    0.3000000000E+07    0.6800253786E+00    0.9735283787E-03    0.1868356721E+00    0.1159744720E-03    0.4962178037E+00
    0.5000000000E+07    0.6800464209E+00    0.7608222149E-03    0.1862919665E+00    0.8827024274E-04    0.4971330175E+00
    0.7000000000E+07    0.6800556550E+00    0.6467243948E-03    0.1859215431E+00    0.7373735941E-04    0.4977020205E+00
    0.9000000000E+07    0.6800608874E+00    0.5727912022E-03    0.1856396702E+00    0.6446382239E-04    0.4981123943E+00
    0.1100000000E+08    0.6800642754E+00    0.5198621528E-03    0.1854118401E+00    0.5790253546E-04    0.4984321770E+00
    0.1300000000E+08    0.6800666579E+00    0.4795436246E-03    0.1852205110E+00    0.5295204358E-04    0.4986935513E+00
    0.1500000000E+08    0.6800684302E+00    0.4474981155E-03    0.1850555225E+00    0.4904891425E-04    0.4989142276E+00
    0.1700000000E+08    0.6800698038E+00    0.4212274186E-03    0.1849104533E+00    0.4587135401E-04    0.4991049695E+00
    0.1900000000E+08    0.6800709017E+00    0.3991772581E-03    0.1847809830E+00    0.4322059165E-04    0.4992727958E+00
    0.2100000000E+08    0.6800718011E+00    0.3803229887E-03    0.1846640638E+00    0.4096641016E-04    0.4994225321E+00
    0.2300000000E+08    0.6800725523E+00    0.3639579334E-03    0.1845574643E+00    0.3901950234E-04    0.4995576351E+00
    0.2500000000E+08    0.6800731901E+00    0.3495767386E-03    0.1844595011E+00    0.3731632436E-04    0.4996806638E+00
    0.2700000000E+08    0.6800737390E+00    0.3368071174E-03    0.1843688732E+00    0.3581027842E-04    0.4997935645E+00
