  Pressure (Pa) 22mC5-400 (mol/kg) 2mC6-400 (mol/kg) 3mC6-400 (mol/kg) 33mC5-400 (mol/kg) C7-400 (mol/kg)
    0.1000000000E+01    0.3176607066E-02    0.1578510249E-02    0.3664897349E-02    0.6426714010E-04    0.6796847682E-02
    0.3000000000E+01    0.9412010152E-02    0.4570406659E-02    0.1062707565E-01    0.1861169521E-03    0.1971192840E-01
    0.5000000000E+01    0.1549579337E-01    0.7359355351E-02    0.1713934817E-01    0.2997519351E-03    0.3179637708E-01
    0.7000000000E+01    0.2143418873E-01    0.9963780055E-02    0.2324461814E-01    0.4059185484E-03    0.4312928024E-01
    0.9000000000E+01    0.2723308329E-01    0.1239989916E-01    0.2898048110E-01    0.5052736881E-03    0.5377994800E-01
    0.1100000000E+02    0.3289804259E-01    0.1468205224E-01    0.3438002195E-01    0.5983979720E-03    0.6380938153E-01
    0.1300000000E+02    0.3843433225E-01    0.1682296966E-01    0.3947247251E-01    0.6858067050E-03    0.7327148367E-01
    0.1500000000E+02    0.4384693787E-01    0.1883399655E-01    0.4428375726E-01    0.7679589872E-03    0.8221406381E-01
    0.1700000000E+02    0.4914058333E-01    0.2072527997E-01    0.4883694885E-01    0.8452653222E-03    0.9067967676E-01
    0.1900000000E+02    0.5431974772E-01    0.2250592614E-01    0.5315265034E-01    0.9180940086E-03    0.9870632655E-01
    0.2100000000E+02    0.5938868098E-01    0.2418413324E-01    0.5724931747E-01    0.9867765361E-03    0.1063280601E+00
    0.2300000000E+02    0.6435141835E-01    0.2576730414E-01    0.6114353184E-01    0.1051612164E-02    0.1135754701E+00
    0.2500000000E+02    0.6921179377E-01    0.2726214246E-01    0.6485023326E-01    0.1112871824E-02    0.1204761235E+00
    0.2700000000E+02    0.7397345222E-01    0.2867473490E-01    0.6838291846E-01    0.1170801462E-02    0.1270549268E+00
    0.2900000000E+02    0.7863986131E-01    0.3001062197E-01    0.7175381156E-01    0.1225624910E-02    0.1333344406E+00
    0.3100000000E+02    0.8321432187E-01    0.3127485913E-01    0.7497401088E-01    0.1277546366E-02    0.1393351503E+00
    0.3300000000E+02    0.8769997792E-01    0.3247206972E-01    0.7805361595E-01    0.1326752542E-02    0.1450756993E+00
    0.3500000000E+02    0.9209982584E-01    0.3360649100E-01    0.8100183763E-01    0.1373414533E-02    0.1505730925E+00
    0.3700000000E+02    0.9641672303E-01    0.3468201436E-01    0.8382709395E-01    0.1417689445E-02    0.1558428730E+00
    0.3900000000E+02    0.1006533958E+00    0.3570222054E-01    0.8653709389E-01    0.1459721824E-02    0.1608992759E+00
    0.4100000000E+02    0.1048124470E+00    0.3667041048E-01    0.8913891062E-01    0.1499644905E-02    0.1657553640E+00
    0.4300000000E+02    0.1088963626E+00    0.3758963261E-01    0.9163904594E-01    0.1537581721E-02    0.1704231459E+00
    0.4500000000E+02    0.1129075187E+00    0.3846270687E-01    0.9404348697E-01    0.1573646071E-02    0.1749136808E+00
    0.4700000000E+02    0.1168481872E+00    0.3929224606E-01    0.9635775625E-01    0.1607943391E-02    0.1792371710E+00
    0.4900000000E+02    0.1207205415E+00    0.4008067474E-01    0.9858695606E-01    0.1640571511E-02    0.1834030434E+00
    0.1000000000E+02    0.3008196895E-01    0.1355939091E-01    0.3172038137E-01    0.5525810645E-03    0.5886879643E-01
    0.3000000000E+02    0.8093838509E-01    0.3065139828E-01    0.7338209468E-01    0.1251936331E-02    0.1363684401E+00
    0.5000000000E+02    0.1226317545E+00    0.4046018304E-01    0.9967114423E-01    0.1656288285E-02    0.1854296248E+00
    0.7000000000E+02    0.1577308488E+00    0.4636264961E-01    0.1178664603E+00    0.1901978700E-02    0.2194932934E+00
    0.9000000000E+02    0.1878943756E+00    0.4995586289E-01    0.1312617565E+00    0.2053455856E-02    0.2446482506E+00
    0.1100000000E+03    0.2142432912E+00    0.5209701665E-01    0.1415683404E+00    0.2145341537E-02    0.2640614985E+00
    0.1300000000E+03    0.2375643901E+00    0.5328650113E-01    0.1497654326E+00    0.2197888563E-02    0.2795471654E+00
    0.1500000000E+03    0.2584279209E+00    0.5383432247E-01    0.1564548585E+00    0.2223683717E-02    0.2922213947E+00
    0.1700000000E+03    0.2772587199E+00    0.5394119582E-01    0.1620274747E+00    0.2230909942E-02    0.3028098319E+00
    0.1900000000E+03    0.2943809411E+00    0.5374153465E-01    0.1667485182E+00    0.2225074628E-02    0.3118054175E+00
    0.2100000000E+03    0.3100471389E+00    0.5332775679E-01    0.1708045407E+00    0.2209986755E-02    0.3195552161E+00
    0.2300000000E+03    0.3244577372E+00    0.5276474373E-01    0.1743307148E+00    0.2188338464E-02    0.3263109647E+00
    0.2500000000E+03    0.3377744028E+00    0.5209880360E-01    0.1774274774E+00    0.2162065944E-02    0.3322599016E+00
    0.2700000000E+03    0.3501294411E+00    0.5136341926E-01    0.1801710781E+00    0.2132581225E-02    0.3375443190E+00
    0.2900000000E+03    0.3616325363E+00    0.5058304146E-01    0.1826204915E+00    0.2100925448E-02    0.3422743824E+00
    0.3100000000E+03    0.3723756745E+00    0.4977565338E-01    0.1848220792E+00    0.2067872752E-02    0.3465367832E+00
    0.3300000000E+03    0.3824368019E+00    0.4895454136E-01    0.1868128137E+00    0.2034002209E-02    0.3504007247E+00
    0.3500000000E+03    0.3918825841E+00    0.4812953965E-01    0.1886225577E+00    0.1999748579E-02    0.3539221579E+00
    0.3700000000E+03    0.4007705168E+00    0.4730791954E-01    0.1902757073E+00    0.1965438687E-02    0.3571468366E+00
    0.3900000000E+03    0.4091505629E+00    0.4649503327E-01    0.1917923979E+00    0.1931317900E-02    0.3601125608E+00
    0.4100000000E+03    0.4170664350E+00    0.4569478616E-01    0.1931894026E+00    0.1897569617E-02    0.3628508490E+00
    0.4300000000E+03    0.4245566143E+00    0.4490998642E-01    0.1944808120E+00    0.1864329801E-02    0.3653882043E+00
    0.4500000000E+03    0.4316551660E+00    0.4414260691E-01    0.1956785537E+00    0.1831697900E-02    0.3677470835E+00
    0.4700000000E+03    0.4383923996E+00    0.4339398265E-01    0.1967927960E+00    0.1799745156E-02    0.3699466487E+00
    0.4900000000E+03    0.4447954080E+00    0.4266496083E-01    0.1978322634E+00    0.1768520945E-02    0.3720033572E+00
    0.1000000000E+03    0.2014903263E+00    0.5117085684E-01    0.1367282667E+00    0.2105347670E-02    0.2549376295E+00
    0.3000000000E+03    0.3670939353E+00    0.5018179988E-01    0.1837497631E+00    0.2084533629E-02    0.3444593621E+00
    0.5000000000E+03    0.4478792756E+00    0.4230796104E-01    0.1983263507E+00    0.1753192718E-02    0.3729826601E+00
    0.7000000000E+03    0.4967897980E+00    0.3619635965E-01    0.2056633074E+00    0.1487264570E-02    0.3876805690E+00
    0.9000000000E+03    0.5294798555E+00    0.3171981987E-01    0.2101472513E+00    0.1288789397E-02    0.3968569768E+00
    0.1100000000E+04    0.5527392713E+00    0.2837805775E-01    0.2131964691E+00    0.1139017381E-02    0.4032227686E+00
    0.1300000000E+04    0.5700512147E+00    0.2581019575E-01    0.2154159340E+00    0.1023281499E-02    0.4079445041E+00
    0.1500000000E+04    0.5833890916E+00    0.2378159219E-01    0.2171095279E+00    0.9316602050E-03    0.4116129994E+00
    0.1700000000E+04    0.5939511399E+00    0.2213954006E-01    0.2184475144E+00    0.8575267133E-03    0.4145618818E+00
    0.1900000000E+04    0.6025043220E+00    0.2078235628E-01    0.2195330931E+00    0.7963850967E-03    0.4169948874E+00
    0.2100000000E+04    0.6095606968E+00    0.1964045962E-01    0.2204326472E+00    0.7451153277E-03    0.4190440179E+00
    0.2300000000E+04    0.6154742315E+00    0.1866494463E-01    0.2211909158E+00    0.7015008830E-03    0.4207988593E+00
    0.2500000000E+04    0.6204968748E+00    0.1782057641E-01    0.2218392050E+00    0.6639316861E-03    0.4223225269E+00
    0.2700000000E+04    0.6248125023E+00    0.1708139384E-01    0.2224001106E+00    0.6312140115E-03    0.4236608771E+00
    0.2900000000E+04    0.6285582442E+00    0.1642787954E-01    0.2228903699E+00    0.6024462245E-03    0.4248480977E+00
    0.3100000000E+04    0.6318383220E+00    0.1584509308E-01    0.2233226576E+00    0.5769357757E-03    0.4259102426E+00
    0.3300000000E+04    0.6347332780E+00    0.1532141056E-01    0.2237067562E+00    0.5541425810E-03    0.4268675458E+00
    0.3500000000E+04    0.6373062836E+00    0.1484765554E-01    0.2240503421E+00    0.5336396334E-03    0.4277359819E+00
    0.3700000000E+04    0.6396075458E+00    0.1441648760E-01    0.2243595273E+00    0.5150850989E-03    0.4285283465E+00
    0.3900000000E+04    0.6416774458E+00    0.1402196461E-01    0.2246392412E+00    0.4982022124E-03    0.4292550202E+00
    0.4100000000E+04    0.6435488129E+00    0.1365922396E-01    0.2248935054E+00    0.4827645666E-03    0.4299245216E+00
    0.4300000000E+04    0.6452485988E+00    0.1332424697E-01    0.2251256350E+00    0.4685851923E-03    0.4305439126E+00
    0.4500000000E+04    0.6467991277E+00    0.1301368234E-01    0.2253383880E+00    0.4555083462E-03    0.4311191021E+00
    0.4700000000E+04    0.6482190424E+00    0.1272471212E-01    0.2255340787E+00    0.4434032580E-03    0.4316550757E+00
    0.4900000000E+04    0.6495240282E+00    0.1245494870E-01    0.2257146638E+00    0.4321593165E-03    0.4321560721E+00
    0.1000000000E+04    0.5420222350E+00    0.2993317599E-01    0.2118031079E+00    0.1208859188E-02    0.4002986744E+00
    0.3000000000E+04    0.6302509874E+00    0.1612843785E-01    0.2231130917E+00    0.5893206325E-03    0.4253934248E+00
    0.5000000000E+04    0.6501376563E+00    0.1232662104E-01    0.2257998223E+00    0.4268302827E-03    0.4323946085E+00
    0.7000000000E+04    0.6587383358E+00    0.1040139874E-01    0.2270089449E+00    0.3485603987E-03    0.4359867026E+00
    0.9000000000E+04    0.6635134098E+00    0.9186642865E-02    0.2276883853E+00    0.3009800844E-03    0.4382622214E+00
    0.1100000000E+05    0.6665455092E+00    0.8329052235E-02    0.2281169459E+00    0.2683201871E-03    0.4398712714E+00
    0.1300000000E+05    0.6686399625E+00    0.7680967173E-02    0.2284069874E+00    0.2441742945E-03    0.4410888692E+00
    0.1500000000E+05    0.6701728237E+00    0.7168325193E-02    0.2286126598E+00    0.2254089059E-03    0.4420536265E+00
    0.1700000000E+05    0.6713429928E+00    0.6749312861E-02    0.2287633030E+00    0.2102930345E-03    0.4428438902E+00
    0.1900000000E+05    0.6722654537E+00    0.6398275534E-02    0.2288761931E+00    0.1977844292E-03    0.4435076969E+00
    0.2100000000E+05    0.6730112727E+00    0.6098469405E-02    0.2289621580E+00    0.1872138878E-03    0.4440763490E+00
    0.2300000000E+05    0.6736267245E+00    0.5838431857E-02    0.2290283210E+00    0.1781297990E-03    0.4445712342E+00
    0.2500000000E+05    0.6741432290E+00    0.5610011447E-02    0.2290795546E+00    0.1702150449E-03    0.4450075308E+00
    0.2700000000E+05    0.6745828655E+00    0.5407228712E-02    0.2291192992E+00    0.1632396097E-03    0.4453963510E+00
    0.2900000000E+05    0.6749616025E+00    0.5225582781E-02    0.2291500499E+00    0.1570320942E-03    0.4457460438E+00
    0.3100000000E+05    0.6752912734E+00    0.5061611079E-02    0.2291736569E+00    0.1514618353E-03    0.4460630217E+00
    0.3300000000E+05    0.6755808337E+00    0.4912599605E-02    0.2291915193E+00    0.1464272613E-03    0.4463523033E+00
    0.3500000000E+05    0.6758371849E+00    0.4776386427E-02    0.2292047129E+00    0.1418480710E-03    0.4466178818E+00
    0.3700000000E+05    0.6760657315E+00    0.4651224863E-02    0.2292140769E+00    0.1376598350E-03    0.4468629796E+00
    0.3900000000E+05    0.6762707658E+00    0.4535686002E-02    0.2292202746E+00    0.1338101815E-03    0.4470902308E+00
    0.4100000000E+05    0.6764557402E+00    0.4428587868E-02    0.2292238361E+00    0.1302560447E-03    0.4473018127E+00
    0.4300000000E+05    0.6766234625E+00    0.4328943002E-02    0.2292251895E+00    0.1269616436E-03    0.4474995435E+00
    0.4500000000E+05    0.6767762401E+00    0.4235919047E-02    0.2292246840E+00    0.1238969718E-03    0.4476849550E+00
    0.4700000000E+05    0.6769159864E+00    0.4148808700E-02    0.2292226062E+00    0.1210366532E-03    0.4478593489E+00
    0.4900000000E+05    0.6770443017E+00    0.4067006495E-02    0.2292191934E+00    0.1183590629E-03    0.4480238390E+00
    0.1000000000E+05    0.6651819257E+00    0.8724961116E-02    0.2279249835E+00    0.2832989173E-03    0.4391281943E+00
    0.3000000000E+05    0.6751319553E+00    0.5141572163E-02    0.2291626501E+00    0.1541742316E-03    0.4459082807E+00
    0.5000000000E+05    0.6771046025E+00    0.4027930033E-02    0.2292170496E+00    0.1170828875E-03    0.4481026755E+00
    0.7000000000E+05    0.6779484217E+00    0.3429443508E-02    0.2291381997E+00    0.9777524625E-04    0.4493355178E+00
    0.9000000000E+05    0.6784170774E+00    0.3040910391E-02    0.2290326273E+00    0.8548790059E-04    0.4501693586E+00
    0.1100000000E+06    0.6787154099E+00    0.2762332529E-02    0.2289241154E+00    0.7680405503E-04    0.4507898565E+00
    0.1300000000E+06    0.6789220730E+00    0.2549862818E-02    0.2288193818E+00    0.7025532492E-04    0.4512793654E+00
    0.1500000000E+06    0.6790737395E+00    0.2380816529E-02    0.2287203075E+00    0.6509309388E-04    0.4516810559E+00
    0.1700000000E+06    0.6791898155E+00    0.2242113662E-02    0.2286271777E+00    0.6089065750E-04    0.4520201628E+00
    0.1900000000E+06    0.6792815336E+00    0.2125608096E-02    0.2285397252E+00    0.5738477392E-04    0.4523126196E+00
    0.2100000000E+06    0.6793558473E+00    0.2025924624E-02    0.2284575065E+00    0.5440313356E-04    0.4525690834E+00
    0.2300000000E+06    0.6794172917E+00    0.1939353012E-02    0.2283800453E+00    0.5182762618E-04    0.4527970082E+00
    0.2500000000E+06    0.6794689510E+00    0.1863238059E-02    0.2283068870E+00    0.4957424539E-04    0.4530017980E+00
    0.2700000000E+06    0.6795129961E+00    0.1795622401E-02    0.2282376180E+00    0.4758140331E-04    0.4531874866E+00
    0.2900000000E+06    0.6795509995E+00    0.1735026907E-02    0.2281718693E+00    0.4580279058E-04    0.4533571597E+00
    0.3100000000E+06    0.6795841281E+00    0.1680310078E-02    0.2281093150E+00    0.4420283063E-04    0.4535132270E+00
    0.3300000000E+06    0.6796132661E+00    0.1630574913E-02    0.2280496682E+00    0.4275368361E-04    0.4536576036E+00
    0.3500000000E+06    0.6796390960E+00    0.1585105384E-02    0.2279926758E+00    0.4143321216E-04    0.4537918356E+00
    0.3700000000E+06    0.6796621529E+00    0.1543321995E-02    0.2279381150E+00    0.4022356450E-04    0.4539171876E+00
    0.3900000000E+06    0.6796828621E+00    0.1504750004E-02    0.2278857884E+00    0.3911016496E-04    0.4540347067E+00
    0.4100000000E+06    0.6797015661E+00    0.1468996245E-02    0.2278355212E+00    0.3808098044E-04    0.4541452689E+00
    0.4300000000E+06    0.6797185439E+00    0.1435731924E-02    0.2277871574E+00    0.3712597804E-04    0.4542496140E+00
    0.4500000000E+06    0.6797340249E+00    0.1404679665E-02    0.2277405580E+00    0.3623671754E-04    0.4543483723E+00
    0.4700000000E+06    0.6797481994E+00    0.1375603599E-02    0.2276955983E+00    0.3540604085E-04    0.4544420847E+00
    0.4900000000E+06    0.6797612269E+00    0.1348301694E-02    0.2276521663E+00    0.3462783242E-04    0.4545312187E+00
    0.1000000000E+06    0.6785811416E+00    0.2891334760E-02    0.2289781380E+00    0.8081185144E-04    0.4504998039E+00
    0.3000000000E+06    0.6795681123E+00    0.1706994594E-02    0.2281402117E+00    0.4498237282E-04    0.4534367645E+00
    0.5000000000E+06    0.6797673534E+00    0.1335260668E-02    0.2276309912E+00    0.3425673084E-04    0.4545741980E+00
    0.7000000000E+06    0.6798534194E+00    0.1135636271E-02    0.2272676807E+00    0.2862852912E-04    0.4552692365E+00
    0.9000000000E+06    0.6799015651E+00    0.1006194128E-02    0.2269846377E+00    0.2503592737E-04    0.4557654165E+00
    0.1100000000E+07    0.6799323945E+00    0.9134806101E-03    0.2267524589E+00    0.2249332544E-04    0.4561493683E+00
    0.1300000000E+07    0.6799538601E+00    0.8428299408E-03    0.2265554546E+00    0.2057445898E-04    0.4564615650E+00
    0.1500000000E+07    0.6799696855E+00    0.7866593121E-03    0.2263842558E+00    0.1906124103E-04    0.4567240820E+00
    0.1700000000E+07    0.6799818478E+00    0.7405995179E-03    0.2262328135E+00    0.1782909355E-04    0.4569502429E+00
    0.1900000000E+07    0.6799914950E+00    0.7019312892E-03    0.2260969925E+00    0.1680105202E-04    0.4571486884E+00
    0.2100000000E+07    0.6799993398E+00    0.6688614476E-03    0.2259738388E+00    0.1592668837E-04    0.4573253316E+00
    0.2300000000E+07    0.6800058482E+00    0.6401529669E-03    0.2258611677E+00    0.1517141234E-04    0.4574843915E+00
    0.2500000000E+07    0.6800113378E+00    0.6149210423E-03    0.2257573175E+00    0.1451060900E-04    0.4576289812E+00
    0.2700000000E+07    0.6800160328E+00    0.5925137257E-03    0.2256609944E+00    0.1392622558E-04    0.4577614613E+00
    0.2900000000E+07    0.6800200956E+00    0.5724385711E-03    0.2255711710E+00    0.1340468399E-04    0.4578836633E+00
    0.3100000000E+07    0.6800236473E+00    0.5543156928E-03    0.2254870177E+00    0.1293555088E-04    0.4579970359E+00
    0.3300000000E+07    0.6800267797E+00    0.5378466828E-03    0.2254078550E+00    0.1251066053E-04    0.4581027444E+00
    0.3500000000E+07    0.6800295638E+00    0.5227934183E-03    0.2253331190E+00    0.1212351904E-04    0.4582017395E+00
    0.3700000000E+07    0.6800320553E+00    0.5089632432E-03    0.2252623367E+00    0.1176888923E-04    0.4582948071E+00
    0.3900000000E+07    0.6800342987E+00    0.4961983727E-03    0.2251951075E+00    0.1144249477E-04    0.4583826035E+00
    0.4100000000E+07    0.6800363297E+00    0.4843681699E-03    0.2251310889E+00    0.1114080513E-04    0.4584656830E+00
    0.4300000000E+07    0.6800381775E+00    0.4733634153E-03    0.2250699857E+00    0.1086087656E-04    0.4585445172E+00
    0.4500000000E+07    0.6800398663E+00    0.4630919905E-03    0.2250115420E+00    0.1060023257E-04    0.4586195112E+00
    0.4700000000E+07    0.6800414160E+00    0.4534755796E-03    0.2249555343E+00    0.1035677285E-04    0.4586910151E+00
    0.4900000000E+07    0.6800428434E+00    0.4444471163E-03    0.2249017660E+00    0.1012870299E-04    0.4587593336E+00
    0.1000000000E+07    0.6799184988E+00    0.9564029823E-03    0.2268633725E+00    0.2366710162E-04    0.4559682789E+00
    0.3000000000E+07    0.6800219290E+00    0.5631533714E-03    0.2255284311E+00    0.1316412183E-04    0.4579413747E+00
    0.5000000000E+07    0.6800435157E+00    0.4401349824E-03    0.2248756667E+00    0.1001994839E-04    0.4587923829E+00
    0.7000000000E+07    0.6800530483E+00    0.3741598500E-03    0.2244380654E+00    0.8370932818E-05    0.4593364129E+00
    0.9000000000E+07    0.6800584762E+00    0.3314123530E-03    0.2241080051E+00    0.7318756612E-05    0.4597356012E+00
    0.1100000000E+08    0.6800620051E+00    0.3008100615E-03    0.2238427605E+00    0.6574328467E-05    0.4600504753E+00
    0.1300000000E+08    0.6800644953E+00    0.2774989755E-03    0.2236209300E+00    0.6012657376E-05    0.4603102233E+00
    0.1500000000E+08    0.6800663534E+00    0.2589710051E-03    0.2234302393E+00    0.5569812808E-05    0.4605311407E+00
    0.1700000000E+08    0.6800677973E+00    0.2437817041E-03    0.2232629880E+00    0.5209284515E-05    0.4607232443E+00
    0.1900000000E+08    0.6800689543E+00    0.2310324434E-03    0.2231140240E+00    0.4908521157E-05    0.4608931277E+00
    0.2100000000E+08    0.6800699042E+00    0.2201308272E-03    0.2229797293E+00    0.4652749551E-05    0.4610453598E+00
    0.2300000000E+08    0.6800706992E+00    0.2106683014E-03    0.2228574650E+00    0.4431837944E-05    0.4611832357E+00
    0.2500000000E+08    0.6800713753E+00    0.2023527080E-03    0.2227452466E+00    0.4238577475E-05    0.4613092094E+00
    0.2700000000E+08    0.6800719582E+00    0.1949688208E-03    0.2226415442E+00    0.4067681802E-05    0.4614251570E+00
