  Pressure (Pa) 22mC5-400 (mol/kg) 2mC6-400 (mol/kg) 3mC6-400 (mol/kg) 33mC5-400 (mol/kg) C7-400 (mol/kg)
    0.1000000000E+01    0.3175399768E-02    0.1590383842E-02    0.2113900560E-02    0.4532083260E-03    0.1715095478E-02
    0.3000000000E+01    0.9401500469E-02    0.4671606178E-02    0.6240969937E-02    0.1331258696E-02    0.5063914762E-02
    0.5000000000E+01    0.1546754324E-01    0.7625973320E-02    0.1023921339E-01    0.2173157306E-02    0.8308661691E-02
    0.7000000000E+01    0.2138058377E-01    0.1046012101E-01    0.1411483683E-01    0.2980791381E-02    0.1145434283E-01
    0.9000000000E+01    0.2714725866E-01    0.1318024969E-01    0.1787364985E-01    0.3755924405E-02    0.1450564521E-01
    0.1100000000E+02    0.3277381596E-01    0.1579215891E-01    0.2152109691E-01    0.4500205916E-02    0.1746696152E-01
    0.1300000000E+02    0.3826614320E-01    0.1830127863E-01    0.2506228569E-01    0.5215180387E-02    0.2034241295E-01
    0.1500000000E+02    0.4362979298E-01    0.2071269760E-01    0.2850201284E-01    0.5902295308E-02    0.2313586986E-01
    0.1700000000E+02    0.4887000641E-01    0.2303118922E-01    0.3184478735E-01    0.6562908534E-02    0.2585097073E-01
    0.1900000000E+02    0.5399173466E-01    0.2526123513E-01    0.3509485186E-01    0.7198294984E-02    0.2849113926E-01
    0.2100000000E+02    0.5899965875E-01    0.2740704669E-01    0.3825620218E-01    0.7809652757E-02    0.3105960009E-01
    0.2300000000E+02    0.6389820768E-01    0.2947258463E-01    0.4133260497E-01    0.8398108713E-02    0.3355939313E-01
    0.2500000000E+02    0.6869157525E-01    0.3146157708E-01    0.4432761403E-01    0.8964723594E-02    0.3599338661E-01
    0.2700000000E+02    0.7338373543E-01    0.3337753598E-01    0.4724458521E-01    0.9510496695E-02    0.3836428911E-01
    0.2900000000E+02    0.7797845664E-01    0.3522377224E-01    0.5008669001E-01    0.1003637017E-01    0.4067466057E-01
    0.3100000000E+02    0.8247931487E-01    0.3700340958E-01    0.5285692815E-01    0.1054323296E-01    0.4292692236E-01
    0.3300000000E+02    0.8688970586E-01    0.3871939733E-01    0.5555813911E-01    0.1103192445E-01    0.4512336663E-01
    0.3500000000E+02    0.9121285633E-01    0.4037452211E-01    0.5819301269E-01    0.1150323776E-01    0.4726616479E-01
    0.3700000000E+02    0.9545183444E-01    0.4197141868E-01    0.6076409882E-01    0.1195792284E-01    0.4935737546E-01
    0.3900000000E+02    0.9960955938E-01    0.4351257993E-01    0.6327381658E-01    0.1239668934E-01    0.5139895166E-01
    0.4100000000E+02    0.1036888104E+00    0.4500036604E-01    0.6572446249E-01    0.1282020915E-01    0.5339274761E-01
    0.4300000000E+02    0.1076922352E+00    0.4643701303E-01    0.6811821827E-01    0.1322911888E-01    0.5534052488E-01
    0.4500000000E+02    0.1116223575E+00    0.4782464062E-01    0.7045715789E-01    0.1362402209E-01    0.5724395814E-01
    0.4700000000E+02    0.1154815844E+00    0.4916525948E-01    0.7274325425E-01    0.1400549133E-01    0.5910464050E-01
    0.4900000000E+02    0.1192722130E+00    0.5046077806E-01    0.7497838523E-01    0.1437407007E-01    0.6092408842E-01
    0.1000000000E+02    0.2997767590E-01    0.1449938404E-01    0.1971096731E-01    0.4131822706E-02    0.1599728794E-01
    0.3000000000E+02    0.8024040231E-01    0.3612172750E-01    0.5148061132E-01    0.1029212432E-01    0.4180790899E-01
    0.5000000000E+02    0.1211424922E+00    0.5109219471E-01    0.7607740097E-01    0.1455368784E-01    0.6181880355E-01
    0.7000000000E+02    0.1554305855E+00    0.6174788864E-01    0.9577453454E-01    0.1758185086E-01    0.7786530573E-01
    0.9000000000E+02    0.1848351884E+00    0.6948228589E-01    0.1119675070E+00    0.1977367762E-01    0.9107463462E-01
    0.1100000000E+03    0.2105034498E+00    0.7517117752E-01    0.1255617915E+00    0.2137900019E-01    0.1021785238E+00
    0.1300000000E+03    0.2332282313E+00    0.7938867622E-01    0.1371714382E+00    0.2256180498E-01    0.1116734230E+00
    0.1500000000E+03    0.2535770349E+00    0.8252430788E-01    0.1472281615E+00    0.2343351503E-01    0.1199085193E+00
    0.1700000000E+03    0.2719683368E+00    0.8485001947E-01    0.1560447330E+00    0.2407204232E-01    0.1271369045E+00
    0.1900000000E+03    0.2887187465E+00    0.8656029144E-01    0.1638535783E+00    0.2453319783E-01    0.1335467356E+00
    0.2100000000E+03    0.3040732188E+00    0.8779708001E-01    0.1708312144E+00    0.2485779034E-01    0.1392809704E+00
    0.2300000000E+03    0.3182250252E+00    0.8866583939E-01    0.1771142486E+00    0.2507618945E-01    0.1444502912E+00
    0.2500000000E+03    0.3313293229E+00    0.8924610748E-01    0.1828101593E+00    0.2521134267E-01    0.1491418157E+00
    0.2700000000E+03    0.3435126002E+00    0.8959867398E-01    0.1880047458E+00    0.2528082023E-01    0.1534251185E+00
    0.2900000000E+03    0.3548793939E+00    0.8977054025E-01    0.1927673919E+00    0.2529823131E-01    0.1573564859E+00
    0.3100000000E+03    0.3655171616E+00    0.8979841783E-01    0.1971548593E+00    0.2527422416E-01    0.1609819837E+00
    0.3300000000E+03    0.3754998767E+00    0.8971123860E-01    0.2012140688E+00    0.2521720448E-01    0.1643397066E+00
    0.3500000000E+03    0.3848907246E+00    0.8953198386E-01    0.2049841732E+00    0.2513385954E-01    0.1674614554E+00
    0.3700000000E+03    0.3937441540E+00    0.8927903539E-01    0.2084981237E+00    0.2502954596E-01    0.1703740045E+00
    0.3900000000E+03    0.4021074592E+00    0.8896718627E-01    0.2117838691E+00    0.2490858013E-01    0.1731000729E+00
    0.4100000000E+03    0.4100220154E+00    0.8860840549E-01    0.2148652856E+00    0.2477445831E-01    0.1756590765E+00
    0.4300000000E+03    0.4175242547E+00    0.8821242255E-01    0.2177629043E+00    0.2463002518E-01    0.1780677178E+00
    0.4500000000E+03    0.4246464448E+00    0.8778717854E-01    0.2204944873E+00    0.2447760410E-01    0.1803404521E+00
    0.4700000000E+03    0.4314173175E+00    0.8733917727E-01    0.2230754875E+00    0.2431909864E-01    0.1824898605E+00
    0.4900000000E+03    0.4378625798E+00    0.8687376073E-01    0.2255194190E+00    0.2415607248E-01    0.1845269498E+00
    0.1000000000E+03    0.1980803520E+00    0.7254116440E-01    0.1190458506E+00    0.2063787312E-01    0.9685448634E-01
    0.3000000000E+03    0.3602845019E+00    0.8980051123E-01    0.1950048869E+00    0.2529083402E-01    0.1592049228E+00
    0.5000000000E+03    0.4409704183E+00    0.8663592798E-01    0.2266937521E+00    0.2407327567E-01    0.1855064448E+00
    0.7000000000E+03    0.4905863718E+00    0.8169364958E-01    0.2452291728E+00    0.2239270598E-01    0.2010300155E+00
    0.9000000000E+03    0.5240958636E+00    0.7714328181E-01    0.2578093952E+00    0.2087869821E-01    0.2116476576E+00
    0.1100000000E+04    0.5481027272E+00    0.7323085563E-01    0.2670946103E+00    0.1959367704E-01    0.2195378573E+00
    0.1300000000E+04    0.5660516026E+00    0.6988883391E-01    0.2743266158E+00    0.1850836174E-01    0.2257211287E+00
    0.1500000000E+04    0.5799206244E+00    0.6701145209E-01    0.2801742563E+00    0.1758402863E-01    0.2307489162E+00
    0.1700000000E+04    0.5909235983E+00    0.6450639538E-01    0.2850345773E+00    0.1678772303E-01    0.2349495650E+00
    0.1900000000E+04    0.5998437673E+00    0.6230107860E-01    0.2891605144E+00    0.1609376076E-01    0.2385328402E+00
    0.2100000000E+04    0.6072073304E+00    0.6033976458E-01    0.2927220737E+00    0.1548251800E-01    0.2416401106E+00
    0.2300000000E+04    0.6133797853E+00    0.5857962480E-01    0.2958384377E+00    0.1493897904E-01    0.2443707352E+00
    0.2500000000E+04    0.6186222602E+00    0.5698744339E-01    0.2985960473E+00    0.1445154797E-01    0.2467969523E+00
    0.2700000000E+04    0.6231258824E+00    0.5553714287E-01    0.3010593758E+00    0.1401116256E-01    0.2489727673E+00
    0.2900000000E+04    0.6270335109E+00    0.5420798471E-01    0.3032776537E+00    0.1361065122E-01    0.2509395093E+00
    0.3100000000E+04    0.6304539102E+00    0.5298326756E-01    0.3052892295E+00    0.1324426840E-01    0.2527294410E+00
    0.3300000000E+04    0.6334712456E+00    0.5184938096E-01    0.3071244928E+00    0.1290735714E-01    0.2543681820E+00
    0.3500000000E+04    0.6361515972E+00    0.5079511056E-01    0.3088078885E+00    0.1259610158E-01    0.2558763814E+00
    0.3700000000E+04    0.6385475242E+00    0.4981112228E-01    0.3103593393E+00    0.1230734346E-01    0.2572709008E+00
    0.3900000000E+04    0.6407013225E+00    0.4888957451E-01    0.3117952720E+00    0.1203844454E-01    0.2585656690E+00
    0.4100000000E+04    0.6426473916E+00    0.4802382325E-01    0.3131293717E+00    0.1178718204E-01    0.2597723111E+00
    0.4300000000E+04    0.6444139792E+00    0.4720819512E-01    0.3143731459E+00    0.1155166851E-01    0.2609006196E+00
    0.4500000000E+04    0.6460244863E+00    0.4643781080E-01    0.3155363521E+00    0.1133028958E-01    0.2619589120E+00
    0.4700000000E+04    0.6474984556E+00    0.4570844622E-01    0.3166273272E+00    0.1112165527E-01    0.2629543071E+00
    0.4900000000E+04    0.6488523292E+00    0.4501642237E-01    0.3176532438E+00    0.1092456134E-01    0.2638929391E+00
    0.1000000000E+04    0.5370250492E+00    0.7510936708E-01    0.2627672051E+00    0.2020878979E-01    0.2158543156E+00
    0.3000000000E+04    0.6287988652E+00    0.5358348494E-01    0.3043072206E+00    0.1342350705E-01    0.2518548420E+00
    0.5000000000E+04    0.6494886675E+00    0.4468339050E-01    0.3181437788E+00    0.1083000879E-01    0.2643426592E+00
    0.7000000000E+04    0.6583851390E+00    0.3937638479E-01    0.3256855935E+00    0.9349104415E-02    0.2713421166E+00
    0.9000000000E+04    0.6633012358E+00    0.3571195088E-01    0.3305959799E+00    0.8354380908E-02    0.2760043341E+00
    0.1100000000E+05    0.6664114206E+00    0.3297128080E-01    0.3341121988E+00    0.7624876914E-02    0.2794093240E+00
    0.1300000000E+05    0.6685535165E+00    0.3081472932E-01    0.3367853900E+00    0.7059398564E-02    0.2820440051E+00
    0.1500000000E+05    0.6701174848E+00    0.2905679704E-01    0.3389033529E+00    0.6603957947E-02    0.2841653202E+00
    0.1700000000E+05    0.6713090026E+00    0.2758595861E-01    0.3406329877E+00    0.6226686754E-02    0.2859236852E+00
    0.1900000000E+05    0.6722466826E+00    0.2633038525E-01    0.3420786101E+00    0.5907363047E-02    0.2874139270E+00
    0.2100000000E+05    0.6730036795E+00    0.2524134790E-01    0.3433092005E+00    0.5632437165E-02    0.2886992555E+00
    0.2300000000E+05    0.6736275390E+00    0.2428441497E-01    0.3443724283E+00    0.5392435535E-02    0.2898236809E+00
    0.2500000000E+05    0.6741504910E+00    0.2343444582E-01    0.3453024236E+00    0.5180503889E-02    0.2908189376E+00
    0.2700000000E+05    0.6745951511E+00    0.2267258058E-01    0.3461243455E+00    0.4991541507E-02    0.2917085765E+00
    0.2900000000E+05    0.6749778538E+00    0.2198434646E-01    0.3468571983E+00    0.4821662063E-02    0.2925105013E+00
    0.3100000000E+05    0.6753106895E+00    0.2135842062E-01    0.3475156378E+00    0.4667844561E-02    0.2932386044E+00
    0.3300000000E+05    0.6756027979E+00    0.2078579588E-01    0.3481111699E+00    0.4527699794E-02    0.2939038569E+00
    0.3500000000E+05    0.6758612157E+00    0.2025920239E-01    0.3486529692E+00    0.4399309627E-02    0.2945150566E+00
    0.3700000000E+05    0.6760914483E+00    0.1977269721E-01    0.3491484514E+00    0.4281113677E-02    0.2950793543E+00
    0.3900000000E+05    0.6762978642E+00    0.1932136687E-01    0.3496036838E+00    0.4171827678E-02    0.2956026314E+00
    0.4100000000E+05    0.6764839744E+00    0.1890110780E-01    0.3500236838E+00    0.4070383551E-02    0.2960897770E+00
    0.4300000000E+05    0.6766526324E+00    0.1850846163E-01    0.3504126412E+00    0.3975884670E-02    0.2965448939E+00
    0.4500000000E+05    0.6768061813E+00    0.1814048980E-01    0.3507740849E+00    0.3887571963E-02    0.2969714551E+00
    0.4700000000E+05    0.6769465631E+00    0.1779467675E-01    0.3511110113E+00    0.3804797869E-02    0.2973724232E+00
    0.4900000000E+05    0.6770754008E+00    0.1746885440E-01    0.3514259824E+00    0.3727006090E-02    0.2977503435E+00
    0.1000000000E+05    0.6650139619E+00    0.3425248168E-01    0.3324850318E+00    0.7964380601E-02    0.2778258191E+00
    0.3000000000E+05    0.6751498762E+00    0.2166420446E-01    0.3471949378E+00    0.4742907539E-02    0.2928830365E+00
    0.5000000000E+05    0.6771359263E+00    0.1731284229E-01    0.3515759362E+00    0.3689825692E-02    0.2979313601E+00
    0.7000000000E+05    0.6779813433E+00    0.1489395649E-01    0.3538255756E+00    0.3119195806E-02    0.3007473441E+00
    0.9000000000E+05    0.6784494054E+00    0.1329451382E-01    0.3552281168E+00    0.2748208695E-02    0.3026272994E+00
    0.1100000000E+06    0.6787466495E+00    0.1213386652E-01    0.3561974840E+00    0.2482397306E-02    0.3040069987E+00
    0.1300000000E+06    0.6789521569E+00    0.1124096486E-01    0.3569120944E+00    0.2279976701E-02    0.3050808982E+00
    0.1500000000E+06    0.6791027228E+00    0.1052583793E-01    0.3574627598E+00    0.2119230071E-02    0.3059510200E+00
    0.1700000000E+06    0.6792177858E+00    0.9935972971E-02    0.3579010424E+00    0.1987604240E-02    0.3066768991E+00
    0.1900000000E+06    0.6793085819E+00    0.9438354525E-02    0.3582585917E+00    0.1877270818E-02    0.3072960104E+00
    0.2100000000E+06    0.6793820581E+00    0.9011030450E-02    0.3585560055E+00    0.1783061091E-02    0.3078333227E+00
    0.2300000000E+06    0.6794427407E+00    0.8638752076E-02    0.3588073160E+00    0.1701406823E-02    0.3083062255E+00
    0.2500000000E+06    0.6794937049E+00    0.8310548104E-02    0.3590224395E+00    0.1629754820E-02    0.3087272680E+00
    0.2700000000E+06    0.6795371135E+00    0.8018293249E-02    0.3592085986E+00    0.1566223610E-02    0.3091057741E+00
    0.2900000000E+06    0.6795745318E+00    0.7755822592E-02    0.3593711875E+00    0.1509392134E-02    0.3094488426E+00
    0.3100000000E+06    0.6796071203E+00    0.7518361442E-02    0.3595143228E+00    0.1458164384E-02    0.3097619908E+00
    0.3300000000E+06    0.6796357583E+00    0.7302145843E-02    0.3596412040E+00    0.1411679700E-02    0.3100495836E+00
    0.3500000000E+06    0.6796611234E+00    0.7104162608E-02    0.3597543579E+00    0.1369251566E-02    0.3103151281E+00
    0.3700000000E+06    0.6796837469E+00    0.6921966783E-02    0.3598558087E+00    0.1330324805E-02    0.3105614805E+00
    0.3900000000E+06    0.6797040508E+00    0.6753550632E-02    0.3599471977E+00    0.1294444959E-02    0.3107909948E+00
    0.4100000000E+06    0.6797223748E+00    0.6597247799E-02    0.3600298709E+00    0.1261235964E-02    0.3110056319E+00
    0.4300000000E+06    0.6797389954E+00    0.6451661988E-02    0.3601049431E+00    0.1230383594E-02    0.3112070407E+00
    0.4500000000E+06    0.6797541396E+00    0.6315613066E-02    0.3601733457E+00    0.1201622974E-02    0.3113966202E+00
    0.4700000000E+06    0.6797679961E+00    0.6188095778E-02    0.3602358636E+00    0.1174729056E-02    0.3115755662E+00
    0.4900000000E+06    0.6797807225E+00    0.6068247711E-02    0.3602931628E+00    0.1149509235E-02    0.3117449083E+00
    0.1000000000E+06    0.6786129487E+00    0.1267275948E-01    0.3557528131E+00    0.2605445959E-02    0.3033644099E+00
    0.3000000000E+06    0.6795913693E+00    0.7634221260E-02    0.3594449687E+00    0.1483136274E-02    0.3096088609E+00
    0.5000000000E+06    0.6797867044E+00    0.6010962894E-02    0.3603200365E+00    0.1137474349E-02    0.3118262613E+00
    0.7000000000E+06    0.6798704923E+00    0.5130984935E-02    0.3606862013E+00    0.9542813697E-03    0.3131142188E+00
    0.9000000000E+06    0.6799170979E+00    0.4557250082E-02    0.3608689321E+00    0.8366800563E-03    0.3140014073E+00
    0.1100000000E+07    0.6799467942E+00    0.4144773935E-02    0.3609659285E+00    0.7531297778E-03    0.3146693993E+00
    0.1300000000E+07    0.6799673796E+00    0.3829581469E-02    0.3610167696E+00    0.6898964179E-03    0.3152007281E+00
    0.1500000000E+07    0.6799824946E+00    0.3578443113E-02    0.3610404607E+00    0.6399199022E-03    0.3156394025E+00
    0.1700000000E+07    0.6799940672E+00    0.3372145295E-02    0.3610471988E+00    0.5991528471E-03    0.3160114775E+00
    0.1900000000E+07    0.6800032143E+00    0.3198696830E-02    0.3610429013E+00    0.5650876687E-03    0.3163335694E+00
    0.2100000000E+07    0.6800106277E+00    0.3050172238E-02    0.3610312076E+00    0.5360775364E-03    0.3166168820E+00
    0.2300000000E+07    0.6800167587E+00    0.2921093558E-02    0.3610144590E+00    0.5109906180E-03    0.3168693043E+00
    0.2500000000E+07    0.6800219144E+00    0.2807536067E-02    0.3609942154E+00    0.4890201274E-03    0.3170965875E+00
    0.2700000000E+07    0.6800263109E+00    0.2706603726E-02    0.3609715463E+00    0.4695734922E-03    0.3173030455E+00
    0.2900000000E+07    0.6800301050E+00    0.2616106214E-02    0.3609472018E+00    0.4522044410E-03    0.3174919918E+00
    0.3100000000E+07    0.6800334128E+00    0.2534351921E-02    0.3609217179E+00    0.4365696630E-03    0.3176660235E+00
    0.3300000000E+07    0.6800363226E+00    0.2460010679E-02    0.3608954833E+00    0.4224001836E-03    0.3178272115E+00
    0.3500000000E+07    0.6800389024E+00    0.2392020045E-02    0.3608687838E+00    0.4094818959E-03    0.3179772319E+00
    0.3700000000E+07    0.6800412055E+00    0.2329519700E-02    0.3608418308E+00    0.3976419780E-03    0.3181174598E+00
    0.3900000000E+07    0.6800432743E+00    0.2271804488E-02    0.3608147826E+00    0.3867392025E-03    0.3182490360E+00
    0.4100000000E+07    0.6800451429E+00    0.2218290153E-02    0.3607877575E+00    0.3766568878E-03    0.3183729169E+00
    0.4300000000E+07    0.6800468393E+00    0.2168487899E-02    0.3607608446E+00    0.3672976786E-03    0.3184899120E+00
    0.4500000000E+07    0.6800483863E+00    0.2121985199E-02    0.3607341109E+00    0.3585796209E-03    0.3186007117E+00
    0.4700000000E+07    0.6800498028E+00    0.2078431132E-02    0.3607076064E+00    0.3504331688E-03    0.3187059098E+00
    0.4900000000E+07    0.6800511048E+00    0.2037525018E-02    0.3606813684E+00    0.3427988724E-03    0.3188060204E+00
    0.1000000000E+07    0.6799334262E+00    0.4335893251E-02    0.3609249614E+00    0.7917335686E-03    0.3143563518E+00
    0.3000000000E+07    0.6800318136E+00    0.2574226507E-02    0.3609345751E+00    0.4441885579E-03    0.3175807320E+00
    0.5000000000E+07    0.6800517171E+00    0.2017982491E-02    0.3606683582E+00    0.3391575122E-03    0.3188543100E+00
    0.7000000000E+07    0.6800603225E+00    0.1718561814E-02    0.3604255614E+00    0.2838663233E-03    0.3196366337E+00
    0.9000000000E+07    0.6800651396E+00    0.1524119588E-02    0.3602151013E+00    0.2485069322E-03    0.3201964715E+00
    0.1100000000E+08    0.6800682260E+00    0.1384699628E-02    0.3600313607E+00    0.2234496038E-03    0.3206302686E+00
    0.1300000000E+08    0.6800703763E+00    0.1278368181E-02    0.3598688039E+00    0.2045206840E-03    0.3209832951E+00
    0.1500000000E+08    0.6800719625E+00    0.1193771903E-02    0.3597231810E+00    0.1895816585E-03    0.3212803155E+00
    0.1700000000E+08    0.6800731822E+00    0.1124363244E-02    0.3595913228E+00    0.1774095618E-03    0.3215363068E+00
    0.1900000000E+08    0.6800741503E+00    0.1066064238E-02    0.3594708446E+00    0.1672481604E-03    0.3217609959E+00
    0.2100000000E+08    0.6800749379E+00    0.1016184086E-02    0.3593599217E+00    0.1586015895E-03    0.3219610468E+00
    0.2300000000E+08    0.6800755918E+00    0.9728655445E-03    0.3592571313E+00    0.1511295017E-03    0.3221412181E+00
    0.2500000000E+08    0.6800761436E+00    0.9347795678E-03    0.3591613451E+00    0.1445895667E-03    0.3223050235E+00
    0.2700000000E+08    0.6800766158E+00    0.9009464680E-03    0.3590716542E+00    0.1388039707E-03    0.3224551288E+00
