  Pressure (Pa) 22mC5-400 (mol/kg) 2mC6-400 (mol/kg) 3mC6-400 (mol/kg) 33mC5-400 (mol/kg) C7-400 (mol/kg)
    0.1000000000E+01    0.3176194572E-02    0.1571364956E-02    0.5207045206E-03    0.1919391468E-03    0.1351999962E-01
    0.3000000000E+01    0.9408416671E-02    0.4511296923E-02    0.1494429284E-02    0.5512220761E-03    0.3881079805E-01
    0.5000000000E+01    0.1548612711E-01    0.7207952566E-02    0.2387383568E-02    0.8810074172E-03    0.6201382973E-01
    0.7000000000E+01    0.2141583410E-01    0.9689342231E-02    0.3209329135E-02    0.1184697972E-02    0.8338102094E-01
    0.9000000000E+01    0.2720367659E-01    0.1197920067E-01    0.3968511053E-02    0.1465175649E-02    0.1031251867E+00
    0.1100000000E+02    0.3285545001E-01    0.1409778631E-01    0.4671941482E-02    0.1724899024E-02    0.1214273453E+00
    0.1300000000E+02    0.3837662990E-01    0.1606250672E-01    0.5325622021E-02    0.1965979653E-02    0.1384424498E+00
    0.1500000000E+02    0.4377239363E-01    0.1788841280E-01    0.5934719604E-02    0.2190242363E-02    0.1543039225E+00
    0.1700000000E+02    0.4904764041E-01    0.1958859293E-01    0.6503706888E-02    0.2399273307E-02    0.1691272744E+00
    0.1900000000E+02    0.5420700968E-01    0.2117448983E-01    0.7036475212E-02    0.2594458592E-02    0.1830130179E+00
    0.2100000000E+02    0.5925489809E-01    0.2265615737E-01    0.7536426192E-02    0.2777015580E-02    0.1960490285E+00
    0.2300000000E+02    0.6419547517E-01    0.2404247033E-01    0.8006546520E-02    0.2948018425E-02    0.2083124738E+00
    0.2500000000E+02    0.6903269782E-01    0.2534129665E-01    0.8449469454E-02    0.3108419065E-02    0.2198713993E+00
    0.2700000000E+02    0.7377032368E-01    0.2655964015E-01    0.8867525676E-02    0.3259064579E-02    0.2307860405E+00
    0.2900000000E+02    0.7841192353E-01    0.2770375916E-01    0.9262785620E-02    0.3400711634E-02    0.2411099145E+00
    0.3100000000E+02    0.8296089278E-01    0.2877926592E-01    0.9637094868E-02    0.3534038568E-02    0.2508907331E+00
    0.3300000000E+02    0.8742046214E-01    0.2979121023E-01    0.9992103936E-02    0.3659655564E-02    0.2601711713E+00
    0.3500000000E+02    0.9179370749E-01    0.3074415019E-01    0.1032929342E-01    0.3778113245E-02    0.2689895166E+00
    0.3700000000E+02    0.9608355906E-01    0.3164221239E-01    0.1064999539E-01    0.3889909991E-02    0.2773802198E+00
    0.3900000000E+02    0.1002928100E+00    0.3248914328E-01    0.1095541155E-01    0.3995498169E-02    0.2853743655E+00
    0.4100000000E+02    0.1044241243E+00    0.3328835318E-01    0.1124662891E-01    0.4095289489E-02    0.2930000744E+00
    0.4300000000E+02    0.1084800444E+00    0.3404295432E-01    0.1152463310E-01    0.4189659607E-02    0.3002828496E+00
    0.4500000000E+02    0.1124629975E+00    0.3475579360E-01    0.1179032004E-01    0.4278952104E-02    0.3072458747E+00
    0.4700000000E+02    0.1163753029E+00    0.3542948111E-01    0.1204450588E-01    0.4363481946E-02    0.3139102731E+00
    0.4900000000E+02    0.1202191773E+00    0.3606641489E-01    0.1228793573E-01    0.4443538486E-02    0.3202953320E+00
    0.1000000000E+02    0.3004622248E-01    0.1305875415E-01    0.4326798677E-02    0.1597492293E-02    0.1124462797E+00
    0.3000000000E+02    0.8069778132E-01    0.2824976117E-01    0.9452451667E-02    0.3468375490E-02    0.2460654286E+00
    0.5000000000E+02    0.1221161189E+00    0.3637179596E-01    0.1240583247E-01    0.4481973341E-02    0.3233886832E+00
    0.7000000000E+02    0.1569316055E+00    0.4100303310E-01    0.1433721027E-01    0.5070498776E-02    0.3741675155E+00
    0.9000000000E+02    0.1868283474E+00    0.4366254347E-01    0.1570436606E-01    0.5417273084E-02    0.4102600664E+00
    0.1100000000E+03    0.2129368643E+00    0.4511839609E-01    0.1672613006E-01    0.5615118246E-02    0.4373431129E+00
    0.1300000000E+03    0.2360464068E+00    0.4580300677E-01    0.1752056212E-01    0.5716465284E-02    0.4584837222E+00
    0.1500000000E+03    0.2567265057E+00    0.4597794046E-01    0.1815710172E-01    0.5753183934E-02    0.4754884330E+00
    0.1700000000E+03    0.2753999399E+00    0.4580966327E-01    0.1867933126E-01    0.5745683278E-02    0.4894926897E+00
    0.1900000000E+03    0.2923883367E+00    0.4540816099E-01    0.1911602629E-01    0.5707548754E-02    0.5012472275E+00
    0.2100000000E+03    0.3079416662E+00    0.4484819007E-01    0.1948697483E-01    0.5648094731E-02    0.5112690218E+00
    0.2300000000E+03    0.3222578992E+00    0.4418167615E-01    0.1980624656E-01    0.5573855502E-02    0.5199261598E+00
    0.2500000000E+03    0.3354964563E+00    0.4344528982E-01    0.2008412844E-01    0.5489498034E-02    0.5274881350E+00
    0.2700000000E+03    0.3477876283E+00    0.4266525154E-01    0.2032832194E-01    0.5398402374E-02    0.5341569820E+00
    0.2900000000E+03    0.3592393112E+00    0.4186047485E-01    0.2054471136E-01    0.5303042533E-02    0.5400872740E+00
    0.3100000000E+03    0.3699419150E+00    0.4104467625E-01    0.2073787276E-01    0.5205243133E-02    0.5453993795E+00
    0.3300000000E+03    0.3799720006E+00    0.4022782292E-01    0.2091142034E-01    0.5106356286E-02    0.5501884934E+00
    0.3500000000E+03    0.3893950187E+00    0.3941714511E-01    0.2106824798E-01    0.5007385886E-02    0.5545309386E+00
    0.3700000000E+03    0.3982674008E+00    0.3861785550E-01    0.2121070120E-01    0.4909076443E-02    0.5584886575E+00
    0.3900000000E+03    0.4066381767E+00    0.3783366790E-01    0.2134070192E-01    0.4811977506E-02    0.5621124721E+00
    0.4100000000E+03    0.4145502416E+00    0.3706717562E-01    0.2145984058E-01    0.4716490998E-02    0.5654444931E+00
    0.4300000000E+03    0.4220413597E+00    0.3632013071E-01    0.2156944502E-01    0.4622906387E-02    0.5685199245E+00
    0.4500000000E+03    0.4291449671E+00    0.3559365175E-01    0.2167063291E-01    0.4531427097E-02    0.5713684357E+00
    0.4700000000E+03    0.4358908210E+00    0.3488837993E-01    0.2176435200E-01    0.4442190492E-02    0.5740152178E+00
    0.4900000000E+03    0.4423055292E+00    0.3420459699E-01    0.2185141142E-01    0.4355283143E-02    0.5764818047E+00
    0.1000000000E+03    0.2003005408E+00    0.4450860442E-01    0.1624950649E-01    0.5530897640E-02    0.4246962595E+00
    0.3000000000E+03    0.3646791741E+00    0.4145325604E-01    0.2064395037E-01    0.5254353860E-02    0.5428141449E+00
    0.5000000000E+03    0.4453962661E+00    0.3387077612E-01    0.2189266488E-01    0.4312719046E-02    0.5776534163E+00
    0.7000000000E+03    0.4945265653E+00    0.2824589101E-01    0.2249458695E-01    0.3582941179E-02    0.5950037702E+00
    0.9000000000E+03    0.5274821430E+00    0.2422346720E-01    0.2285088333E-01    0.3047604317E-02    0.6055913223E+00
    0.1100000000E+04    0.5509868591E+00    0.2127690252E-01    0.2308676632E-01    0.2649064046E-02    0.6128078572E+00
    0.1300000000E+04    0.5685094194E+00    0.1905033481E-01    0.2325440335E-01    0.2344826267E-02    0.6180834710E+00
    0.1500000000E+04    0.5820239973E+00    0.1731825964E-01    0.2337952573E-01    0.2106723773E-02    0.6221315234E+00
    0.1700000000E+04    0.5927335538E+00    0.1593620250E-01    0.2347633355E-01    0.1916157828E-02    0.6253499416E+00
    0.1900000000E+04    0.6014101852E+00    0.1480910656E-01    0.2355332095E-01    0.1760616202E-02    0.6279792358E+00
    0.2100000000E+04    0.6085704698E+00    0.1387258940E-01    0.2361588758E-01    0.1631477798E-02    0.6301738455E+00
    0.2300000000E+04    0.6145720854E+00    0.1308182158E-01    0.2366763346E-01    0.1522658018E-02    0.6320377556E+00
    0.2500000000E+04    0.6196699485E+00    0.1240478863E-01    0.2371105262E-01    0.1429764413E-02    0.6336437041E+00
    0.2700000000E+04    0.6240502869E+00    0.1181810061E-01    0.2374792834E-01    0.1349559882E-02    0.6350441951E+00
    0.2900000000E+04    0.6278520942E+00    0.1130431595E-01    0.2377956987E-01    0.1279613679E-02    0.6362781381E+00
    0.3100000000E+04    0.6311810735E+00    0.1085018828E-01    0.2380696031E-01    0.1218069413E-02    0.6373750207E+00
    0.3300000000E+04    0.6341189512E+00    0.1044549048E-01    0.2383085228E-01    0.1163487495E-02    0.6383576244E+00
    0.3500000000E+04    0.6367298517E+00    0.1008220870E-01    0.2385183179E-01    0.1114736004E-02    0.6392438476E+00
    0.3700000000E+04    0.6390647543E+00    0.9753978800E-02    0.2387036188E-01    0.1070913689E-02    0.6400479606E+00
    0.3900000000E+04    0.6411646701E+00    0.9455685019E-02    0.2388681327E-01    0.1031294719E-02    0.6407814901E+00
    0.4100000000E+04    0.6430629465E+00    0.9183169503E-02    0.2390148627E-01    0.9952884093E-03    0.6414538556E+00
    0.4300000000E+04    0.6447869635E+00    0.8933018720E-02    0.2391462668E-01    0.9624094512E-03    0.6420728353E+00
    0.4500000000E+04    0.6463594020E+00    0.8702404267E-02    0.2392643763E-01    0.9322556007E-03    0.6426449125E+00
    0.4700000000E+04    0.6477992038E+00    0.8488962645E-02    0.2393708840E-01    0.9044907600E-03    0.6431755376E+00
    0.4900000000E+04    0.6491223058E+00    0.8290703387E-02    0.2394672120E-01    0.8788320002E-03    0.6436693285E+00
    0.1000000000E+04    0.5401511912E+00    0.2264169401E-01    0.2297970724E-01    0.2834285050E-02    0.6095070244E+00
    0.3000000000E+04    0.6295701036E+00    0.1107049408E-01    0.2379374491E-01    0.1247889579E-02    0.6368421557E+00
    0.5000000000E+04    0.6497443961E+00    0.8196729317E-02    0.2395119419E-01    0.8667160006E-03    0.6439036653E+00
    0.7000000000E+04    0.6584591718E+00    0.6813183079E-02    0.2400854907E-01    0.6922920187E-03    0.6473665257E+00
    0.9000000000E+04    0.6632931721E+00    0.5965135591E-02    0.2403322923E-01    0.5897179613E-03    0.6494862007E+00
    0.1100000000E+05    0.6663607410E+00    0.5377413059E-02    0.2404379745E-01    0.5209128017E-03    0.6509432651E+00
    0.1300000000E+05    0.6684787732E+00    0.4938899495E-02    0.2404729468E-01    0.4708953288E-03    0.6520193619E+00
    0.1500000000E+05    0.6700284327E+00    0.4595240512E-02    0.2404691782E-01    0.4325203266E-03    0.6528538872E+00
    0.1700000000E+05    0.6712111934E+00    0.4316325332E-02    0.2404429722E-01    0.4019199235E-03    0.6535244028E+00
    0.1900000000E+05    0.6721434650E+00    0.4083950514E-02    0.2404033440E-01    0.3768036863E-03    0.6540778049E+00
    0.2100000000E+05    0.6728971640E+00    0.3886374903E-02    0.2403555814E-01    0.3557213009E-03    0.6545442687E+00
    0.2300000000E+05    0.6735191010E+00    0.3715637746E-02    0.2403029261E-01    0.3377054858E-03    0.6549441739E+00
    0.2500000000E+05    0.6740410500E+00    0.3566123007E-02    0.2402474326E-01    0.3220838489E-03    0.6552918294E+00
    0.2700000000E+05    0.6744853338E+00    0.3433738739E-02    0.2401904358E-01    0.3083729313E-03    0.6555976060E+00
    0.2900000000E+05    0.6748680931E+00    0.3315422511E-02    0.2401328188E-01    0.2962152238E-03    0.6558692228E+00
    0.3100000000E+05    0.6752012870E+00    0.3208830018E-02    0.2400751726E-01    0.2853400164E-03    0.6561125557E+00
    0.3300000000E+05    0.6754939646E+00    0.3112131699E-02    0.2400178948E-01    0.2755381285E-03    0.6563321651E+00
    0.3500000000E+05    0.6757530986E+00    0.3023875681E-02    0.2399612526E-01    0.2666450668E-03    0.6565316502E+00
    0.3700000000E+05    0.6759841487E+00    0.2942892896E-02    0.2399054235E-01    0.2585294841E-03    0.6567138935E+00
    0.3900000000E+05    0.6761914507E+00    0.2868229831E-02    0.2398505231E-01    0.2510850771E-03    0.6568812339E+00
    0.4100000000E+05    0.6763784916E+00    0.2799099874E-02    0.2397966230E-01    0.2442247762E-03    0.6570355911E+00
    0.4300000000E+05    0.6765481074E+00    0.2734847456E-02    0.2397437643E-01    0.2378765000E-03    0.6571785573E+00
    0.4500000000E+05    0.6767026283E+00    0.2674921200E-02    0.2396919662E-01    0.2319799989E-03    0.6573114653E+00
    0.4700000000E+05    0.6768439867E+00    0.2618853509E-02    0.2396412322E-01    0.2264844748E-03    0.6574354405E+00
    0.4900000000E+05    0.6769737985E+00    0.2566244843E-02    0.2395915552E-01    0.2213467597E-03    0.6575514399E+00
    0.1000000000E+05    0.6649814014E+00    0.5647649387E-02    0.2403970185E-01    0.5523046329E-03    0.6502750547E+00
    0.3000000000E+05    0.6750402634E+00    0.3260785352E-02    0.2401039708E-01    0.2906315943E-03    0.6559941137E+00
    0.5000000000E+05    0.6770348086E+00    0.2541128325E-02    0.2395671085E-01    0.2189003232E-03    0.6576067097E+00
    0.7000000000E+05    0.6778890871E+00    0.2157563223E-02    0.2391281018E-01    0.1820595792E-03    0.6584422180E+00
    0.9000000000E+05    0.6783642099E+00    0.1909617617E-02    0.2387660753E-01    0.1587735376E-03    0.6589745963E+00
    0.1100000000E+06    0.6786670720E+00    0.1732327528E-02    0.2384595391E-01    0.1423864763E-03    0.6593523177E+00
    0.1300000000E+06    0.6788771490E+00    0.1597375088E-02    0.2381940849E-01    0.1300651942E-03    0.6596386597E+00
    0.1500000000E+06    0.6790315157E+00    0.1490165635E-02    0.2379600837E-01    0.1203741583E-03    0.6598657123E+00
    0.1700000000E+06    0.6791498015E+00    0.1402306914E-02    0.2377508810E-01    0.1124987201E-03    0.6600517059E+00
    0.1900000000E+06    0.6792433747E+00    0.1328583218E-02    0.2375617134E-01    0.1059379770E-03    0.6602078650E+00
    0.2100000000E+06    0.6793192767E+00    0.1265558709E-02    0.2373890632E-01    0.1003649130E-03    0.6603415293E+00
    0.2300000000E+06    0.6793821024E+00    0.1210865066E-02    0.2372302621E-01    0.9555585174E-04    0.6604577285E+00
    0.2500000000E+06    0.6794349785E+00    0.1162809382E-02    0.2370832397E-01    0.9135198532E-04    0.6605600404E+00
    0.2700000000E+06    0.6794801070E+00    0.1120144926E-02    0.2369463579E-01    0.8763706228E-04    0.6606510901E+00
    0.2900000000E+06    0.6795190835E+00    0.1081930398E-02    0.2368182982E-01    0.8432378452E-04    0.6607328528E+00
    0.3100000000E+06    0.6795530931E+00    0.1047439926E-02    0.2366979843E-01    0.8134516300E-04    0.6608068481E+00
    0.3300000000E+06    0.6795830341E+00    0.1016103504E-02    0.2365845257E-01    0.7864882953E-04    0.6608742664E+00
    0.3500000000E+06    0.6796096000E+00    0.9874664146E-03    0.2364771777E-01    0.7619318024E-04    0.6609360561E+00
    0.3700000000E+06    0.6796333350E+00    0.9611608539E-03    0.2363753109E-01    0.7394469262E-04    0.6609929829E+00
    0.3900000000E+06    0.6796546718E+00    0.9368856616E-03    0.2362783887E-01    0.7187601628E-04    0.6610456733E+00
    0.4100000000E+06    0.6796739591E+00    0.9143915459E-03    0.2361859498E-01    0.6996458708E-04    0.6610946453E+00
    0.4300000000E+06    0.6796914810E+00    0.8934701255E-03    0.2360975949E-01    0.6819160324E-04    0.6611403316E+00
    0.4500000000E+06    0.6797074711E+00    0.8739456775E-03    0.2360129757E-01    0.6654125663E-04    0.6611830970E+00
    0.4700000000E+06    0.6797221236E+00    0.8556688323E-03    0.2359317871E-01    0.6500014768E-04    0.6612232515E+00
    0.4900000000E+06    0.6797356010E+00    0.8385116969E-03    0.2358537597E-01    0.6355683394E-04    0.6612610604E+00
    0.1000000000E+06    0.6785307151E+00    0.1814376428E-02    0.2386069108E-01    0.1499424881E-03    0.6591777683E+00
    0.3000000000E+06    0.6795366475E+00    0.1064258385E-02    0.2367572325E-01    0.8279620524E-04    0.6607707404E+00
    0.5000000000E+06    0.6797419428E+00    0.8303179695E-03    0.2358158558E-01    0.6286872141E-04    0.6612791579E+00
    0.7000000000E+06    0.6798313397E+00    0.7050225634E-03    0.2351778409E-01    0.5244529511E-04    0.6615598959E+00
    0.9000000000E+06    0.6798816881E+00    0.6239147975E-03    0.2346940628E-01    0.4580476131E-04    0.6617468540E+00
    0.1100000000E+07    0.6799141207E+00    0.5658930807E-03    0.2343040664E-01    0.4111159198E-04    0.6618840950E+00
    0.1300000000E+07    0.6799368249E+00    0.5217219550E-03    0.2339772299E-01    0.3757355592E-04    0.6619910678E+00
    0.1500000000E+07    0.6799536466E+00    0.4866321694E-03    0.2336958667E-01    0.3478592377E-04    0.6620779113E+00
    0.1700000000E+07    0.6799666345E+00    0.4578783693E-03    0.2334488253E-01    0.3251776551E-04    0.6621505185E+00
    0.1900000000E+07    0.6799769814E+00    0.4337533088E-03    0.2332286177E-01    0.3062654516E-04    0.6622125897E+00
    0.2100000000E+07    0.6799854296E+00    0.4131319512E-03    0.2330299702E-01    0.2901894484E-04    0.6622665862E+00
    0.2300000000E+07    0.6799924659E+00    0.3952386574E-03    0.2328490277E-01    0.2763099823E-04    0.6623142206E+00
    0.2500000000E+07    0.6799984228E+00    0.3795189346E-03    0.2326828859E-01    0.2641721308E-04    0.6623567283E+00
    0.2700000000E+07    0.6800035354E+00    0.3655644140E-03    0.2325293023E-01    0.2534424280E-04    0.6623950270E+00
    0.2900000000E+07    0.6800079747E+00    0.3530667706E-03    0.2323865087E-01    0.2438701836E-04    0.6624298153E+00
    0.3100000000E+07    0.6800118683E+00    0.3417882491E-03    0.2322530864E-01    0.2352628516E-04    0.6624616366E+00
    0.3300000000E+07    0.6800153131E+00    0.3315421563E-03    0.2321278796E-01    0.2274697952E-04    0.6624909206E+00
    0.3500000000E+07    0.6800183842E+00    0.3221795663E-03    0.2320099342E-01    0.2203712632E-04    0.6625180130E+00
    0.3700000000E+07    0.6800211407E+00    0.3135800266E-03    0.2318984533E-01    0.2138707115E-04    0.6625431955E+00
    0.3900000000E+07    0.6800236297E+00    0.3056449164E-03    0.2317927645E-01    0.2078893341E-04    0.6625667001E+00
    0.4100000000E+07    0.6800258894E+00    0.2982926059E-03    0.2316922954E-01    0.2023620883E-04    0.6625887206E+00
    0.4300000000E+07    0.6800279509E+00    0.2914548662E-03    0.2315965542E-01    0.1972347570E-04    0.6626094199E+00
    0.4500000000E+07    0.6800298399E+00    0.2850741656E-03    0.2315051159E-01    0.1924617408E-04    0.6626289362E+00
    0.4700000000E+07    0.6800315777E+00    0.2791016041E-03    0.2314176102E-01    0.1880043772E-04    0.6626473880E+00
    0.4900000000E+07    0.6800331824E+00    0.2734953153E-03    0.2313337126E-01    0.1838296420E-04    0.6626648770E+00
    0.1000000000E+07    0.6798994798E+00    0.5927468556E-03    0.2344896757E-01    0.4327746385E-04    0.6618201585E+00
    0.3000000000E+07    0.6800099831E+00    0.3472878052E-03    0.2323187037E-01    0.2394561515E-04    0.6624460677E+00
    0.5000000000E+07    0.6800339396E+00    0.2708180500E-03    0.2312930263E-01    0.1818392280E-04    0.6626732887E+00
    0.7000000000E+07    0.6800447917E+00    0.2298889809E-03    0.2306142868E-01    0.1516842512E-04    0.6628073704E+00
    0.9000000000E+07    0.6800510977E+00    0.2034054000E-03    0.2301062269E-01    0.1324704675E-04    0.6629008355E+00
    0.1100000000E+08    0.6800552686E+00    0.1844655463E-03    0.2297000646E-01    0.1188908739E-04    0.6629718768E+00
    0.1300000000E+08    0.6800582565E+00    0.1700500963E-03    0.2293617051E-01    0.1086537986E-04    0.6630288261E+00
    0.1500000000E+08    0.6800605162E+00    0.1586003798E-03    0.2290717379E-01    0.1005882184E-04    0.6630761560E+00
    0.1700000000E+08    0.6800622937E+00    0.1492194099E-03    0.2288180530E-01    0.9402589435E-05    0.6631165299E+00
    0.1900000000E+08    0.6800637341E+00    0.1413495022E-03    0.2285925843E-01    0.8855434764E-05    0.6631516553E+00
    0.2100000000E+08    0.6800649289E+00    0.1346232226E-03    0.2283896878E-01    0.8390352236E-05    0.6631826891E+00
    0.2300000000E+08    0.6800659386E+00    0.1287872889E-03    0.2282052597E-01    0.7988830264E-05    0.6632104496E+00
    0.2500000000E+08    0.6800668052E+00    0.1236606582E-03    0.2280362226E-01    0.7637703626E-05    0.6632355355E+00
    0.2700000000E+08    0.6800675586E+00    0.1191100129E-03    0.2278802089E-01    0.7327322086E-05    0.6632583978E+00
