  Pressure (Pa) 22mC5-400 (mol/kg) 2mC6-400 (mol/kg) 3mC6-400 (mol/kg) 33mC5-400 (mol/kg) C7-400 (mol/kg)
    0.1000000000E+01    0.3178840614E-02    0.7856621292E-03    0.1561315106E-02    0.1279582811E-03    0.1351313781E-01
    0.3000000000E+01    0.9431495442E-02    0.2255598548E-02    0.4476625946E-02    0.3674925268E-03    0.3875354055E-01
    0.5000000000E+01    0.1554827783E-01    0.3604142934E-02    0.7144936899E-02    0.5874183374E-03    0.6186586546E-01
    0.7000000000E+01    0.2153397404E-01    0.4845491278E-02    0.9596505483E-02    0.7900346650E-03    0.8311038406E-01
    0.9000000000E+01    0.2739314406E-01    0.5991628050E-02    0.1185683492E-01    0.9772811476E-03    0.1027065045E+00
    0.1100000000E+02    0.3313013472E-01    0.7052746722E-02    0.1394757289E-01    0.1150806570E-02    0.1208404929E+00
    0.1300000000E+02    0.3874909203E-01    0.8037577618E-02    0.1588721388E-01    0.1312022218E-02    0.1376715072E+00
    0.1500000000E+02    0.4425397252E-01    0.8953646047E-02    0.1769165332E-01    0.1462143879E-02    0.1533363591E+00
    0.1700000000E+02    0.4964855397E-01    0.9807477410E-02    0.1937462886E-01    0.1602225192E-02    0.1679533060E+00
    0.1900000000E+02    0.5493644532E-01    0.1060476158E-01    0.2094807470E-01    0.1733184381E-02    0.1816250957E+00
    0.2100000000E+02    0.6012109597E-01    0.1135048565E-01    0.2242240828E-01    0.1855825827E-02    0.1944414307E+00
    0.2300000000E+02    0.6520580453E-01    0.1204904201E-01    0.2380676396E-01    0.1970857621E-02    0.2064809771E+00
    0.2500000000E+02    0.7019372690E-01    0.1270431687E-01    0.2510918479E-01    0.2078905944E-02    0.2178130125E+00
    0.2700000000E+02    0.7508788391E-01    0.1331976326E-01    0.2633678091E-01    0.2180526917E-02    0.2284987881E+00
    0.2900000000E+02    0.7989116848E-01    0.1389846163E-01    0.2749586104E-01    0.2276216438E-02    0.2385926597E+00
    0.3100000000E+02    0.8460635230E-01    0.1444317043E-01    0.2859204246E-01    0.2366418376E-02    0.2481430321E+00
    0.3300000000E+02    0.8923609210E-01    0.1495636856E-01    0.2963034325E-01    0.2451531462E-02    0.2571931536E+00
    0.3500000000E+02    0.9378293559E-01    0.1544029113E-01    0.3061526018E-01    0.2531915081E-02    0.2657817855E+00
    0.3700000000E+02    0.9824932695E-01    0.1589695986E-01    0.3155083479E-01    0.2607894193E-02    0.2739437698E+00
    0.3900000000E+02    0.1026376121E+00    0.1632820885E-01    0.3244070961E-01    0.2679763516E-02    0.2817105137E+00
    0.4100000000E+02    0.1069500435E+00    0.1673570677E-01    0.3328817628E-01    0.2747791102E-02    0.2891104030E+00
    0.4300000000E+02    0.1111887849E+00    0.1712097578E-01    0.3409621683E-01    0.2812221410E-02    0.2961691572E+00
    0.4500000000E+02    0.1153559155E+00    0.1748540793E-01    0.3486753933E-01    0.2873277955E-02    0.3029101367E+00
    0.4700000000E+02    0.1194534343E+00    0.1783027934E-01    0.3560460863E-01    0.2931165594E-02    0.3093546068E+00
    0.4900000000E+02    0.1234832637E+00    0.1815676253E-01    0.3630967316E-01    0.2986072523E-02    0.3155219686E+00
    0.1000000000E+02    0.3027664811E-01    0.6532238030E-02    0.1292218015E-01    0.1065665760E-02    0.1119457437E+00
    0.3000000000E+02    0.8225960431E-01    0.1417490369E-01    0.2805148739E-01    0.2321977449E-02    0.2434329678E+00
    0.5000000000E+02    0.1254733756E+00    0.1831344929E-01    0.3665085286E-01    0.3012462906E-02    0.3185073367E+00
    0.7000000000E+02    0.1621366094E+00    0.2070363708E-01    0.4220999252E-01    0.3419379592E-02    0.3672559489E+00
    0.9000000000E+02    0.1937584807E+00    0.2209070958E-01    0.4610505231E-01    0.3662338072E-02    0.4015620596E+00
    0.1100000000E+03    0.2214024538E+00    0.2285554648E-01    0.4898913257E-01    0.3802550385E-02    0.4270740092E+00
    0.1300000000E+03    0.2458407673E+00    0.2321595858E-01    0.5121239667E-01    0.3875151509E-02    0.4468248202E+00
    0.1500000000E+03    0.2676488857E+00    0.2330593673E-01    0.5297964439E-01    0.3901876493E-02    0.4625911098E+00
    0.1700000000E+03    0.2872654005E+00    0.2321213965E-01    0.5441874458E-01    0.3896882901E-02    0.4754838038E+00
    0.1900000000E+03    0.3050312470E+00    0.2299265398E-01    0.5561370882E-01    0.3869741011E-02    0.4862338923E+00
    0.2100000000E+03    0.3212161014E+00    0.2268744987E-01    0.5662203945E-01    0.3827100534E-02    0.4953424552E+00
    0.2300000000E+03    0.3360365921E+00    0.2232457298E-01    0.5748443911E-01    0.3773678903E-02    0.5031647066E+00
    0.2500000000E+03    0.3496691421E+00    0.2192398804E-01    0.5823053959E-01    0.3712876066E-02    0.5099596275E+00
    0.2700000000E+03    0.3622592057E+00    0.2150005480E-01    0.5888243344E-01    0.3647171756E-02    0.5159205906E+00
    0.2900000000E+03    0.3739280323E+00    0.2106317184E-01    0.5945693306E-01    0.3578390253E-02    0.5211949688E+00
    0.3100000000E+03    0.3847776992E+00    0.2062089513E-01    0.5996706252E-01    0.3507881377E-02    0.5258970936E+00
    0.3300000000E+03    0.3948949134E+00    0.2017871507E-01    0.6042306984E-01    0.3436646869E-02    0.5301170583E+00
    0.3500000000E+03    0.4043539222E+00    0.1974060577E-01    0.6083313082E-01    0.3365430265E-02    0.5339268424E+00
    0.3700000000E+03    0.4132187703E+00    0.1930941913E-01    0.6120384868E-01    0.3294781787E-02    0.5373846646E+00
    0.3900000000E+03    0.4215450697E+00    0.1888717119E-01    0.6154061564E-01    0.3225105838E-02    0.5405381346E+00
    0.4100000000E+03    0.4293814032E+00    0.1847525251E-01    0.6184787895E-01    0.3156696156E-02    0.5434265747E+00
    0.4300000000E+03    0.4367704478E+00    0.1807458416E-01    0.6212933963E-01    0.3089762111E-02    0.5460827560E+00
    0.4500000000E+03    0.4437498830E+00    0.1768573438E-01    0.6238810304E-01    0.3024448538E-02    0.5485342137E+00
    0.4700000000E+03    0.4503531309E+00    0.1730900634E-01    0.6262679429E-01    0.2960850816E-02    0.5508042581E+00
    0.4900000000E+03    0.4566099641E+00    0.1694450469E-01    0.6284764787E-01    0.2899026412E-02    0.5529127583E+00
    0.1000000000E+03    0.2080239351E+00    0.2253470883E-01    0.4764697594E-01    0.3742678335E-02    0.4151879673E+00
    0.3000000000E+03    0.3794495191E+00    0.2084232348E-01    0.5971934794E-01    0.3543282168E-02    0.5236114461E+00
    0.5000000000E+03    0.4596169069E+00    0.1676682987E-01    0.6295199457E-01    0.2868789022E-02    0.5539118517E+00
    0.7000000000E+03    0.5067591589E+00    0.1380211485E-01    0.6444891123E-01    0.2355031263E-02    0.5685057531E+00
    0.9000000000E+03    0.5377451938E+00    0.1171871954E-01    0.6530704857E-01    0.1984280724E-02    0.5771973350E+00
    0.1100000000E+04    0.5595900624E+00    0.1021365056E-01    0.6585972499E-01    0.1711882292E-02    0.5830100056E+00
    0.1300000000E+04    0.5757712208E+00    0.9088784442E-02    0.6624287118E-01    0.1506091645E-02    0.5871938984E+00
    0.1500000000E+04    0.5882106744E+00    0.8221430088E-02    0.6652233128E-01    0.1346371130E-02    0.5903626653E+00
    0.1700000000E+04    0.5980553389E+00    0.7534347072E-02    0.6673387072E-01    0.1219404346E-02    0.5928539686E+00
    0.1900000000E+04    0.6060304760E+00    0.6977407949E-02    0.6689858169E-01    0.1116358617E-02    0.5948694825E+00
    0.2100000000E+04    0.6126162356E+00    0.6517032637E-02    0.6702969992E-01    0.1031216258E-02    0.5965373550E+00
    0.2300000000E+04    0.6181425992E+00    0.6130048659E-02    0.6713594494E-01    0.9597687482E-03    0.5979430607E+00
    0.2500000000E+04    0.6228435142E+00    0.5800031020E-02    0.6722329053E-01    0.8990008191E-03    0.5991458828E+00
    0.2700000000E+04    0.6268892721E+00    0.5515055322E-02    0.6729596335E-01    0.8467043488E-03    0.6001882827E+00
    0.2900000000E+04    0.6304066649E+00    0.5266277933E-02    0.6735703582E-01    0.8012301826E-03    0.6011015037E+00
    0.3100000000E+04    0.6334919687E+00    0.5047014106E-02    0.6740879314E-01    0.7613246951E-03    0.6019090683E+00
    0.3300000000E+04    0.6362195573E+00    0.4852124260E-02    0.6745296894E-01    0.7260196797E-03    0.6026290387E+00
    0.3500000000E+04    0.6386477653E+00    0.4677596034E-02    0.6749090121E-01    0.6945565878E-03    0.6032755249E+00
    0.3700000000E+04    0.6408229701E+00    0.4520253669E-02    0.6752363828E-01    0.6663333886E-03    0.6038597166E+00
    0.3900000000E+04    0.6427824928E+00    0.4377552110E-02    0.6755201257E-01    0.6408666286E-03    0.6043906071E+00
    0.4100000000E+04    0.6445566962E+00    0.4247428578E-02    0.6757669297E-01    0.6177639029E-03    0.6048755112E+00
    0.4300000000E+04    0.6461705278E+00    0.4128193887E-02    0.6759822273E-01    0.5967035807E-03    0.6053204417E+00
    0.4500000000E+04    0.6476446706E+00    0.4018451708E-02    0.6761704732E-01    0.5774196688E-03    0.6057303897E+00
    0.4700000000E+04    0.6489964135E+00    0.3917037790E-02    0.6763353523E-01    0.5596903684E-03    0.6061095343E+00
    0.4900000000E+04    0.6502403176E+00    0.3822973656E-02    0.6764799369E-01    0.5433293221E-03    0.6064614023E+00
    0.1000000000E+04    0.5495423679E+00    0.1090848269E-01    0.6561064994E-01    0.1838086527E-02    0.5803634689E+00
    0.3000000000E+04    0.6319982454E+00    0.5153308611E-02    0.6738395972E-01    0.7806475353E-03    0.6015172567E+00
    0.5000000000E+04    0.6508257640E+00    0.3778433825E-02    0.6765454417E-01    0.5356116513E-03    0.6066280626E+00
    0.7000000000E+04    0.6590723803E+00    0.3126213074E-02    0.6772418884E-01    0.4251135975E-03    0.6090662516E+00
    0.9000000000E+04    0.6636896515E+00    0.2729769507E-02    0.6773520845E-01    0.3607158832E-03    0.6105362427E+00
    0.1100000000E+05    0.6666390152E+00    0.2456516394E-02    0.6772391168E-01    0.3177890897E-03    0.6115375880E+00
    0.1300000000E+05    0.6686853570E+00    0.2253416381E-02    0.6770309093E-01    0.2867285322E-03    0.6122730540E+00
    0.1500000000E+05    0.6701881781E+00    0.2094700947E-02    0.6767811559E-01    0.2629833287E-03    0.6128415785E+00
    0.1700000000E+05    0.6713386044E+00    0.1966169072E-02    0.6765149170E-01    0.2441028592E-03    0.6132976080E+00
    0.1900000000E+05    0.6722475869E+00    0.1859270845E-02    0.6762446740E-01    0.2286421980E-03    0.6136737736E+00
    0.2100000000E+05    0.6729839366E+00    0.1768510051E-02    0.6759768601E-01    0.2156897331E-03    0.6139909214E+00
    0.2300000000E+05    0.6735925900E+00    0.1690170482E-02    0.6757148077E-01    0.2046393580E-03    0.6142630468E+00
    0.2500000000E+05    0.6741041346E+00    0.1621636612E-02    0.6754601848E-01    0.1950708810E-03    0.6144999273E+00
    0.2700000000E+05    0.6745401112E+00    0.1561006531E-02    0.6752137371E-01    0.1866828908E-03    0.6147086199E+00
    0.2900000000E+05    0.6749161283E+00    0.1506859297E-02    0.6749756911E-01    0.1792529629E-03    0.6148943581E+00
    0.3100000000E+05    0.6752437723E+00    0.1458108810E-02    0.6747459791E-01    0.1726129870E-03    0.6150611143E+00
    0.3300000000E+05    0.6755318244E+00    0.1413908575E-02    0.6745243696E-01    0.1666332776E-03    0.6152119632E+00
    0.3500000000E+05    0.6757870613E+00    0.1373587632E-02    0.6743105438E-01    0.1612120061E-03    0.6153493261E+00
    0.3700000000E+05    0.6760147961E+00    0.1336606282E-02    0.6741041409E-01    0.1562679728E-03    0.6154751387E+00
    0.3900000000E+05    0.6762192534E+00    0.1302524754E-02    0.6739047855E-01    0.1517355409E-03    0.6155909691E+00
    0.4100000000E+05    0.6764038342E+00    0.1270980561E-02    0.6737121034E-01    0.1475610099E-03    0.6156981027E+00
    0.4300000000E+05    0.6765713077E+00    0.1241671839E-02    0.6735257314E-01    0.1436999688E-03    0.6157976042E+00
    0.4500000000E+05    0.6767239512E+00    0.1214344879E-02    0.6733453221E-01    0.1401153320E-03    0.6158903644E+00
    0.4700000000E+05    0.6768636546E+00    0.1188784662E-02    0.6731705468E-01    0.1367758588E-03    0.6159771344E+00
    0.4900000000E+05    0.6769919997E+00    0.1164807571E-02    0.6730010961E-01    0.1336550223E-03    0.6160585531E+00
    0.1000000000E+05    0.6653108165E+00    0.2582008311E-02    0.6773128382E-01    0.3373460765E-03    0.6110792254E+00
    0.3000000000E+05    0.6750853933E+00    0.1481867113E-02    0.6748598050E-01    0.1758430930E-03    0.6149798991E+00
    0.5000000000E+05    0.6770523382E+00    0.1153362483E-02    0.6729182763E-01    0.1321693728E-03    0.6160974296E+00
    0.7000000000E+05    0.6778984341E+00    0.9787397760E-03    0.6714809097E-01    0.1098275495E-03    0.6166932385E+00
    0.9000000000E+05    0.6783700292E+00    0.8660076593E-03    0.6703464378E-01    0.9573360573E-04    0.6170835717E+00
    0.1100000000E+06    0.6786710430E+00    0.7854642811E-03    0.6694102919E-01    0.8582703021E-04    0.6173676877E+00
    0.1300000000E+06    0.6788800271E+00    0.7241880062E-03    0.6686135518E-01    0.7838427987E-04    0.6175881660E+00
    0.1500000000E+06    0.6790336920E+00    0.6755276173E-03    0.6679200473E-01    0.7253368233E-04    0.6177667786E+00
    0.1700000000E+06    0.6791514992E+00    0.6356619377E-03    0.6673060428E-01    0.6778122171E-04    0.6179160054E+00
    0.1900000000E+06    0.6792447308E+00    0.6022177353E-03    0.6667551400E-01    0.6382344045E-04    0.6180436010E+00
    0.2100000000E+06    0.6793203799E+00    0.5736324672E-03    0.6662555407E-01    0.6046237673E-04    0.6181546829E+00
    0.2300000000E+06    0.6793830128E+00    0.5488295279E-03    0.6657984749E-01    0.5756270916E-04    0.6182527899E+00
    0.2500000000E+06    0.6794357385E+00    0.5270396138E-03    0.6653772462E-01    0.5502840927E-04    0.6183404618E+00
    0.2700000000E+06    0.6794807472E+00    0.5076963424E-03    0.6649866262E-01    0.5278921132E-04    0.6184195782E+00
    0.2900000000E+06    0.6795196267E+00    0.4903721924E-03    0.6646224542E-01    0.5079236870E-04    0.6184915654E+00
    0.3100000000E+06    0.6795535564E+00    0.4747375569E-03    0.6642813649E-01    0.4899741818E-04    0.6185575298E+00
    0.3300000000E+06    0.6795834308E+00    0.4605336554E-03    0.6639605981E-01    0.4737273640E-04    0.6186183450E+00
    0.3500000000E+06    0.6796099407E+00    0.4475540803E-03    0.6636578613E-01    0.4589320607E-04    0.6186747124E+00
    0.3700000000E+06    0.6796336279E+00    0.4356319020E-03    0.6633712298E-01    0.4453859302E-04    0.6187272027E+00
    0.3900000000E+06    0.6796549237E+00    0.4246304550E-03    0.6630990719E-01    0.4329239159E-04    0.6187762860E+00
    0.4100000000E+06    0.6796741755E+00    0.4144366250E-03    0.6628399923E-01    0.4214098686E-04    0.6188223541E+00
    0.4300000000E+06    0.6796916664E+00    0.4049558706E-03    0.6625927885E-01    0.4107303571E-04    0.6188657364E+00
    0.4500000000E+06    0.6797076293E+00    0.3961084752E-03    0.6623564169E-01    0.4007900243E-04    0.6189067124E+00
    0.4700000000E+06    0.6797222577E+00    0.3878266833E-03    0.6621299657E-01    0.3915080513E-04    0.6189455212E+00
    0.4900000000E+06    0.6797357138E+00    0.3800524861E-03    0.6619126338E-01    0.3828154318E-04    0.6189823689E+00
    0.1000000000E+06    0.6785354788E+00    0.8227329950E-03    0.6698579683E-01    0.9039376327E-04    0.6172355355E+00
    0.3000000000E+06    0.6795371488E+00    0.4823612699E-03    0.6644492091E-01    0.4987180899E-04    0.6185252412E+00
    0.5000000000E+06    0.6797420457E+00    0.3763398385E-03    0.6618071632E-01    0.3786712618E-04    0.6190001141E+00
    0.7000000000E+06    0.6798313213E+00    0.3195726603E-03    0.6600411337E-01    0.3159040011E-04    0.6192851816E+00
    0.9000000000E+06    0.6798816146E+00    0.2828296320E-03    0.6587122090E-01    0.2759228003E-04    0.6194867027E+00
    0.1100000000E+07    0.6799140166E+00    0.2565462315E-03    0.6576462426E-01    0.2476683279E-04    0.6196416490E+00
    0.1300000000E+07    0.6799367012E+00    0.2365374317E-03    0.6567561153E-01    0.2263688528E-04    0.6197670635E+00
    0.1500000000E+07    0.6799535094E+00    0.2206423841E-03    0.6559919306E-01    0.2095871109E-04    0.6198721561E+00
    0.1700000000E+07    0.6799664872E+00    0.2076173494E-03    0.6553224237E-01    0.1959326313E-04    0.6199624467E+00
    0.1900000000E+07    0.6799768262E+00    0.1966889400E-03    0.6547267010E-01    0.1845472560E-04    0.6200414957E+00
    0.2100000000E+07    0.6799852681E+00    0.1873475359E-03    0.6541901053E-01    0.1748691869E-04    0.6201117290E+00
    0.2300000000E+07    0.6799922990E+00    0.1792417997E-03    0.6537019560E-01    0.1665133477E-04    0.6201748709E+00
    0.2500000000E+07    0.6799982513E+00    0.1721205719E-03    0.6532542292E-01    0.1592058850E-04    0.6202321901E+00
    0.2700000000E+07    0.6800033599E+00    0.1657988838E-03    0.6528407431E-01    0.1527460644E-04    0.6202846458E+00
    0.2900000000E+07    0.6800077958E+00    0.1601370830E-03    0.6524566340E-01    0.1469829821E-04    0.6203329806E+00
    0.3100000000E+07    0.6800116862E+00    0.1550274816E-03    0.6520980063E-01    0.1418007360E-04    0.6203777806E+00
    0.3300000000E+07    0.6800151281E+00    0.1503855202E-03    0.6517616914E-01    0.1371086518E-04    0.6204195166E+00
    0.3500000000E+07    0.6800181965E+00    0.1461437457E-03    0.6514450773E-01    0.1328346466E-04    0.6204585718E+00
    0.3700000000E+07    0.6800209506E+00    0.1422476014E-03    0.6511459855E-01    0.1289206075E-04    0.6204952625E+00
    0.3900000000E+07    0.6800234374E+00    0.1386524189E-03    0.6508625799E-01    0.1253190981E-04    0.6205298529E+00
    0.4100000000E+07    0.6800256949E+00    0.1353212256E-03    0.6505932986E-01    0.1219909672E-04    0.6205625653E+00
    0.4300000000E+07    0.6800277544E+00    0.1322231182E-03    0.6503368021E-01    0.1189035795E-04    0.6205935891E+00
    0.4500000000E+07    0.6800296415E+00    0.1293320388E-03    0.6500919328E-01    0.1160294870E-04    0.6206230865E+00
    0.4700000000E+07    0.6800313776E+00    0.1266258386E-03    0.6498576836E-01    0.1133454171E-04    0.6206511977E+00
    0.4900000000E+07    0.6800329806E+00    0.1240855549E-03    0.6496331725E-01    0.1108314912E-04    0.6206780446E+00
    0.1000000000E+07    0.6798993891E+00    0.2687106908E-03    0.6581530143E-01    0.2607074459E-04    0.6195686706E+00
    0.3000000000E+07    0.6800098025E+00    0.1575190030E-03    0.6522743477E-01    0.1443254232E-04    0.6203557907E+00
    0.5000000000E+07    0.6800337370E+00    0.1228724350E-03    0.6495243226E-01    0.1096328954E-04    0.6206910278E+00
    0.7000000000E+07    0.6800445757E+00    0.1043252762E-03    0.6477108944E-01    0.9147260176E-05    0.6209043788E+00
    0.9000000000E+07    0.6800508718E+00    0.9232244243E-04    0.6463561363E-01    0.7989972801E-05    0.6210605242E+00
    0.1100000000E+08    0.6800550347E+00    0.8373753818E-04    0.6452744799E-01    0.7171942608E-05    0.6211834727E+00
    0.1300000000E+08    0.6800580158E+00    0.7720274836E-04    0.6443742169E-01    0.6555198233E-05    0.6212847626E+00
    0.1500000000E+08    0.6800602696E+00    0.7201191214E-04    0.6436032462E-01    0.6069232153E-05    0.6213708208E+00
    0.1700000000E+08    0.6800620419E+00    0.6775861938E-04    0.6429291134E-01    0.5673806701E-05    0.6214455904E+00
    0.1900000000E+08    0.6800634775E+00    0.6419017672E-04    0.6423302274E-01    0.5344083058E-05    0.6215116638E+00
    0.2100000000E+08    0.6800646679E+00    0.6114008592E-04    0.6417914963E-01    0.5063797894E-05    0.6215708349E+00
    0.2300000000E+08    0.6800656736E+00    0.5849356921E-04    0.6413019555E-01    0.4821802519E-05    0.6216243964E+00
    0.2500000000E+08    0.6800665365E+00    0.5616858074E-04    0.6408533878E-01    0.4610167701E-05    0.6216733102E+00
    0.2700000000E+08    0.6800672864E+00    0.5410470032E-04    0.6404394761E-01    0.4423080947E-05    0.6217183112E+00
