  Pressure (Pa) 22mC5-400 (mol/kg) 2mC6-400 (mol/kg) 3mC6-400 (mol/kg) 33mC5-400 (mol/kg) C7-400 (mol/kg)
    0.1000000000E+01    0.3178848574E-02    0.7900799547E-03    0.3668101277E-02    0.1286687052E-03    0.6802767097E-02
    0.3000000000E+01    0.9431565345E-02    0.2292160724E-02    0.1065390949E-01    0.3733680771E-03    0.1976151161E-01
    0.5000000000E+01    0.1554846737E-01    0.3697826338E-02    0.1720887001E-01    0.6024632387E-03    0.3192485474E-01
    0.7000000000E+01    0.2153433677E-01    0.5015355838E-02    0.2337198013E-01    0.8172957019E-03    0.4336467668E-01
    0.9000000000E+01    0.2739372968E-01    0.6252085424E-02    0.2917765859E-01    0.1019053788E-02    0.5414442501E-01
    0.1100000000E+02    0.3313098940E-01    0.7414541616E-02    0.3465639867E-01    0.1208794307E-02    0.6432031705E-01
    0.1300000000E+02    0.3875025859E-01    0.8508552280E-02    0.3983531269E-01    0.1387460622E-02    0.7394234223E-01
    0.1500000000E+02    0.4425549071E-01    0.9539339671E-02    0.4473858823E-01    0.1555897797E-02    0.8305510207E-01
    0.1700000000E+02    0.4965046066E-01    0.1051159885E-01    0.4938787246E-01    0.1714865344E-02    0.9169851780E-01
    0.1900000000E+02    0.5493877471E-01    0.1142956405E-01    0.5380259739E-01    0.1865048027E-02    0.9990842925E-01
    0.2100000000E+02    0.6012387978E-01    0.1229706521E-01    0.5800025637E-01    0.2007065039E-02    0.1077171041E+00
    0.2300000000E+02    0.6520907213E-01    0.1311757617E-01    0.6199664023E-01    0.2141477857E-02    0.1151536724E+00
    0.2500000000E+02    0.7019750552E-01    0.1389425616E-01    0.6580603964E-01    0.2268796963E-02    0.1222445000E+00
    0.2700000000E+02    0.7509219876E-01    0.1462998541E-01    0.6944141931E-01    0.2389487647E-02    0.1290135085E+00
    0.2900000000E+02    0.7989604288E-01    0.1532739607E-01    0.7291456849E-01    0.2503975021E-02    0.1354824530E+00
    0.3100000000E+02    0.8461180780E-01    0.1598889898E-01    0.7623623133E-01    0.2612648363E-02    0.1416711623E+00
    0.3300000000E+02    0.8924214862E-01    0.1661670699E-01    0.7941622038E-01    0.2715864912E-02    0.1475977475E+00
    0.3500000000E+02    0.9378961151E-01    0.1721285536E-01    0.8246351548E-01    0.2813953170E-02    0.1532787848E+00
    0.3700000000E+02    0.9825663923E-01    0.1777921965E-01    0.8538635043E-01    0.2907215811E-02    0.1587294745E+00
    0.3900000000E+02    0.1026455763E+00    0.1831753143E-01    0.8819228894E-01    0.2995932225E-02    0.1639637816E+00
    0.4100000000E+02    0.1069586740E+00    0.1882939216E-01    0.9088829159E-01    0.3080360768E-02    0.1689945587E+00
    0.4300000000E+02    0.1111980949E+00    0.1931628544E-01    0.9348077482E-01    0.3160740754E-02    0.1738336550E+00
    0.4500000000E+02    0.1153659171E+00    0.1977958788E-01    0.9597566317E-01    0.3237294212E-02    0.1784920124E+00
    0.4700000000E+02    0.1194641385E+00    0.2022057880E-01    0.9837843564E-01    0.3310227457E-02    0.1829797510E+00
    0.4900000000E+02    0.1234946806E+00    0.2064044883E-01    0.1006941668E+00    0.3379732482E-02    0.1873062450E+00
    0.1000000000E+02    0.3027736271E-01    0.6842218247E-02    0.3195612790E-01    0.1115364814E-02    0.5930459331E-01
    0.3000000000E+02    0.8226476667E-01    0.1566249330E-01    0.7459370181E-01    0.2559015409E-02    0.1386106671E+00
    0.5000000000E+02    0.1254851524E+00    0.2084281325E-01    0.1018208763E+00    0.3413255805E-02    0.1894117674E+00
    0.7000000000E+02    0.1621559233E+00    0.2401436166E-01    0.1207645277E+00    0.3941324858E-02    0.2248661723E+00
    0.9000000000E+02    0.1937856120E+00    0.2597251901E-01    0.1347349765E+00    0.4271477095E-02    0.2510922974E+00
    0.1100000000E+03    0.2214373465E+00    0.2715471956E-01    0.1454811747E+00    0.4474299787E-02    0.2713261487E+00
    0.1300000000E+03    0.2458831911E+00    0.2782157118E-01    0.1540152298E+00    0.4591933948E-02    0.2874423586E+00
    0.1500000000E+03    0.2676985233E+00    0.2813732410E-01    0.1609640600E+00    0.4651026029E-02    0.3006033245E+00
    0.1700000000E+03    0.2873218965E+00    0.2820986513E-01    0.1667370566E+00    0.4669154013E-02    0.3115689070E+00
    0.1900000000E+03    0.3050942343E+00    0.2811231049E-01    0.1716131028E+00    0.4658293316E-02    0.3208572690E+00
    0.2100000000E+03    0.3212852165E+00    0.2789542436E-01    0.1757888675E+00    0.4626809475E-02    0.3288341956E+00
    0.2300000000E+03    0.3361114829E+00    0.2759512423E-01    0.1794071034E+00    0.4580662905E-02    0.3357654645E+00
    0.2500000000E+03    0.3497494722E+00    0.2723720140E-01    0.1825739929E+00    0.4524167402E-02    0.3418489677E+00
    0.2700000000E+03    0.3623446565E+00    0.2684038844E-01    0.1853701906E+00    0.4460483837E-02    0.3472351738E+00
    0.2900000000E+03    0.3740183030E+00    0.2641840752E-01    0.1878580861E+00    0.4391950543E-02    0.3520405934E+00
    0.3100000000E+03    0.3848725072E+00    0.2598136982E-01    0.1900867157E+00    0.4320309683E-02    0.3563568916E+00
    0.3300000000E+03    0.3949939932E+00    0.2553675070E-01    0.1920951664E+00    0.4246865478E-02    0.3602572087E+00
    0.3500000000E+03    0.4044570248E+00    0.2509008066E-01    0.1939149872E+00    0.4172596772E-02    0.3638006383E+00
    0.3700000000E+03    0.4133256624E+00    0.2464544219E-01    0.1955719303E+00    0.4098238309E-02    0.3670354635E+00
    0.3900000000E+03    0.4216555323E+00    0.2420583172E-01    0.1970872289E+00    0.4024340215E-02    0.3700015342E+00
    0.4100000000E+03    0.4294952311E+00    0.2377342605E-01    0.1984785513E+00    0.3951312031E-02    0.3727320424E+00
    0.4300000000E+03    0.4368874485E+00    0.2334978067E-01    0.1997607221E+00    0.3879455653E-02    0.3752548650E+00
    0.4500000000E+03    0.4438698760E+00    0.2293597842E-01    0.2009462746E+00    0.3808990189E-02    0.3775935929E+00
    0.4700000000E+03    0.4504759465E+00    0.2253274187E-01    0.2020458791E+00    0.3740070875E-02    0.3797683301E+00
    0.4900000000E+03    0.4567354429E+00    0.2214051887E-01    0.2030686781E+00    0.3672803570E-02    0.3817963185E+00
    0.1000000000E+03    0.2080549677E+00    0.2664140562E-01    0.1404359948E+00    0.4385701248E-02    0.2618191784E+00
    0.3000000000E+03    0.3795420927E+00    0.2620125100E-01    0.1890021652E+00    0.4356428281E-02    0.3542549369E+00
    0.5000000000E+03    0.4597436606E+00    0.2194861871E-01    0.2035537813E+00    0.3639811804E-02    0.3827600115E+00
    0.7000000000E+03    0.5069050475E+00    0.1868246998E-01    0.2106645176E+00    0.3070924894E-02    0.3970545842E+00
    0.9000000000E+03    0.5379019057E+00    0.1631437579E-01    0.2149044876E+00    0.2650896490E-02    0.4057886731E+00
    0.1100000000E+04    0.5597527817E+00    0.1455984682E-01    0.2177275906E+00    0.2336515644E-02    0.4117418504E+00
    0.1300000000E+04    0.5759370481E+00    0.1321884687E-01    0.2197446665E+00    0.2095018425E-02    0.4160928782E+00
    0.1500000000E+04    0.5883778109E+00    0.1216351005E-01    0.2212583543E+00    0.1904666431E-02    0.4194309964E+00
    0.1700000000E+04    0.5982226445E+00    0.1131164234E-01    0.2224361178E+00    0.1751140326E-02    0.4220850727E+00
    0.1900000000E+04    0.6061972174E+00    0.1060901354E-01    0.2233783094E+00    0.1624825156E-02    0.4242538351E+00
    0.2100000000E+04    0.6127819388E+00    0.1001877065E-01    0.2241488073E+00    0.1519100800E-02    0.4260648192E+00
    0.2300000000E+04    0.6183069589E+00    0.9515148503E-02    0.2247902462E+00    0.1429292806E-02    0.4276038311E+00
    0.2500000000E+04    0.6230063372E+00    0.9079660347E-02    0.2253321911E+00    0.1352021907E-02    0.4289308433E+00
    0.2700000000E+04    0.6270504407E+00    0.8698729002E-02    0.2257958003E+00    0.1284792224E-02    0.4300891095E+00
    0.2900000000E+04    0.6305661129E+00    0.8362173353E-02    0.2261966221E+00    0.1225724381E-02    0.4311106580E+00
    0.3100000000E+04    0.6336496655E+00    0.8062215753E-02    0.2265463418E+00    0.1173378427E-02    0.4320197429E+00
    0.3300000000E+04    0.6363754968E+00    0.7792815112E-02    0.2268539141E+00    0.1126633721E-02    0.4328350888E+00
    0.3500000000E+04    0.6388019581E+00    0.7549208734E-02    0.2271263174E+00    0.1084605763E-02    0.4335713970E+00
    0.3700000000E+04    0.6409754385E+00    0.7327591097E-02    0.2273690721E+00    0.1046587484E-02    0.4342403817E+00
    0.3900000000E+04    0.6429332670E+00    0.7124884433E-02    0.2275866025E+00    0.1012007093E-02    0.4348514995E+00
    0.4100000000E+04    0.6447058117E+00    0.6938572069E-02    0.2277824965E+00    0.9803973153E-03    0.4354124746E+00
    0.4300000000E+04    0.6463180231E+00    0.6766575477E-02    0.2279596943E+00    0.9513726031E-03    0.4359296822E+00
    0.4500000000E+04    0.6477905862E+00    0.6607162274E-02    0.2281206286E+00    0.9246120401E-03    0.4364084343E+00
    0.4700000000E+04    0.6491407908E+00    0.6458876466E-02    0.2282673296E+00    0.8998463412E-03    0.4368531948E+00
    0.4900000000E+04    0.6503831984E+00    0.6320484936E-02    0.2284015047E+00    0.8768478610E-03    0.4372677448E+00
    0.1000000000E+04    0.5497025404E+00    0.1537496471E-01    0.2164444002E+00    0.2482848712E-02    0.4090190353E+00
    0.3000000000E+04    0.6321568200E+00    0.8208031889E-02    0.2263772563E+00    0.1198787573E-02    0.4315779790E+00
    0.5000000000E+04    0.6509679120E+00    0.6254664707E-02    0.2284643560E+00    0.8659496276E-03    0.4374647175E+00
    0.7000000000E+04    0.6592018629E+00    0.5268320524E-02    0.2293210681E+00    0.7060248766E-03    0.4403990556E+00
    0.9000000000E+04    0.6638094650E+00    0.4647209605E-02    0.2297614558E+00    0.6089536858E-03    0.4422271190E+00
    0.1100000000E+05    0.6667512016E+00    0.4209412531E-02    0.2300139936E+00    0.5424015004E-03    0.4435059766E+00
    0.1300000000E+05    0.6687913404E+00    0.3878996779E-02    0.2301673405E+00    0.4932474353E-03    0.4444667058E+00
    0.1500000000E+05    0.6702889895E+00    0.3617918884E-02    0.2302628198E+00    0.4550790682E-03    0.4452240894E+00
    0.1700000000E+05    0.6714350161E+00    0.3404722505E-02    0.2303221398E+00    0.4243565519E-03    0.4458422728E+00
    0.1900000000E+05    0.6723401947E+00    0.3226255422E-02    0.2303577123E+00    0.3989498379E-03    0.4463602268E+00
    0.2100000000E+05    0.6730732112E+00    0.3073941074E-02    0.2303770963E+00    0.3774920771E-03    0.4468031551E+00
    0.2300000000E+05    0.6736789110E+00    0.2941912699E-02    0.2303851265E+00    0.3590613556E-03    0.4471881698E+00
    0.2500000000E+05    0.6741878134E+00    0.2826001283E-02    0.2303850177E+00    0.3430106441E-03    0.4475273502E+00
    0.2700000000E+05    0.6746214073E+00    0.2723150715E-02    0.2303789762E+00    0.3288708570E-03    0.4478294986E+00
    0.2900000000E+05    0.6749952604E+00    0.2631062017E-02    0.2303685564E+00    0.3162926084E-03    0.4481012026E+00
    0.3100000000E+05    0.6753209269E+00    0.2547967570E-02    0.2303548775E+00    0.3050096619E-03    0.4483475042E+00
    0.3300000000E+05    0.6756071621E+00    0.2472482633E-02    0.2303387602E+00    0.2948151416E-03    0.4485723376E+00
    0.3500000000E+05    0.6758607218E+00    0.2403504690E-02    0.2303208162E+00    0.2855455553E-03    0.4487788245E+00
    0.3700000000E+05    0.6760869016E+00    0.2340143395E-02    0.2303015072E+00    0.2770697723E-03    0.4489694786E+00
    0.3900000000E+05    0.6762899116E+00    0.2281670700E-02    0.2302811856E+00    0.2692812384E-03    0.4491463502E+00
    0.4100000000E+05    0.6764731408E+00    0.2227484615E-02    0.2302601233E+00    0.2620923615E-03    0.4493111309E+00
    0.4300000000E+05    0.6766393479E+00    0.2177082408E-02    0.2302385318E+00    0.2554303875E-03    0.4494652311E+00
    0.4500000000E+05    0.6767908013E+00    0.2130040468E-02    0.2302165763E+00    0.2492343219E-03    0.4496098373E+00
    0.4700000000E+05    0.6769293836E+00    0.2085998945E-02    0.2301943871E+00    0.2434525965E-03    0.4497459563E+00
    0.4900000000E+05    0.6770566701E+00    0.2044649900E-02    0.2301720673E+00    0.2380412774E-03    0.4498744489E+00
    0.1000000000E+05    0.6654266065E+00    0.4411445792E-02    0.2299040060E+00    0.5729153431E-03    0.4429167504E+00
    0.3000000000E+05    0.6751635150E+00    0.2588484670E-02    0.2303620673E+00    0.3105033265E-03    0.4482272609E+00
    0.5000000000E+05    0.6771165007E+00    0.2024900696E-02    0.2301608845E+00    0.2354625294E-03    0.4499360709E+00
    0.7000000000E+05    0.6779546504E+00    0.1722671358E-02    0.2299430687E+00    0.1964769180E-03    0.4509038254E+00
    0.9000000000E+05    0.6784209110E+00    0.1526715454E-02    0.2297468188E+00    0.1716959471E-03    0.4515642122E+00
    0.1100000000E+06    0.6787180092E+00    0.1386337469E-02    0.2295731072E+00    0.1541968432E-03    0.4520597261E+00
    0.1300000000E+06    0.6789239528E+00    0.1279341066E-02    0.2294185579E+00    0.1410083682E-03    0.4524535762E+00
    0.1500000000E+06    0.6790751630E+00    0.1194254891E-02    0.2292798013E+00    0.1306171588E-03    0.4527789557E+00
    0.1700000000E+06    0.6791909313E+00    0.1124469952E-02    0.2291540841E+00    0.1221612517E-03    0.4530553168E+00
    0.1900000000E+06    0.6792824321E+00    0.1065872910E-02    0.2290392421E+00    0.1151092049E-03    0.4532949774E+00
    0.2100000000E+06    0.6793565865E+00    0.1015751045E-02    0.2289335772E+00    0.1091133278E-03    0.4535062016E+00
    0.2300000000E+06    0.6794179107E+00    0.9722327659E-03    0.2288357462E+00    0.1039353958E-03    0.4536947874E+00
    0.2500000000E+06    0.6794694770E+00    0.9339792031E-03    0.2287446732E+00    0.9940603263E-04    0.4538649513E+00
    0.2700000000E+06    0.6795134487E+00    0.9000037102E-03    0.2286594861E+00    0.9540110323E-04    0.4540198502E+00
    0.2900000000E+06    0.6795513930E+00    0.8695609278E-03    0.2285794693E+00    0.9182729394E-04    0.4541619057E+00
    0.3100000000E+06    0.6795844735E+00    0.8420757916E-03    0.2285040292E+00    0.8861293609E-04    0.4542930147E+00
    0.3300000000E+06    0.6796135717E+00    0.8170965202E-03    0.2284326681E+00    0.8570195940E-04    0.4544146888E+00
    0.3500000000E+06    0.6796393684E+00    0.7942625597E-03    0.2283649651E+00    0.8304978792E-04    0.4545281513E+00
    0.3700000000E+06    0.6796623971E+00    0.7732821665E-03    0.2283005611E+00    0.8062048198E-04    0.4546344058E+00
    0.3900000000E+06    0.6796830824E+00    0.7539163778E-03    0.2282391472E+00    0.7838470255E-04    0.4547342850E+00
    0.4100000000E+06    0.6797017658E+00    0.7359673254E-03    0.2281804561E+00    0.7631823248E-04    0.4548284873E+00
    0.4300000000E+06    0.6797187258E+00    0.7192695656E-03    0.2281242546E+00    0.7440088305E-04    0.4549176040E+00
    0.4500000000E+06    0.6797341912E+00    0.7036835458E-03    0.2280703385E+00    0.7261567276E-04    0.4550021398E+00
    0.4700000000E+06    0.6797483522E+00    0.6890906128E-03    0.2280185275E+00    0.7094820165E-04    0.4550825288E+00
    0.4900000000E+06    0.6797613677E+00    0.6753891494E-03    0.2279686620E+00    0.6938616848E-04    0.4551591471E+00
    0.1000000000E+06    0.6785842681E+00    0.1451330155E-02    0.2296573395E+00    0.1622715822E-03    0.4518276130E+00
    0.3000000000E+06    0.6795684806E+00    0.8554793468E-03    0.2285412103E+00    0.9017899806E-04    0.4542287264E+00
    0.5000000000E+06    0.6797674887E+00    0.6688448637E-03    0.2279444139E+00    0.6864132635E-04    0.4551961464E+00
    0.7000000000E+06    0.6798534893E+00    0.5686974406E-03    0.2275340622E+00    0.5734803412E-04    0.4557994949E+00
    0.9000000000E+06    0.6799016077E+00    0.5037877869E-03    0.2272205192E+00    0.5014239654E-04    0.4562360613E+00
    0.1100000000E+07    0.6799324231E+00    0.4573098897E-03    0.2269664985E+00    0.4504422059E-04    0.4565772317E+00
    0.1300000000E+07    0.6799538807E+00    0.4219000580E-03    0.2267528537E+00    0.4119752552E-04    0.4568567783E+00
    0.1500000000E+07    0.6799697010E+00    0.3937523901E-03    0.2265684276E+00    0.3816452921E-04    0.4570933047E+00
    0.1700000000E+07    0.6799818599E+00    0.3706745544E-03    0.2264061414E+00    0.3569522550E-04    0.4572981311E+00
    0.1900000000E+07    0.6799915048E+00    0.3513024157E-03    0.2262612184E+00    0.3363519386E-04    0.4574786496E+00
    0.2100000000E+07    0.6799993478E+00    0.3347365846E-03    0.2261302819E+00    0.3188327426E-04    0.4576399490E+00
    0.2300000000E+07    0.6800058549E+00    0.3203567137E-03    0.2260108558E+00    0.3037008826E-04    0.4577856793E+00
    0.2500000000E+07    0.6800113435E+00    0.3077191481E-03    0.2259010696E+00    0.2904627152E-04    0.4579185460E+00
    0.2700000000E+07    0.6800160376E+00    0.2964970295E-03    0.2257994759E+00    0.2787562397E-04    0.4580406095E+00
    0.2900000000E+07    0.6800200998E+00    0.2864434922E-03    0.2257049312E+00    0.2683092106E-04    0.4581534739E+00
    0.3100000000E+07    0.6800236510E+00    0.2773681152E-03    0.2256165164E+00    0.2589124538E-04    0.4582584129E+00
    0.3300000000E+07    0.6800267830E+00    0.2691213311E-03    0.2255334816E+00    0.2504022709E-04    0.4583564539E+00
    0.3500000000E+07    0.6800295667E+00    0.2615837976E-03    0.2254552069E+00    0.2426484887E-04    0.4584484378E+00
    0.3700000000E+07    0.6800320579E+00    0.2546589660E-03    0.2253811740E+00    0.2355461316E-04    0.4585350611E+00
    0.3900000000E+07    0.6800343010E+00    0.2482677678E-03    0.2253109448E+00    0.2290094889E-04    0.4586169074E+00
    0.4100000000E+07    0.6800363318E+00    0.2423447429E-03    0.2252441462E+00    0.2229678021E-04    0.4586944705E+00
    0.4300000000E+07    0.6800381795E+00    0.2368351657E-03    0.2251804574E+00    0.2173620757E-04    0.4587681715E+00
    0.4500000000E+07    0.6800398681E+00    0.2316928817E-03    0.2251196006E+00    0.2121426809E-04    0.4588383728E+00
    0.4700000000E+07    0.6800414177E+00    0.2268786537E-03    0.2250613339E+00    0.2072675297E-04    0.4589053882E+00
    0.4900000000E+07    0.6800428449E+00    0.2223588823E-03    0.2250054451E+00    0.2027006652E-04    0.4589694915E+00
    0.1000000000E+07    0.6799185333E+00    0.4788257111E-03    0.2270875234E+00    0.4739760685E-04    0.4564159571E+00
    0.3000000000E+07    0.6800219330E+00    0.2817936956E-03    0.2256600079E+00    0.2634906835E-04    0.4582068649E+00
    0.5000000000E+07    0.6800435171E+00    0.2202002085E-03    0.2249783330E+00    0.2005230046E-04    0.4590005272E+00
    0.7000000000E+07    0.6800530490E+00    0.1871759125E-03    0.2245252438E+00    0.1675068178E-04    0.4595137123E+00
    0.9000000000E+07    0.6800584767E+00    0.1657815281E-03    0.2241851565E+00    0.1464434463E-04    0.4598928761E+00
    0.1100000000E+08    0.6800620054E+00    0.1504671380E-03    0.2239127384E+00    0.1315422945E-04    0.4601933939E+00
    0.1300000000E+08    0.6800644955E+00    0.1388023624E-03    0.2236854465E+00    0.1203001806E-04    0.4604421933E+00
    0.1500000000E+08    0.6800663536E+00    0.1295315674E-03    0.2234904171E+00    0.1114369295E-04    0.4606544000E+00
    0.1700000000E+08    0.6800677975E+00    0.1219316834E-03    0.2233196104E+00    0.1042215100E-04    0.4608393566E+00
    0.1900000000E+08    0.6800689545E+00    0.1155529032E-03    0.2231676633E+00    0.9820241768E-05    0.4610032368E+00
    0.2100000000E+08    0.6800699043E+00    0.1100987226E-03    0.2230308187E+00    0.9308389392E-05    0.4611503323E+00
    0.2300000000E+08    0.6800706993E+00    0.1053646638E-03    0.2229063416E+00    0.8866311147E-05    0.4612837471E+00
    0.2500000000E+08    0.6800713754E+00    0.1012045111E-03    0.2227921793E+00    0.8479576262E-05    0.4614057982E+00
    0.2700000000E+08    0.6800719583E+00    0.9751055462E-04    0.2226867513E+00    0.8137602885E-05    0.4615182611E+00
