  Pressure (Pa) 22mC5-400 (mol/kg) 2mC6-400 (mol/kg) 3mC6-400 (mol/kg) 33mC5-400 (mol/kg) C7-400 (mol/kg)
    0.1000000000E+01    0.3173360502E-02    0.2371670668E-02    0.1049835106E-02    0.3218525577E-03    0.6814418044E-02
    0.3000000000E+01    0.9383806933E-02    0.6888290312E-02    0.3059341929E-02    0.9349041171E-03    0.1986065103E-01
    0.5000000000E+01    0.1542013501E-01    0.1112363731E-01    0.4957249421E-02    0.1509926721E-02    0.3218568902E-01
    0.7000000000E+01    0.2129090553E-01    0.1510055833E-01    0.6752883515E-02    0.2050008975E-02    0.4384971040E-01
    0.9000000000E+01    0.2700411186E-01    0.1883950395E-01    0.8454551689E-02    0.2557915141E-02    0.5490632668E-01
    0.1100000000E+02    0.3256722616E-01    0.2235883776E-01    0.1006967859E-01    0.3036127032E-02    0.6540345657E-01
    0.1300000000E+02    0.3798724119E-01    0.2567509836E-01    0.1160492056E-01    0.3486879516E-02    0.7538406395E-01
    0.1500000000E+02    0.4327070816E-01    0.2880322250E-01    0.1306626269E-01    0.3912190745E-02    0.8488678390E-01
    0.1700000000E+02    0.4842377108E-01    0.3175673586E-01    0.1445910166E-01    0.4313888004E-02    0.9394645600E-01
    0.1900000000E+02    0.5345219795E-01    0.3454791704E-01    0.1578831642E-01    0.4693629917E-02    0.1025945807E+00
    0.2100000000E+02    0.5836140913E-01    0.3718793887E-01    0.1705832906E-01    0.5052925592E-02    0.1108597111E+00
    0.2300000000E+02    0.6315650321E-01    0.3968699089E-01    0.1827315719E-01    0.5393151192E-02    0.1187677911E+00
    0.2500000000E+02    0.6784228060E-01    0.4205438563E-01    0.1943645932E-01    0.5715564333E-02    0.1263424479E+00
    0.2700000000E+02    0.7242326505E-01    0.4429865138E-01    0.2055157421E-01    0.6021316632E-02    0.1336052454E+00
    0.2900000000E+02    0.7690372341E-01    0.4642761324E-01    0.2162155520E-01    0.6311464686E-02    0.1405759061E+00
    0.3100000000E+02    0.8128768364E-01    0.4844846434E-01    0.2264920017E-01    0.6586979697E-02    0.1472725039E+00
    0.3300000000E+02    0.8557895139E-01    0.5036782842E-01    0.2363707782E-01    0.6848755944E-02    0.1537116336E+00
    0.3500000000E+02    0.8978112519E-01    0.5219181512E-01    0.2458755073E-01    0.7097618265E-02    0.1599085600E+00
    0.3700000000E+02    0.9389761044E-01    0.5392606888E-01    0.2550279575E-01    0.7334328664E-02    0.1658773487E+00
    0.3900000000E+02    0.9793163224E-01    0.5557581237E-01    0.2638482193E-01    0.7559592186E-02    0.1716309829E+00
    0.4100000000E+02    0.1018862473E+00    0.5714588502E-01    0.2723548651E-01    0.7774062130E-02    0.1771814650E+00
    0.4300000000E+02    0.1057643547E+00    0.5864077750E-01    0.2805650901E-01    0.7978344704E-02    0.1825399090E+00
    0.4500000000E+02    0.1095687064E+00    0.6006466241E-01    0.2884948382E-01    0.8173003179E-02    0.1877166208E+00
    0.4700000000E+02    0.1133019158E+00    0.6142142187E-01    0.2961589149E-01    0.8358561614E-02    0.1927211711E+00
    0.4900000000E+02    0.1169664672E+00    0.6271467220E-01    0.3035710870E-01    0.8535508190E-02    0.1975624603E+00
    0.1000000000E+02    0.2980398269E-01    0.2062554868E-01    0.9272499987E-02    0.2800587782E-02    0.6022203388E-01
    0.3000000000E+02    0.7910752291E-01    0.4745112599E-01    0.2214050405E-01    0.6450993719E-02    0.1439573929E+00
    0.5000000000E+02    0.1187737391E+00    0.6333854438E-01    0.3071867493E-01    0.8620895525E-02    0.1999244943E+00
    0.7000000000E+02    0.1518316389E+00    0.7319069756E-01    0.3689618248E-01    0.9972231670E-02    0.2403314612E+00
    0.9000000000E+02    0.1801143270E+00    0.7942357319E-01    0.4158750028E-01    0.1083123420E-01    0.2710930963E+00
    0.1100000000E+03    0.2047998790E+00    0.8335868257E-01    0.4529076163E-01    0.1137650350E-01    0.2954341367E+00
    0.1300000000E+03    0.2266829167E+00    0.8577414846E-01    0.4830132146E-01    0.1171336117E-01    0.3152682406E+00
    0.1500000000E+03    0.2463212248E+00    0.8715400158E-01    0.5080588156E-01    0.1190746029E-01    0.3318061006E+00
    0.1700000000E+03    0.2641196924E+00    0.8781239305E-01    0.5292852762E-01    0.1200152501E-01    0.3458530346E+00
    0.1900000000E+03    0.2803807624E+00    0.8796020351E-01    0.5475512399E-01    0.1202432629E-01    0.3579667603E+00
    0.2100000000E+03    0.2953360163E+00    0.8774289659E-01    0.5634709070E-01    0.1199578365E-01    0.3685465453E+00
    0.2300000000E+03    0.3091666521E+00    0.8726306864E-01    0.5774959920E-01    0.1193000577E-01    0.3778862675E+00
    0.2500000000E+03    0.3220171668E+00    0.8659441727E-01    0.5899666344E-01    0.1183717539E-01    0.3862073921E+00
    0.2700000000E+03    0.3340047444E+00    0.8579068436E-01    0.6011442021E-01    0.1172475720E-01    0.3936802305E+00
    0.2900000000E+03    0.3452258493E+00    0.8489154548E-01    0.6112331020E-01    0.1159829435E-01    0.4004380816E+00
    0.3100000000E+03    0.3557609545E+00    0.8392658404E-01    0.6203956810E-01    0.1146194675E-01    0.4065868982E+00
    0.3300000000E+03    0.3656779960E+00    0.8291803090E-01    0.6287626519E-01    0.1131886276E-01    0.4122120530E+00
    0.3500000000E+03    0.3750349403E+00    0.8188268842E-01    0.6364405433E-01    0.1117144089E-01    0.4173831766E+00
    0.3700000000E+03    0.3838817220E+00    0.8083330443E-01    0.6435171236E-01    0.1102151698E-01    0.4221576806E+00
    0.3900000000E+03    0.3922617274E+00    0.7977956784E-01    0.6500654166E-01    0.1087050033E-01    0.4265833677E+00
    0.4100000000E+03    0.4002129450E+00    0.7872883971E-01    0.6561467195E-01    0.1071947383E-01    0.4307003939E+00
    0.4300000000E+03    0.4077688683E+00    0.7768669622E-01    0.6618129030E-01    0.1056926867E-01    0.4345427648E+00
    0.4500000000E+03    0.4149592137E+00    0.7665733642E-01    0.6671081849E-01    0.1042052060E-01    0.4381394905E+00
    0.4700000000E+03    0.4218104948E+00    0.7564389115E-01    0.6720705149E-01    0.1027371268E-01    0.4415154863E+00
    0.4900000000E+03    0.4283464896E+00    0.7464865921E-01    0.6767326660E-01    0.1012920821E-01    0.4446922846E+00
    0.1000000000E+03    0.1928502198E+00    0.8162076486E-01    0.4354086348E-01    0.1113529574E-01    0.2839251463E+00
    0.3000000000E+03    0.3505746457E+00    0.8441575658E-01    0.6159213697E-01    0.1153113916E-01    0.4035828654E+00
    0.5000000000E+03    0.4315030323E+00    0.7415840974E-01    0.6789602179E-01    0.1005790691E-01    0.4462119301E+00
    0.7000000000E+03    0.4823290213E+00    0.6549586056E-01    0.7130296506E-01    0.8786398762E-02    0.4696216562E+00
    0.9000000000E+03    0.5170931564E+00    0.5884229566E-01    0.7349643933E-01    0.7797375522E-02    0.4849030697E+00
    0.1100000000E+04    0.5421856168E+00    0.5369910785E-01    0.7505089442E-01    0.7027928899E-02    0.4958677954E+00
    0.1300000000E+04    0.5610269883E+00    0.4963521114E-01    0.7622170643E-01    0.6418618376E-02    0.5042210649E+00
    0.1500000000E+04    0.5756196383E+00    0.4634907867E-01    0.7714160053E-01    0.5926280659E-02    0.5108542514E+00
    0.1700000000E+04    0.5872093357E+00    0.4363543720E-01    0.7788714001E-01    0.5520824252E-02    0.5162843031E+00
    0.1900000000E+04    0.5966079487E+00    0.4135307764E-01    0.7850592815E-01    0.5181198479E-02    0.5208342467E+00
    0.2100000000E+04    0.6043647935E+00    0.3940287035E-01    0.7902928600E-01    0.4892442779E-02    0.5247176305E+00
    0.2300000000E+04    0.6108633704E+00    0.3771365721E-01    0.7947875586E-01    0.4643719994E-02    0.5280819950E+00
    0.2500000000E+04    0.6163786656E+00    0.3623323987E-01    0.7986969281E-01    0.4427027331E-02    0.5310329603E+00
    0.2700000000E+04    0.6211124644E+00    0.3492254788E-01    0.8021336821E-01    0.4236346048E-02    0.5336483795E+00
    0.2900000000E+04    0.6252158588E+00    0.3375179295E-01    0.8051826206E-01    0.4067072263E-02    0.5359870602E+00
    0.3100000000E+04    0.6288040159E+00    0.3269788062E-01    0.8079088925E-01    0.3915629299E-02    0.5380943580E+00
    0.3300000000E+04    0.6319661198E+00    0.3174263307E-01    0.8103634608E-01    0.3779198887E-02    0.5400058860E+00
    0.3500000000E+04    0.6347722180E+00    0.3087154496E-01    0.8125868215E-01    0.3655531536E-02    0.5417500469E+00
    0.3700000000E+04    0.6372780315E+00    0.3007289696E-01    0.8146116004E-01    0.3542810513E-02    0.5433498050E+00
    0.3900000000E+04    0.6395283977E+00    0.2933711322E-01    0.8164644054E-01    0.3439552760E-02    0.5448239539E+00
    0.4100000000E+04    0.6415597741E+00    0.2865628864E-01    0.8181671740E-01    0.3344535664E-02    0.5461880413E+00
    0.4300000000E+04    0.6434020884E+00    0.2802383594E-01    0.8197381706E-01    0.3256742210E-02    0.5474550544E+00
    0.4500000000E+04    0.6450801223E+00    0.2743421867E-01    0.8211927360E-01    0.3175319377E-02    0.5486359377E+00
    0.4700000000E+04    0.6466145609E+00    0.2688274687E-01    0.8225438594E-01    0.3099546223E-02    0.5497399869E+00
    0.4900000000E+04    0.6480227980E+00    0.2636541875E-01    0.8238026186E-01    0.3028809130E-02    0.5507751553E+00
    0.1000000000E+04    0.5305897651E+00    0.5611213451E-01    0.7433344403E-01    0.7389307846E-02    0.4907910228E+00
    0.3000000000E+04    0.6270682513E+00    0.3321146614E-01    0.8065826225E-01    0.3989313311E-02    0.5370672120E+00
    0.5000000000E+04    0.6486842828E+00    0.2611846514E-01    0.8244003874E-01    0.2995161837E-02    0.5512690872E+00
    0.7000000000E+04    0.6579017205E+00    0.2234560224E-01    0.8332376750E-01    0.2491346573E-02    0.5587850181E+00
    0.9000000000E+04    0.6629665830E+00    0.1989828871E-01    0.8385996536E-01    0.2175509854E-02    0.5636104701E+00
    0.1100000000E+05    0.6661584110E+00    0.1813950235E-01    0.8422207228E-01    0.1954163391E-02    0.5670421277E+00
    0.1300000000E+05    0.6683505426E+00    0.1679371538E-01    0.8448353888E-01    0.1788044186E-02    0.5696432232E+00
    0.1500000000E+05    0.6699476595E+00    0.1571930921E-01    0.8468120257E-01    0.1657465600E-02    0.5717027502E+00
    0.1700000000E+05    0.6711624477E+00    0.1483484638E-01    0.8483571260E-01    0.1551339538E-02    0.5733861551E+00
    0.1900000000E+05    0.6721172119E+00    0.1408963824E-01    0.8495959929E-01    0.1462884574E-02    0.5747958394E+00
    0.2100000000E+05    0.6728872062E+00    0.1345021838E-01    0.8506093314E-01    0.1387690097E-02    0.5759990074E+00
    0.2300000000E+05    0.6735212450E+00    0.1289345782E-01    0.8514515969E-01    0.1322747263E-02    0.5770418262E+00
    0.2500000000E+05    0.6740523635E+00    0.1240277776E-01    0.8521609313E-01    0.1265923753E-02    0.5779571955E+00
    0.2700000000E+05    0.6745037092E+00    0.1196593454E-01    0.8527648827E-01    0.1215660600E-02    0.5787692768E+00
    0.2900000000E+05    0.6748919804E+00    0.1157365843E-01    0.8532838650E-01    0.1170788061E-02    0.5794962669E+00
    0.3100000000E+05    0.6752295238E+00    0.1121878196E-01    0.8537333391E-01    0.1130408959E-02    0.5801521660E+00
    0.3300000000E+05    0.6755256637E+00    0.1089566214E-01    0.8541252357E-01    0.1093822098E-02    0.5807479451E+00
    0.3500000000E+05    0.6757875734E+00    0.1059978612E-01    0.8544689130E-01    0.1060470444E-02    0.5812923399E+00
    0.3700000000E+05    0.6760208608E+00    0.1032749496E-01    0.8547718168E-01    0.1029905124E-02    0.5817924042E+00
    0.3900000000E+05    0.6762299730E+00    0.1007578594E-01    0.8550399467E-01    0.1001759838E-02    0.5822539043E+00
    0.4100000000E+05    0.6764184818E+00    0.9842168089E-02    0.8552781920E-01    0.9757323042E-03    0.5826816069E+00
    0.4300000000E+05    0.6765892888E+00    0.9624554964E-02    0.8554905774E-01    0.9515705541E-03    0.5830794907E+00
    0.4500000000E+05    0.6767447755E+00    0.9421183662E-02    0.8556804462E-01    0.9290626563E-03    0.5834509070E+00
    0.4700000000E+05    0.6768869148E+00    0.9230552865E-02    0.8558505986E-01    0.9080288918E-03    0.5837987012E+00
    0.4900000000E+05    0.6770173547E+00    0.9051374824E-02    0.8560033980E-01    0.8883157212E-03    0.5841253071E+00
    0.1000000000E+05    0.6647255439E+00    0.1895460875E-01    0.8405693667E-01    0.2056151385E-02    0.5654560010E+00
    0.3000000000E+05    0.6750664514E+00    0.1139192833E-01    0.8535164752E-01    0.1150084547E-02    0.5798323569E+00
    0.5000000000E+05    0.6770786298E+00    0.8965727130E-02    0.8560739298E-01    0.8789123563E-03    0.5842813309E+00
    0.7000000000E+05    0.6779344090E+00    0.7649654599E-02    0.8569322321E-01    0.7360502019E-03    0.5866729752E+00
    0.9000000000E+05    0.6784082947E+00    0.6791171353E-02    0.8572248796E-01    0.6445794661E-03    0.5882307106E+00
    0.1100000000E+06    0.6787093985E+00    0.6173799806E-02    0.8572737674E-01    0.5796927996E-03    0.5893527320E+00
    0.1300000000E+06    0.6789177158E+00    0.5701961914E-02    0.8572028375E-01    0.5306353507E-03    0.5902129254E+00
    0.1500000000E+06    0.6790704533E+00    0.5325984643E-02    0.8570686626E-01    0.4918926215E-03    0.5909010383E+00
    0.1700000000E+06    0.6791872650E+00    0.5017132989E-02    0.8569000305E-01    0.4603085595E-03    0.5914687537E+00
    0.1900000000E+06    0.6792795120E+00    0.4757466546E-02    0.8567127188E-01    0.4339301370E-03    0.5919482442E+00
    0.2100000000E+06    0.6793542196E+00    0.4535124087E-02    0.8565158385E-01    0.4114758728E-03    0.5923607400E+00
    0.2300000000E+06    0.6794159658E+00    0.4341905316E-02    0.8563148465E-01    0.3920656530E-03    0.5927209018E+00
    0.2500000000E+06    0.6794678620E+00    0.4171933918E-02    0.8561130913E-01    0.3750724800E-03    0.5930392297E+00
    0.2700000000E+06    0.6795120969E+00    0.4020873102E-02    0.8559126543E-01    0.3600360549E-03    0.5933234713E+00
    0.2900000000E+06    0.6795502549E+00    0.3885442475E-02    0.8557148319E-01    0.3466098649E-03    0.5935794881E+00
    0.3100000000E+06    0.6795835112E+00    0.3763108304E-02    0.8555204206E-01    0.3345274378E-03    0.5938118096E+00
    0.3300000000E+06    0.6796127562E+00    0.3651878073E-02    0.8553298937E-01    0.3235800659E-03    0.5940239996E+00
    0.3500000000E+06    0.6796386767E+00    0.3550160216E-02    0.8551435118E-01    0.3136016629E-03    0.5942189073E+00
    0.3700000000E+06    0.6796618110E+00    0.3456665891E-02    0.8549613948E-01    0.3044582019E-03    0.5943988421E+00
    0.3900000000E+06    0.6796825870E+00    0.3370338673E-02    0.8547835688E-01    0.2960401846E-03    0.5945656987E+00
    0.4100000000E+06    0.6797013492E+00    0.3290303246E-02    0.8546099976E-01    0.2882571629E-03    0.5947210490E+00
    0.4300000000E+06    0.6797183780E+00    0.3215827294E-02    0.8544406045E-01    0.2810336854E-03    0.5948662093E+00
    0.4500000000E+06    0.6797339039E+00    0.3146292771E-02    0.8542752863E-01    0.2743062487E-03    0.5950022922E+00
    0.4700000000E+06    0.6797481183E+00    0.3081173924E-02    0.8541139239E-01    0.2680209736E-03    0.5951302453E+00
    0.4900000000E+06    0.6797611814E+00    0.3020020278E-02    0.8539563886E-01    0.2621318102E-03    0.5952508816E+00
    0.1000000000E+06    0.6785739381E+00    0.6459872949E-02    0.8572696855E-01    0.6096634908E-03    0.5888324621E+00
    0.3000000000E+06    0.6795674345E+00    0.3822773656E-02    0.8556171642E-01    0.3404148744E-03    0.5936983688E+00
    0.5000000000E+06    0.6797673243E+00    0.2990806877E-02    0.8538790147E-01    0.2593231690E-03    0.5953086791E+00
    0.7000000000E+06    0.6798535973E+00    0.2543419863E-02    0.8525007988E-01    0.2167051011E-03    0.5962096771E+00
    0.9000000000E+06    0.6799018407E+00    0.2253142477E-02    0.8513724994E-01    0.1894826675E-03    0.5968141951E+00
    0.1100000000E+07    0.6799327268E+00    0.2045162486E-02    0.8504189543E-01    0.1702097329E-03    0.5972601533E+00
    0.1300000000E+07    0.6799542300E+00    0.1886646286E-02    0.8495932993E-01    0.1556619323E-03    0.5976089961E+00
    0.1500000000E+07    0.6799700824E+00    0.1760605563E-02    0.8488650585E-01    0.1441883384E-03    0.5978929645E+00
    0.1700000000E+07    0.6799822654E+00    0.1657246909E-02    0.8482134426E-01    0.1348453993E-03    0.5981308912E+00
    0.1900000000E+07    0.6799919293E+00    0.1570473043E-02    0.8476236735E-01    0.1270499707E-03    0.5983346469E+00
    0.2100000000E+07    0.6799997880E+00    0.1496262153E-02    0.8470848800E-01    0.1204198641E-03    0.5985121535E+00
    0.2300000000E+07    0.6800063083E+00    0.1431839228E-02    0.8465888352E-01    0.1146928693E-03    0.5986689377E+00
    0.2500000000E+07    0.6800118082E+00    0.1375219077E-02    0.8461291632E-01    0.1096823639E-03    0.5988089951E+00
    0.2700000000E+07    0.6800165123E+00    0.1324938779E-02    0.8457008220E-01    0.1052514604E-03    0.5989352996E+00
    0.2900000000E+07    0.6800205834E+00    0.1279893212E-02    0.8452997556E-01    0.1012971910E-03    0.5990501197E+00
    0.3100000000E+07    0.6800241426E+00    0.1239229789E-02    0.8449226519E-01    0.9774042945E-04    0.5991552212E+00
    0.3300000000E+07    0.6800272820E+00    0.1202278744E-02    0.8445667707E-01    0.9451924343E-04    0.5992520040E+00
    0.3500000000E+07    0.6800300724E+00    0.1168505591E-02    0.8442298194E-01    0.9158437818E-04    0.5993415945E+00
    0.3700000000E+07    0.6800325699E+00    0.1137477880E-02    0.8439098596E-01    0.8889610927E-04    0.5994249117E+00
    0.3900000000E+07    0.6800348188E+00    0.1108841424E-02    0.8436052381E-01    0.8642199940E-04    0.5995027142E+00
    0.4100000000E+07    0.6800368551E+00    0.1082302971E-02    0.8433145332E-01    0.8413526796E-04    0.5995756351E+00
    0.4300000000E+07    0.6800387079E+00    0.1057617340E-02    0.8430365129E-01    0.8201358490E-04    0.5996442073E+00
    0.4500000000E+07    0.6800404014E+00    0.1034577737E-02    0.8427701032E-01    0.8003816443E-04    0.5997088839E+00
    0.4700000000E+07    0.6800419556E+00    0.1013008351E-02    0.8425143616E-01    0.7819307430E-04    0.5997700526E+00
    0.4900000000E+07    0.6800433872E+00    0.9927586247E-03    0.8422684565E-01    0.7646470265E-04    0.5998280478E+00
    0.1000000000E+07    0.6799188060E+00    0.2141454312E-02    0.8508773045E-01    0.1791075557E-03    0.5970521684E+00
    0.3000000000E+07    0.6800224207E+00    0.1259059236E-02    0.8451083914E-01    0.9947333441E-04    0.5991037905E+00
    0.5000000000E+07    0.6800440616E+00    0.9830873663E-03    0.8421489589E-01    0.7564056264E-04    0.5998559475E+00
    0.7000000000E+07    0.6800536286E+00    0.8351490176E-03    0.8401334209E-01    0.6314716494E-04    0.6003011634E+00
    0.9000000000E+07    0.6800590826E+00    0.7393332064E-03    0.8386001820E-01    0.5517902750E-04    0.6006120029E+00
    0.1100000000E+08    0.6800626326E+00    0.6707640967E-03    0.8373612502E-01    0.4954357787E-04    0.6008484944E+00
    0.1300000000E+08    0.6800651407E+00    0.6185481379E-03    0.8363210682E-01    0.4529302610E-04    0.6010381980E+00
    0.1500000000E+08    0.6800670146E+00    0.5770575775E-03    0.8354242903E-01    0.4194269396E-04    0.6011959313E+00
    0.1700000000E+08    0.6800684724E+00    0.5430518803E-03    0.8346359427E-01    0.3921583968E-04    0.6013305296E+00
    0.1900000000E+08    0.6800696421E+00    0.5145153613E-03    0.8339324958E-01    0.3694155955E-04    0.6014476623E+00
    0.2100000000E+08    0.6800706035E+00    0.4901194506E-03    0.8332973521E-01    0.3500791576E-04    0.6015511731E+00
    0.2300000000E+08    0.6800714091E+00    0.4689480202E-03    0.8327183615E-01    0.3333815172E-04    0.6016437819E+00
    0.2500000000E+08    0.6800720952E+00    0.4503460397E-03    0.8321863594E-01    0.3187766278E-04    0.6017274807E+00
    0.2700000000E+08    0.6800726872E+00    0.4338310283E-03    0.8316942614E-01    0.3058641261E-04    0.6018037696E+00
