  Pressure (Pa) 22mC5-400 (mol/kg) 2mC6-400 (mol/kg) 3mC6-400 (mol/kg) 33mC5-400 (mol/kg) C7-400 (mol/kg)
    0.1000000000E+01    0.3178649883E-02    0.7927420709E-03    0.4209498414E-02    0.1936450048E-03    0.3415418059E-02
    0.3000000000E+01    0.9429828135E-02    0.2314689259E-02    0.1232368516E-01    0.5654819342E-03    0.1000008833E-01
    0.5000000000E+01    0.1554377798E-01    0.3756768976E-02    0.2005572661E-01    0.9178940412E-03    0.1627610659E-01
    0.7000000000E+01    0.2152540230E-01    0.5124344094E-02    0.2743235892E-01    0.1252185510E-02    0.2226503356E-01
    0.9000000000E+01    0.2737936875E-01    0.6422309220E-02    0.3447787270E-01    0.1569546426E-02    0.2798645937E-01
    0.1100000000E+02    0.3311012370E-01    0.7655141520E-02    0.4121438659E-01    0.1871065184E-02    0.3345822390E-01
    0.1300000000E+02    0.3872190510E-01    0.8826944988E-02    0.4766208499E-01    0.2157739289E-02    0.3869660823E-01
    0.1500000000E+02    0.4421875451E-01    0.9941489114E-02    0.5383942514E-01    0.2430484792E-02    0.4371650147E-01
    0.1700000000E+02    0.4960452834E-01    0.1100224278E-01    0.5976331824E-01    0.2690144560E-02    0.4853154663E-01
    0.1900000000E+02    0.5488290826E-01    0.1201240404E-01    0.6544928816E-01    0.2937495545E-02    0.5315426848E-01
    0.2100000000E+02    0.6005741099E-01    0.1297492643E-01    0.7091161100E-01    0.3173255190E-02    0.5759618603E-01
    0.2300000000E+02    0.6513139738E-01    0.1389254217E-01    0.7616343821E-01    0.3398087090E-02    0.6186791161E-01
    0.2500000000E+02    0.7010808101E-01    0.1476778274E-01    0.8121690528E-01    0.3612606020E-02    0.6597923856E-01
    0.2700000000E+02    0.7499053607E-01    0.1560299723E-01    0.8608322817E-01    0.3817382389E-02    0.6993921883E-01
    0.2900000000E+02    0.7978170488E-01    0.1640036863E-01    0.9077278890E-01    0.4012946217E-02    0.7375623200E-01
    0.3100000000E+02    0.8448440488E-01    0.1716192836E-01    0.9529521175E-01    0.4199790685E-02    0.7743804667E-01
    0.3300000000E+02    0.8910133518E-01    0.1788956936E-01    0.9965943128E-01    0.4378375308E-02    0.8099187526E-01
    0.3500000000E+02    0.9363508269E-01    0.1858505776E-01    0.1038737531E+00    0.4549128789E-02    0.8442442301E-01
    0.3700000000E+02    0.9808812793E-01    0.1925004340E-01    0.1079459084E+00    0.4712451573E-02    0.8774193190E-01
    0.3900000000E+02    0.1024628504E+00    0.1988606930E-01    0.1118831029E+00    0.4868718157E-02    0.9095022003E-01
    0.4100000000E+02    0.1067615338E+00    0.2049458021E-01    0.1156920606E+00    0.5018279170E-02    0.9405471713E-01
    0.4300000000E+02    0.1109863707E+00    0.2107693035E-01    0.1193790637E+00    0.5161463254E-02    0.9706049647E-01
    0.4500000000E+02    0.1151394669E+00    0.2163439037E-01    0.1229499883E+00    0.5298578768E-02    0.9997230373E-01
    0.4700000000E+02    0.1192228461E+00    0.2216815378E-01    0.1264103367E+00    0.5429915336E-02    0.1027945831E+00
    0.4900000000E+02    0.1232384536E+00    0.2267934266E-01    0.1297652669E+00    0.5555745246E-02    0.1055315008E+00
    0.1000000000E+02    0.3025987805E-01    0.7046602205E-02    0.3788345033E-01    0.1722221718E-02    0.3075249726E-01
    0.3000000000E+02    0.8214394209E-01    0.1678550354E-01    0.9305431873E-01    0.4107428897E-02    0.7561357594E-01
    0.5000000000E+02    0.1252214303E+00    0.2292680408E-01    0.1314047244E+00    0.5616675874E-02    0.1068691803E+00
    0.7000000000E+02    0.1617419631E+00    0.2691688384E-01    0.1596895969E+00    0.6601036318E-02    0.1299736216E+00
    0.9000000000E+02    0.1932287846E+00    0.2953910668E-01    0.1814625738E+00    0.7250639951E-02    0.1477985829E+00
    0.1100000000E+03    0.2207512750E+00    0.3125362399E-01    0.1987737739E+00    0.7677259235E-02    0.1620020525E+00
    0.1300000000E+03    0.2450835913E+00    0.3234694983E-01    0.2128901742E+00    0.7950599628E-02    0.1736094610E+00
    0.1500000000E+03    0.2668011663E+00    0.3300545631E-01    0.2246377265E+00    0.8116106649E-02    0.1832898053E+00
    0.1700000000E+03    0.2863416470E+00    0.3335455453E-01    0.2345783684E+00    0.8204449711E-02    0.1914985838E+00
    0.1900000000E+03    0.3040446426E+00    0.3348093552E-01    0.2431080136E+00    0.8236902708E-02    0.1985569603E+00
    0.2100000000E+03    0.3201783950E+00    0.3344584020E-01    0.2505138516E+00    0.8228553968E-02    0.2046980764E+00
    0.2300000000E+03    0.3349581273E+00    0.3329330390E-01    0.2570094096E+00    0.8190301196E-02    0.2100954034E+00
    0.2500000000E+03    0.3485589518E+00    0.3305545328E-01    0.2627568424E+00    0.8130134160E-02    0.2148807751E+00
    0.2700000000E+03    0.3611251330E+00    0.3275600713E-01    0.2678815734E+00    0.8053983361E-02    0.2191562371E+00
    0.2900000000E+03    0.3727768581E+00    0.3241264641E-01    0.2724821864E+00    0.7966295496E-02    0.2230020573E+00
    0.3100000000E+03    0.3836152660E+00    0.3203865258E-01    0.2766372764E+00    0.7870431975E-02    0.2264822752E+00
    0.3300000000E+03    0.3937262399E+00    0.3164406075E-01    0.2804102982E+00    0.7768950073E-02    0.2296486316E+00
    0.3500000000E+03    0.4031833074E+00    0.3123648432E-01    0.2838530648E+00    0.7663804488E-02    0.2325434052E+00
    0.3700000000E+03    0.4120498859E+00    0.3082171301E-01    0.2870083154E+00    0.7556493950E-02    0.2352014958E+00
    0.3900000000E+03    0.4203810419E+00    0.3040415195E-01    0.2899116305E+00    0.7448169204E-02    0.2376519785E+00
    0.4100000000E+03    0.4282248844E+00    0.2998714772E-01    0.2925928798E+00    0.7339713460E-02    0.2399192792E+00
    0.4300000000E+03    0.4356236792E+00    0.2957323270E-01    0.2950773313E+00    0.7231802941E-02    0.2420240753E+00
    0.4500000000E+03    0.4426147492E+00    0.2916431000E-01    0.2973865100E+00    0.7124952864E-02    0.2439839938E+00
    0.4700000000E+03    0.4492312073E+00    0.2876179436E-01    0.2995388714E+00    0.7019552642E-02    0.2458141589E+00
    0.4900000000E+03    0.4555025580E+00    0.2836672033E-01    0.3015503334E+00    0.6915893043E-02    0.2475276240E+00
    0.1000000000E+03    0.2074316189E+00    0.3048894367E-01    0.1905834865E+00    0.7486744744E-02    0.1552782303E+00
    0.3000000000E+03    0.3782920391E+00    0.3222878632E-01    0.2746111473E+00    0.7919209696E-02    0.2247843821E+00
    0.5000000000E+03    0.4585171760E+00    0.2817221425E-01    0.3025076138E+00    0.6864785156E-02    0.2483441938E+00
    0.7000000000E+03    0.5058397738E+00    0.2475508435E-01    0.3168064804E+00    0.5959955276E-02    0.2606446290E+00
    0.9000000000E+03    0.5370042655E+00    0.2216269546E-01    0.3256152494E+00    0.5266677535E-02    0.2683524350E+00
    0.1100000000E+04    0.5590000812E+00    0.2017819865E-01    0.3316326640E+00    0.4733840105E-02    0.2737029327E+00
    0.1300000000E+04    0.5753036581E+00    0.1862047169E-01    0.3360260873E+00    0.4315547895E-02    0.2776695747E+00
    0.1500000000E+04    0.5878414663E+00    0.1736626584E-01    0.3393865588E+00    0.3979584107E-02    0.2807483906E+00
    0.1700000000E+04    0.5977653345E+00    0.1633339927E-01    0.3420468719E+00    0.3704044474E-02    0.2832203993E+00
    0.1900000000E+04    0.6058046855E+00    0.1546619930E-01    0.3442093983E+00    0.3473890548E-02    0.2852575066E+00
    0.2100000000E+04    0.6124429398E+00    0.1472602113E-01    0.3460046084E+00    0.3278584680E-02    0.2869711822E+00
    0.2300000000E+04    0.6180125877E+00    0.1408535198E-01    0.3475205754E+00    0.3110575006E-02    0.2884370968E+00
    0.2500000000E+04    0.6227494908E+00    0.1352413057E-01    0.3488190032E+00    0.2964330222E-02    0.2897085568E+00
    0.2700000000E+04    0.6268254055E+00    0.1302740634E-01    0.3499444681E+00    0.2835716335E-02    0.2908242787E+00
    0.2900000000E+04    0.6303682520E+00    0.1258381625E-01    0.3509300126E+00    0.2721586370E-02    0.2918131133E+00
    0.3100000000E+04    0.6334751830E+00    0.1218457035E-01    0.3518006737E+00    0.2619504558E-02    0.2926970342E+00
    0.3300000000E+04    0.6362212592E+00    0.1182276071E-01    0.3525757842E+00    0.2527557110E-02    0.2934930952E+00
    0.3500000000E+04    0.6386653582E+00    0.1149288084E-01    0.3532705211E+00    0.2444219842E-02    0.2942147511E+00
    0.3700000000E+04    0.6408542908E+00    0.1119048487E-01    0.3538969724E+00    0.2368263873E-02    0.2948727709E+00
    0.3900000000E+04    0.6428257264E+00    0.1091194156E-01    0.3544648905E+00    0.2298687321E-02    0.2954758853E+00
    0.4100000000E+04    0.6446103106E+00    0.1065425383E-01    0.3549822344E+00    0.2234665054E-02    0.2960312532E+00
    0.4300000000E+04    0.6462332214E+00    0.1041492435E-01    0.3554555662E+00    0.2175511193E-02    0.2965448051E+00
    0.4500000000E+04    0.6477153319E+00    0.1019185406E-01    0.3558903473E+00    0.2120650761E-02    0.2970214997E+00
    0.4700000000E+04    0.6490740883E+00    0.9983264606E-02    0.3562911615E+00    0.2069597989E-02    0.2974655179E+00
    0.4900000000E+04    0.6503241827E+00    0.9787638295E-02    0.3566618852E+00    0.2021939526E-02    0.2978804116E+00
    0.1000000000E+04    0.5488806546E+00    0.2110729263E-01    0.3288803157E+00    0.4983413537E-02    0.2712452992E+00
    0.3000000000E+04    0.6319710777E+00    0.1237911968E-01    0.3513783826E+00    0.2669169516E-02    0.2922670247E+00
    0.5000000000E+04    0.6509124505E+00    0.9694271557E-02    0.3568370145E+00    0.1999270499E-02    0.2980779039E+00
    0.7000000000E+04    0.6591913799E+00    0.8269808117E-02    0.3593526801E+00    0.1659930481E-02    0.3010488062E+00
    0.9000000000E+04    0.6638189741E+00    0.7348599096E-02    0.3608053653E+00    0.1447405730E-02    0.3029293286E+00
    0.1100000000E+05    0.6667709041E+00    0.6688450111E-02    0.3617500394E+00    0.1298650307E-02    0.3042598371E+00
    0.1300000000E+05    0.6688166727E+00    0.6184591956E-02    0.3624113679E+00    0.1187156548E-02    0.3052679866E+00
    0.1500000000E+05    0.6703175735E+00    0.5783220827E-02    0.3628981925E+00    0.1099626738E-02    0.3060681829E+00
    0.1700000000E+05    0.6714655114E+00    0.5453438269E-02    0.3632698323E+00    0.1028571127E-02    0.3067249543E+00
    0.1900000000E+05    0.6723718013E+00    0.5176041574E-02    0.3635614400E+00    0.9694103973E-03    0.3072778050E+00
    0.2100000000E+05    0.6731054313E+00    0.4938372246E-02    0.3637951976E+00    0.9191676325E-03    0.3077524494E+00
    0.2300000000E+05    0.6737114249E+00    0.4731695283E-02    0.3639858041E+00    0.8758132415E-03    0.3081664443E+00
    0.2500000000E+05    0.6742204110E+00    0.4549758649E-02    0.3641433902E+00    0.8379098206E-03    0.3085322434E+00
    0.2700000000E+05    0.6746539483E+00    0.4387951578E-02    0.3642751661E+00    0.8044071775E-03    0.3088589615E+00
    0.2900000000E+05    0.6750276506E+00    0.4242787802E-02    0.3643864037E+00    0.7745178551E-03    0.3091534464E+00
    0.3100000000E+05    0.6753531027E+00    0.4111575013E-02    0.3644810466E+00    0.7476382909E-03    0.3094209578E+00
    0.3300000000E+05    0.6756390810E+00    0.3992195993E-02    0.3645621030E+00    0.7232970777E-03    0.3096656128E+00
    0.3500000000E+05    0.6758923559E+00    0.3882959370E-02    0.3646319072E+00    0.7011199654E-03    0.3098906879E+00
    0.3700000000E+05    0.6761182333E+00    0.3782495205E-02    0.3646922976E+00    0.6808055595E-03    0.3100988281E+00
    0.3900000000E+05    0.6763209306E+00    0.3689680311E-02    0.3647447414E+00    0.6621080551E-03    0.3102921965E+00
    0.4100000000E+05    0.6765038420E+00    0.3603583773E-02    0.3647904234E+00    0.6448247213E-03    0.3104725817E+00
    0.4300000000E+05    0.6766697298E+00    0.3523426501E-02    0.3648303104E+00    0.6287866643E-03    0.3106414780E+00
    0.4500000000E+05    0.6768208654E+00    0.3448550740E-02    0.3648651987E+00    0.6138519008E-03    0.3108001453E+00
    0.4700000000E+05    0.6769591330E+00    0.3378396758E-02    0.3648957501E+00    0.5999000888E-03    0.3109496543E+00
    0.4900000000E+05    0.6770861093E+00    0.3312484782E-02    0.3649225187E+00    0.5868284657E-03    0.3110909223E+00
    0.1000000000E+05    0.6654419995E+00    0.6994174905E-02    0.3613231479E+00    0.1367166918E-02    0.3036452223E+00
    0.3000000000E+05    0.6751958045E+00    0.4175581324E-02    0.3644355931E+00    0.7607339398E-03    0.3092902938E+00
    0.5000000000E+05    0.6771457868E+00    0.3280987940E-02    0.3649346334E+00    0.5805946248E-03    0.3111587174E+00
    0.7000000000E+05    0.6779812217E+00    0.2797745246E-02    0.3650607411E+00    0.4860005249E-03    0.3122271793E+00
    0.9000000000E+05    0.6784453822E+00    0.2483243269E-02    0.3650737168E+00    0.4255454302E-03    0.3129600375E+00
    0.1100000000E+06    0.6787408301E+00    0.2257398302E-02    0.3650423786E+00    0.3827102889E-03    0.3135116859E+00
    0.1300000000E+06    0.6789454405E+00    0.2084962491E-02    0.3649916803E+00    0.3503505830E-03    0.3139511065E+00
    0.1500000000E+06    0.6790955464E+00    0.1947657071E-02    0.3649323526E+00    0.3248092502E-03    0.3143147043E+00
    0.1700000000E+06    0.6792103811E+00    0.1834925287E-02    0.3648695148E+00    0.3039959840E-03    0.3146238920E+00
    0.1900000000E+06    0.6793010790E+00    0.1740184464E-02    0.3648057709E+00    0.2866185695E-03    0.3148922673E+00
    0.2100000000E+06    0.6793745332E+00    0.1659086903E-02    0.3647424935E+00    0.2718298082E-03    0.3151289736E+00
    0.2300000000E+06    0.6794352394E+00    0.1588629300E-02    0.3646804118E+00    0.2590482381E-03    0.3153404379E+00
    0.2500000000E+06    0.6794862550E+00    0.1526660982E-02    0.3646199043E+00    0.2478598538E-03    0.3155313407E+00
    0.2700000000E+06    0.6795297317E+00    0.1471595657E-02    0.3645611510E+00    0.2379608638E-03    0.3157051912E+00
    0.2900000000E+06    0.6795672278E+00    0.1422234038E-02    0.3645042178E+00    0.2291226663E-03    0.3158646844E+00
    0.3100000000E+06    0.6795998996E+00    0.1377650209E-02    0.3644491047E+00    0.2211695250E-03    0.3160119329E+00
    0.3300000000E+06    0.6796286234E+00    0.1337116313E-02    0.3643957733E+00    0.2139638404E-03    0.3161486219E+00
    0.3500000000E+06    0.6796540751E+00    0.1300051148E-02    0.3643441643E+00    0.2073961416E-03    0.3162761162E+00
    0.3700000000E+06    0.6796767847E+00    0.1265984197E-02    0.3642942071E+00    0.2013781096E-03    0.3163955361E+00
    0.3900000000E+06    0.6796971733E+00    0.1234529892E-02    0.3642458260E+00    0.1958376033E-03    0.3165078118E+00
    0.4100000000E+06    0.6797155803E+00    0.1205368840E-02    0.3641989446E+00    0.1907150436E-03    0.3166137237E+00
    0.4300000000E+06    0.6797322816E+00    0.1178233880E-02    0.3641534874E+00    0.1859607376E-03    0.3167139329E+00
    0.4500000000E+06    0.6797475043E+00    0.1152899583E-02    0.3641093816E+00    0.1815328678E-03    0.3168090041E+00
    0.4700000000E+06    0.6797614369E+00    0.1129174215E-02    0.3640665576E+00    0.1773959587E-03    0.3168994229E+00
    0.4900000000E+06    0.6797742370E+00    0.1106893518E-02    0.3640249493E+00    0.1735196933E-03    0.3169856105E+00
    0.1000000000E+06    0.6786078674E+00    0.2362016152E-02    0.3650615212E+00    0.4024905657E-03    0.3132531026E+00
    0.3000000000E+06    0.6795841065E+00    0.1399394339E-02    0.3644764355E+00    0.2250448221E-03    0.3159397253E+00
    0.5000000000E+06    0.6797802548E+00    0.1096249885E-02    0.3640045815E+00    0.1716710066E-03    0.3170272341E+00
    0.7000000000E+06    0.6798646473E+00    0.9332362879E-03    0.3636479091E+00    0.1436151196E-03    0.3177062640E+00
    0.9000000000E+06    0.6799116933E+00    0.8274401279E-03    0.3633623933E+00    0.1256875262E-03    0.3181978635E+00
    0.1100000000E+07    0.6799417248E+00    0.7516132425E-03    0.3631243342E+00    0.1129899181E-03    0.3185821735E+00
    0.1300000000E+07    0.6799625755E+00    0.6938003278E-03    0.3629200853E+00    0.1034014995E-03    0.3188971455E+00
    0.1500000000E+07    0.6799779068E+00    0.6478161615E-03    0.3627411378E+00    0.9583637132E-04    0.3191636973E+00
    0.1700000000E+07    0.6799896603E+00    0.6100950521E-03    0.3625818407E+00    0.8967385642E-04    0.3193945626E+00
    0.1900000000E+07    0.6799989615E+00    0.5784168921E-03    0.3624382517E+00    0.8453030825E-04    0.3195980585E+00
    0.2100000000E+07    0.6800065081E+00    0.5513171434E-03    0.3623075115E+00    0.8015425100E-04    0.3197799120E+00
    0.2300000000E+07    0.6800127558E+00    0.5277851752E-03    0.3621874795E+00    0.7637312627E-04    0.3199442315E+00
    0.2500000000E+07    0.6800180148E+00    0.5070979133E-03    0.3620765117E+00    0.7306409936E-04    0.3200940627E+00
    0.2700000000E+07    0.6800225037E+00    0.4887224422E-03    0.3619733177E+00    0.7013705645E-04    0.3202317248E+00
    0.2900000000E+07    0.6800263810E+00    0.4722561338E-03    0.3618768654E+00    0.6752420229E-04    0.3203590245E+00
    0.3100000000E+07    0.6800297643E+00    0.4573883240E-03    0.3617863169E+00    0.6517343080E-04    0.3204773957E+00
    0.3300000000E+07    0.6800327430E+00    0.4438749322E-03    0.3617009821E+00    0.6304395190E-04    0.3205879954E+00
    0.3500000000E+07    0.6800353859E+00    0.4315211519E-03    0.3616202856E+00    0.6110332027E-04    0.3206917705E+00
    0.3700000000E+07    0.6800377471E+00    0.4201693455E-03    0.3615437432E+00    0.5932536448E-04    0.3207895056E+00
    0.3900000000E+07    0.6800398697E+00    0.4096903876E-03    0.3614709429E+00    0.5768871086E-04    0.3208818580E+00
    0.4100000000E+07    0.6800417884E+00    0.3999773533E-03    0.3614015314E+00    0.5617571050E-04    0.3209693836E+00
    0.4300000000E+07    0.6800435314E+00    0.3909408352E-03    0.3613352036E+00    0.5477164541E-04    0.3210525571E+00
    0.4500000000E+07    0.6800451219E+00    0.3825054142E-03    0.3612716939E+00    0.5346413195E-04    0.3211317865E+00
    0.4700000000E+07    0.6800465793E+00    0.3746069634E-03    0.3612107699E+00    0.5224266612E-04    0.3212074253E+00
    0.4900000000E+07    0.6800479197E+00    0.3671905607E-03    0.3611522269E+00    0.5109827255E-04    0.3212797820E+00
    0.1000000000E+07    0.6799281997E+00    0.7867232650E-03    0.3632384441E+00    0.1188527272E-03    0.3184004929E+00
    0.3000000000E+07    0.6800281283E+00    0.4646389984E-03    0.3618308994E+00    0.6631883064E-04    0.3204192483E+00
    0.5000000000E+07    0.6800485504E+00    0.3636480718E-03    0.3611237908E+00    0.5055252231E-04    0.3213148152E+00
    0.7000000000E+07    0.6800574376E+00    0.3094226718E-03    0.3606452872E+00    0.4227334445E-04    0.3218942676E+00
    0.9000000000E+07    0.6800624378E+00    0.2742598222E-03    0.3602824481E+00    0.3698622769E-04    0.3223226108E+00
    0.1100000000E+08    0.6800656550E+00    0.2490716691E-03    0.3599898134E+00    0.3324310276E-04    0.3226622521E+00
    0.1300000000E+08    0.6800679043E+00    0.2298751069E-03    0.3597444269E+00    0.3041743202E-04    0.3229435455E+00
    0.1500000000E+08    0.6800695686E+00    0.2146109416E-03    0.3595330504E+00    0.2818857250E-04    0.3231835457E+00
    0.1700000000E+08    0.6800708520E+00    0.2020927288E-03    0.3593473443E+00    0.2637332227E-04    0.3233927881E+00
    0.1900000000E+08    0.6800718730E+00    0.1915820700E-03    0.3591817110E+00    0.2485847783E-04    0.3235782360E+00
    0.2100000000E+08    0.6800727055E+00    0.1825920362E-03    0.3590322094E+00    0.2356985491E-04    0.3237447310E+00
    0.2300000000E+08    0.6800733980E+00    0.1747867111E-03    0.3588959585E+00    0.2245656078E-04    0.3238957752E+00
    0.2500000000E+08    0.6800739834E+00    0.1679258168E-03    0.3587707880E+00    0.2148237463E-04    0.3240339834E+00
    0.2700000000E+08    0.6800744851E+00    0.1618323031E-03    0.3586550217E+00    0.2062072866E-04    0.3241613590E+00
