  Pressure (Pa) 22mC5-400 (mol/kg) 2mC6-400 (mol/kg) 3mC6-400 (mol/kg) 33mC5-400 (mol/kg) C7-400 (mol/kg)
    0.1000000000E+01    0.3169103171E-02    0.3942414442E-02    0.1570910093E-02    0.1284041113E-03    0.6797858750E-02
    0.3000000000E+01    0.9347055701E-02    0.1139318993E-01    0.4556671894E-02    0.3711255079E-03    0.1972126511E-01
    0.5000000000E+01    0.1532214052E-01    0.1831215458E-01    0.7351682187E-02    0.5965876028E-03    0.3182279474E-01
    0.7000000000E+01    0.2110639668E-01    0.2474944265E-01    0.9974365749E-02    0.8064174060E-03    0.4318171863E-01
    0.9000000000E+01    0.2671090064E-01    0.3074910198E-01    0.1244082687E-01    0.1002044193E-02    0.5386733153E-01
    0.1100000000E+02    0.3214586085E-01    0.3634999787E-01    0.1476520455E-01    0.1184728902E-02    0.6394047826E-01
    0.1300000000E+02    0.3742070148E-01    0.4158655923E-01    0.1695996432E-01    0.1355588392E-02    0.7345480776E-01
    0.1500000000E+02    0.4254413654E-01    0.4648939823E-01    0.1903613946E-01    0.1515615593E-02    0.8245781007E-01
    0.1700000000E+02    0.4752423587E-01    0.5108582816E-01    0.2100353174E-01    0.1665696334E-02    0.9099167866E-01
    0.1900000000E+02    0.5236848385E-01    0.5540029848E-01    0.2287087913E-01    0.1806623486E-02    0.9909403178E-01
    0.2100000000E+02    0.5708383177E-01    0.5945476226E-01    0.2464599689E-01    0.1939108899E-02    0.1067985187E+00
    0.2300000000E+02    0.6167674480E-01    0.6326898812E-01    0.2633589671E-01    0.2063793537E-02    0.1141353319E+00
    0.2500000000E+02    0.6615324395E-01    0.6686082607E-01    0.2794688786E-01    0.2181256116E-02    0.1211316422E+00
    0.2700000000E+02    0.7051894382E-01    0.7024643535E-01    0.2948466337E-01    0.2292020499E-02    0.1278119688E+00
    0.2900000000E+02    0.7477908656E-01    0.7344048021E-01    0.3095437380E-01    0.2396562058E-02    0.1341984972E+00
    0.3100000000E+02    0.7893857247E-01    0.7645629902E-01    0.3236069074E-01    0.2495313163E-02    0.1403113514E+00
    0.3300000000E+02    0.8300198765E-01    0.7930605078E-01    0.3370786143E-01    0.2588667937E-02    0.1461688294E+00
    0.3500000000E+02    0.8697362896E-01    0.8200084254E-01    0.3499975613E-01    0.2676986395E-02    0.1517876071E+00
    0.3700000000E+02    0.9085752667E-01    0.8455084052E-01    0.3623990933E-01    0.2760598050E-02    0.1571829147E+00
    0.3900000000E+02    0.9465746501E-01    0.8696536745E-01    0.3743155553E-01    0.2839805067E-02    0.1623686913E+00
    0.4100000000E+02    0.9837700087E-01    0.8925298795E-01    0.3857766061E-01    0.2914885040E-02    0.1673577198E+00
    0.4300000000E+02    0.1020194807E+00    0.9142158376E-01    0.3968094935E-01    0.2986093429E-02    0.1721617449E+00
    0.4500000000E+02    0.1055880562E+00    0.9347842012E-01    0.4074392956E-01    0.3053665712E-02    0.1767915772E+00
    0.4700000000E+02    0.1090856982E+00    0.9543020459E-01    0.4176891339E-01    0.3117819295E-02    0.1812571851E+00
    0.4900000000E+02    0.1125152096E+00    0.9728313916E-01    0.4275803622E-01    0.3178755203E-02    0.1855677755E+00
    0.1000000000E+02    0.2944896723E-01    0.3359714738E-01    0.1361996087E-01    0.1094931381E-02    0.5897695455E-01
    0.3000000000E+02    0.7687111793E-01    0.7496988187E-01    0.3166518165E-01    0.2446635939E-02    0.1372879496E+00
    0.5000000000E+02    0.1142052494E+00    0.9817434916E-01    0.4323977286E-01    0.3208075244E-02    0.1876676259E+00
    0.7000000000E+02    0.1450000238E+00    0.1119991453E+00    0.5140063070E-01    0.3664131086E-02    0.2232894660E+00
    0.9000000000E+02    0.1712503485E+00    0.1204518512E+00    0.5752498350E-01    0.3944739511E-02    0.2500945999E+00
    0.1100000000E+03    0.1941700711E+00    0.1256074085E+00    0.6232834227E-01    0.4117237985E-02    0.2711726486E+00
    0.1300000000E+03    0.2145444190E+00    0.1286382293E+00    0.6622111945E-01    0.4219733178E-02    0.2882974879E+00
    0.1500000000E+03    0.2329068388E+00    0.1302505979E+00    0.6945656640E-01    0.4275229942E-02    0.3025647356E+00
    0.1700000000E+03    0.2496345932E+00    0.1308913561E+00    0.7219999423E-01    0.4298321651E-02    0.3146902167E+00
    0.1900000000E+03    0.2650036333E+00    0.1308543176E+00    0.7456423788E-01    0.4298635007E-02    0.3251629655E+00
    0.2100000000E+03    0.2792216876E+00    0.1303387485E+00    0.7662916323E-01    0.4282723725E-02    0.3343294336E+00
    0.2300000000E+03    0.2924490588E+00    0.1294832382E+00    0.7845302965E-01    0.4255165923E-02    0.3424425663E+00
    0.2500000000E+03    0.3048121606E+00    0.1283861863E+00    0.8007942843E-01    0.4219228353E-02    0.3496917882E+00
    0.2700000000E+03    0.3164126020E+00    0.1271186513E+00    0.8154169107E-01    0.4177283418E-02    0.3562220639E+00
    0.2900000000E+03    0.3273334451E+00    0.1257326638E+00    0.8286578616E-01    0.4131079292E-02    0.3621464302E+00
    0.3100000000E+03    0.3376436187E+00    0.1242667496E+00    0.8407227923E-01    0.4081919655E-02    0.3675544802E+00
    0.3300000000E+03    0.3474010949E+00    0.1227496868E+00    0.8517769291E-01    0.4030786135E-02    0.3725182531E+00
    0.3500000000E+03    0.3566552190E+00    0.1212031122E+00    0.8619547194E-01    0.3978423468E-02    0.3770964163E+00
    0.3700000000E+03    0.3654484468E+00    0.1196433649E+00    0.8713668169E-01    0.3925399803E-02    0.3813372931E+00
    0.3900000000E+03    0.3738176600E+00    0.1180828089E+00    0.8801052272E-01    0.3872150131E-02    0.3852810949E+00
    0.4100000000E+03    0.3817951760E+00    0.1165307973E+00    0.8882471584E-01    0.3819008001E-02    0.3889615922E+00
    0.4300000000E+03    0.3894095333E+00    0.1149943833E+00    0.8958579442E-01    0.3766228999E-02    0.3924073839E+00
    0.4500000000E+03    0.3966861099E+00    0.1134788515E+00    0.9029932930E-01    0.3714008326E-02    0.3956428742E+00
    0.4700000000E+03    0.4036476144E+00    0.1119881174E+00    0.9097010371E-01    0.3662494109E-02    0.3986890326E+00
    0.4900000000E+03    0.4103144824E+00    0.1105250326E+00    0.9160225093E-01    0.3611797571E-02    0.4015639931E+00
    0.1000000000E+03    0.1830700273E+00    0.1233540757E+00    0.6006127721E-01    0.4041653676E-02    0.2612176781E+00
    0.3000000000E+03    0.3325610162E+00    0.1250077055E+00    0.8348261839E-01    0.4106801156E-02    0.3649101366E+00
    0.5000000000E+03    0.4135432724E+00    0.1098045175E+00    0.9190498067E-01    0.3586782566E-02    0.4029422846E+00
    0.7000000000E+03    0.4663503715E+00    0.9706341743E-01    0.9659909463E-01    0.3139582731E-02    0.4244546728E+00
    0.9000000000E+03    0.5033417311E+00    0.8723400531E-01    0.9969829352E-01    0.2789181085E-02    0.4388331938E+00
    0.1100000000E+04    0.5304462224E+00    0.7960477713E-01    0.1019407243E+00    0.2514778546E-02    0.4493488275E+00
    0.1300000000E+04    0.5509897853E+00    0.7356161375E-01    0.1036596508E+00    0.2296485048E-02    0.4574875357E+00
    0.1500000000E+04    0.5669911514E+00    0.6866965167E-01    0.1050308392E+00    0.2119590156E-02    0.4640373436E+00
    0.1700000000E+04    0.5797406384E+00    0.6462937120E-01    0.1061570563E+00    0.1973676001E-02    0.4694612947E+00
    0.1900000000E+04    0.5900961263E+00    0.6123281081E-01    0.1071029869E+00    0.1851363572E-02    0.4740521828E+00
    0.2100000000E+04    0.5986467273E+00    0.5833296410E-01    0.1079116704E+00    0.1747358266E-02    0.4780056586E+00
    0.2300000000E+04    0.6058082751E+00    0.5582377677E-01    0.1086130142E+00    0.1657796807E-02    0.4814582229E+00
    0.2500000000E+04    0.6118813874E+00    0.5362718145E-01    0.1092285381E+00    0.1579810689E-02    0.4845084681E+00
    0.2700000000E+04    0.6170879982E+00    0.5168461017E-01    0.1097741771E+00    0.1511233762E-02    0.4872296638E+00
    0.2900000000E+04    0.6215950277E+00    0.4995134629E-01    0.1102620172E+00    0.1450404121E-02    0.4896775750E+00
    0.3100000000E+04    0.6255301192E+00    0.4839269633E-01    0.1107014142E+00    0.1396027873E-02    0.4918955120E+00
    0.3300000000E+04    0.6289923446E+00    0.4698134663E-01    0.1110997386E+00    0.1347083953E-02    0.4939177038E+00
    0.3500000000E+04    0.6320596384E+00    0.4569550520E-01    0.1114628861E+00    0.1302756552E-02    0.4957716152E+00
    0.3700000000E+04    0.6347940563E+00    0.4451757328E-01    0.1117956362E+00    0.1262386412E-02    0.4974795785E+00
    0.3900000000E+04    0.6372455593E+00    0.4343318020E-01    0.1121019103E+00    0.1225435202E-02    0.4990599681E+00
    0.4100000000E+04    0.6394547784E+00    0.4243047199E-01    0.1123849592E+00    0.1191459110E-02    0.5005280610E+00
    0.4300000000E+04    0.6414550636E+00    0.4149957957E-01    0.1126475042E+00    0.1160089007E-02    0.5018966793E+00
    0.4500000000E+04    0.6432740212E+00    0.4063221619E-01    0.1128918424E+00    0.1131015378E-02    0.5031766766E+00
    0.4700000000E+04    0.6449346827E+00    0.3982136910E-01    0.1131199284E+00    0.1103976735E-02    0.5043773110E+00
    0.4900000000E+04    0.6464564021E+00    0.3906106065E-01    0.1133334367E+00    0.1078750627E-02    0.5055065357E+00
    0.1000000000E+04    0.5178814385E+00    0.8318726767E-01    0.1009004838E+00    0.2643843873E-02    0.4444575877E+00
    0.3000000000E+04    0.6236273039E+00    0.4915204977E-01    0.1104872708E+00    0.1422478633E-02    0.4908129693E+00
    0.5000000000E+04    0.6471703756E+00    0.3869822659E-01    0.1134351834E+00    0.1066756663E-02    0.5060465548E+00
    0.7000000000E+04    0.6570561703E+00    0.3316193752E-01    0.1149696352E+00    0.8875607962E-03    0.5143645615E+00
    0.9000000000E+04    0.6624274501E+00    0.2957436531E-01    0.1159347239E+00    0.7755579784E-03    0.5198115464E+00
    0.1100000000E+05    0.6657846759E+00    0.2699544168E-01    0.1166062540E+00    0.6971701680E-03    0.5237403857E+00
    0.1300000000E+05    0.6680761391E+00    0.2502063913E-01    0.1171041220E+00    0.6383719040E-03    0.5267508078E+00
    0.1500000000E+05    0.6697375669E+00    0.2344262616E-01    0.1174897216E+00    0.5921576238E-03    0.5291552622E+00
    0.1700000000E+05    0.6709963817E+00    0.2214235843E-01    0.1177980727E+00    0.5545920202E-03    0.5311348020E+00
    0.1900000000E+05    0.6719826123E+00    0.2104579413E-01    0.1180507503E+00    0.5232726825E-03    0.5328026111E+00
    0.2100000000E+05    0.6727758799E+00    0.2010406075E-01    0.1182618398E+00    0.4966390699E-03    0.5342335990E+00
    0.2300000000E+05    0.6734276193E+00    0.1928338066E-01    0.1184409622E+00    0.4736275331E-03    0.5354796010E+00
    0.2500000000E+05    0.6739725152E+00    0.1855953659E-01    0.1185949327E+00    0.4534847206E-03    0.5365777922E+00
    0.2700000000E+05    0.6744347964E+00    0.1791463775E-01    0.1187287258E+00    0.4356600569E-03    0.5375556284E+00
    0.2900000000E+05    0.6748318936E+00    0.1733513329E-01    0.1188460640E+00    0.4197405212E-03    0.5384338919E+00
    0.3100000000E+05    0.6751766639E+00    0.1681054073E-01    0.1189497930E+00    0.4054093685E-03    0.5392286454E+00
    0.3300000000E+05    0.6754787967E+00    0.1633260324E-01    0.1190421286E+00    0.3924190527E-03    0.5399525285E+00
    0.3500000000E+05    0.6757457315E+00    0.1589471432E-01    0.1191248232E+00    0.3805729154E-03    0.5406156439E+00
    0.3700000000E+05    0.6759832740E+00    0.1549151495E-01    0.1191992830E+00    0.3697124714E-03    0.5412261775E+00
    0.3900000000E+05    0.6761960214E+00    0.1511860500E-01    0.1192666496E+00    0.3597083750E-03    0.5417908431E+00
    0.4100000000E+05    0.6763876605E+00    0.1477233255E-01    0.1193278609E+00    0.3504538705E-03    0.5423152071E+00
    0.4300000000E+05    0.6765611824E+00    0.1444963725E-01    0.1193836943E+00    0.3418599575E-03    0.5428039290E+00
    0.4500000000E+05    0.6767190391E+00    0.1414793213E-01    0.1194348004E+00    0.3338517634E-03    0.5432609436E+00
    0.4700000000E+05    0.6768632595E+00    0.1386501310E-01    0.1194817282E+00    0.3263657840E-03    0.5436896000E+00
    0.4900000000E+05    0.6769955370E+00    0.1359898877E-01    0.1195249440E+00    0.3193477552E-03    0.5440927696E+00
    0.1000000000E+05    0.6642804549E+00    0.2819082935E-01    0.1162977031E+00    0.7332802024E-03    0.5219185457E+00
    0.3000000000E+05    0.6750101524E+00    0.1706653347E-01    0.1188994787E+00    0.4123932426E-03    0.5388408492E+00
    0.5000000000E+05    0.6770576513E+00    0.1347179277E-01    0.1195452869E+00    0.3159993749E-03    0.5442855846E+00
    0.7000000000E+05    0.6779235080E+00    0.1151429431E-01    0.1198294069E+00    0.2650673561E-03    0.5472589836E+00
    0.9000000000E+05    0.6784016158E+00    0.1023423224E-01    0.1199807076E+00    0.2323904594E-03    0.5492140739E+00
    0.1100000000E+06    0.6787048806E+00    0.9312050519E-02    0.1200687475E+00    0.2091752270E-03    0.5506316067E+00
    0.1300000000E+06    0.6789144499E+00    0.8606299517E-02    0.1201220337E+00    0.1916025310E-03    0.5517237355E+00
    0.1500000000E+06    0.6790679771E+00    0.8043322863E-02    0.1201544144E+00    0.1777112456E-03    0.5526007960E+00
    0.1700000000E+06    0.6791853185E+00    0.7580445291E-02    0.1201734098E+00    0.1663776018E-03    0.5533267049E+00
    0.1900000000E+06    0.6792779378E+00    0.7190988758E-02    0.1201834389E+00    0.1569054643E-03    0.5539414404E+00
    0.2100000000E+06    0.6793529169E+00    0.6857296075E-02    0.1201872562E+00    0.1488376518E-03    0.5544714894E+00
    0.2300000000E+06    0.6794148672E+00    0.6567148509E-02    0.1201866593E+00    0.1418599279E-03    0.5549352050E+00
    0.2500000000E+06    0.6794669207E+00    0.6311783017E-02    0.1201828645E+00    0.1357482733E-03    0.5553457702E+00
    0.2700000000E+06    0.6795112792E+00    0.6084727715E-02    0.1201767197E+00    0.1303381259E-03    0.5557129377E+00
    0.2900000000E+06    0.6795495360E+00    0.5881084058E-02    0.1201688304E+00    0.1255055339E-03    0.5560441032E+00
    0.3100000000E+06    0.6795828726E+00    0.5697066284E-02    0.1201596381E+00    0.1211551288E-03    0.5563449929E+00
    0.3300000000E+06    0.6796121838E+00    0.5529695725E-02    0.1201494702E+00    0.1172121806E-03    0.5566201213E+00
    0.3500000000E+06    0.6796381593E+00    0.5376591964E-02    0.1201385731E+00    0.1136171953E-03    0.5568731035E+00
    0.3700000000E+06    0.6796613399E+00    0.5235826502E-02    0.1201271344E+00    0.1103221438E-03    0.5571068740E+00
    0.3900000000E+06    0.6796821552E+00    0.5105817966E-02    0.1201152987E+00    0.1072877727E-03    0.5573238443E+00
    0.4100000000E+06    0.6797009511E+00    0.4985255591E-02    0.1201031783E+00    0.1044816468E-03    0.5575260172E+00
    0.4300000000E+06    0.6797180088E+00    0.4873042368E-02    0.1200908610E+00    0.1018767003E-03    0.5577150725E+00
    0.4500000000E+06    0.6797335599E+00    0.4768252163E-02    0.1200784160E+00    0.9945014645E-04    0.5578924311E+00
    0.4700000000E+06    0.6797477963E+00    0.4670096899E-02    0.1200658980E+00    0.9718264666E-04    0.5580593047E+00
    0.4900000000E+06    0.6797608787E+00    0.4577901144E-02    0.1200533506E+00    0.9505766803E-04    0.5582167339E+00
    0.1000000000E+06    0.6785684990E+00    0.9739538275E-02    0.1200303476E+00    0.2199019756E-03    0.5499733304E+00
    0.3000000000E+06    0.6795667578E+00    0.5786824200E-02    0.1201643744E+00    0.1232751393E-03    0.5561980262E+00
    0.5000000000E+06    0.6797670303E+00    0.4533852820E-02    0.1200470770E+00    0.9404409903E-04    0.5582921928E+00
    0.7000000000E+06    0.6798534059E+00    0.3858789220E-02    0.1199254618E+00    0.7865365123E-04    0.5594713105E+00
    0.9000000000E+06    0.6799016897E+00    0.3420287155E-02    0.1198155906E+00    0.6881208631E-04    0.5602653328E+00
    0.1100000000E+07    0.6799325950E+00    0.3105855333E-02    0.1197176466E+00    0.6183906013E-04    0.5608525426E+00
    0.1300000000E+07    0.6799541083E+00    0.2866060371E-02    0.1196298876E+00    0.5657251900E-04    0.5613127124E+00
    0.1500000000E+07    0.6799699664E+00    0.2675301481E-02    0.1195505926E+00    0.5241695176E-04    0.5616878311E+00
    0.1700000000E+07    0.6799821527E+00    0.2518809795E-02    0.1194783448E+00    0.4903177532E-04    0.5620024833E+00
    0.1900000000E+07    0.6799918185E+00    0.2387385039E-02    0.1194120201E+00    0.4620638242E-04    0.5622721951E+00
    0.2100000000E+07    0.6799996783E+00    0.2274955723E-02    0.1193507285E+00    0.4380267899E-04    0.5625073441E+00
    0.2300000000E+07    0.6800061990E+00    0.2177330855E-02    0.1192937600E+00    0.4172588472E-04    0.5627151799E+00
    0.2500000000E+07    0.6800116991E+00    0.2091511214E-02    0.1192405419E+00    0.3990851857E-04    0.5629009495E+00
    0.2700000000E+07    0.6800164031E+00    0.2015285925E-02    0.1191906067E+00    0.3830106831E-04    0.5630685623E+00
    0.2900000000E+07    0.6800204739E+00    0.1946984384E-02    0.1191435685E+00    0.3686628045E-04    0.5632210027E+00
    0.3100000000E+07    0.6800240327E+00    0.1885317419E-02    0.1190991054E+00    0.3557552040E-04    0.5633605961E+00
    0.3300000000E+07    0.6800271716E+00    0.1829272061E-02    0.1190569460E+00    0.3440637079E-04    0.5634891868E+00
    0.3500000000E+07    0.6800299616E+00    0.1778039781E-02    0.1190168600E+00    0.3334099957E-04    0.5636082600E+00
    0.3700000000E+07    0.6800324585E+00    0.1730966275E-02    0.1189786498E+00    0.3236502238E-04    0.5637190280E+00
    0.3900000000E+07    0.6800347068E+00    0.1687515559E-02    0.1189421450E+00    0.3146669152E-04    0.5638224922E+00
    0.4100000000E+07    0.6800367425E+00    0.1647243787E-02    0.1189071974E+00    0.3063630646E-04    0.5639194885E+00
    0.4300000000E+07    0.6800385948E+00    0.1609779814E-02    0.1188736773E+00    0.2986577754E-04    0.5640107212E+00
    0.4500000000E+07    0.6800402876E+00    0.1574810562E-02    0.1188414709E+00    0.2914829820E-04    0.5640967890E+00
    0.4700000000E+07    0.6800418412E+00    0.1542069821E-02    0.1188104772E+00    0.2847809503E-04    0.5641782046E+00
    0.4900000000E+07    0.6800432723E+00    0.1511329596E-02    0.1187806069E+00    0.2785023486E-04    0.5642554101E+00
    0.1000000000E+07    0.6799186662E+00    0.3251459295E-02    0.1197652291E+00    0.6505889826E-04    0.5605785300E+00
    0.3000000000E+07    0.6800223110E+00    0.1915390395E-02    0.1191210331E+00    0.3620442169E-04    0.5632922804E+00
    0.5000000000E+07    0.6800439464E+00    0.1496647176E-02    0.1187660676E+00    0.2755083376E-04    0.5642925562E+00
    0.7000000000E+07    0.6800535079E+00    0.1271979883E-02    0.1185186982E+00    0.2301062146E-04    0.5648857190E+00
    0.9000000000E+07    0.6800589572E+00    0.1126390959E-02    0.1183281570E+00    0.2011338611E-04    0.5653002550E+00
    0.1100000000E+08    0.6800625032E+00    0.1022162839E-02    0.1181729313E+00    0.1806354311E-04    0.5656158338E+00
    0.1300000000E+08    0.6800650078E+00    0.9427690306E-03    0.1180418424E+00    0.1651699154E-04    0.5658690850E+00
    0.1500000000E+08    0.6800668786E+00    0.8796681982E-03    0.1179283203E+00    0.1529769438E-04    0.5660797217E+00
    0.1700000000E+08    0.6800683337E+00    0.8279405368E-03    0.1178281691E+00    0.1430510582E-04    0.5662595064E+00
    0.1900000000E+08    0.6800695009E+00    0.7845250091E-03    0.1177385429E+00    0.1347711692E-04    0.5664159910E+00
    0.2100000000E+08    0.6800704599E+00    0.7474035880E-03    0.1176574209E+00    0.1277303886E-04    0.5665542981E+00
    0.2300000000E+08    0.6800712634E+00    0.7151844575E-03    0.1175833159E+00    0.1216496573E-04    0.5666780536E+00
    0.2500000000E+08    0.6800719475E+00    0.6868723039E-03    0.1175151012E+00    0.1163304195E-04    0.5667899139E+00
    0.2700000000E+08    0.6800725377E+00    0.6617338927E-03    0.1174519022E+00    0.1116270720E-04    0.5668918800E+00
