  Pressure (Pa) 22mC5-400 (mol/kg) 2mC6-400 (mol/kg) 3mC6-400 (mol/kg) 33mC5-400 (mol/kg) C7-400 (mol/kg)
    0.1000000000E+01    0.3697489843E-02    0.3158649782E-02    0.2623357665E-02    0.6429695792E-04    0.5108425125E-02
    0.3000000000E+01    0.1090648304E-01    0.9153867131E-02    0.7637992658E-02    0.1863530441E-03    0.1487536607E-01
    0.5000000000E+01    0.1787961602E-01    0.1475105608E-01    0.1236613120E-01    0.3003294260E-03    0.2408684372E-01
    0.7000000000E+01    0.2463043245E-01    0.1998422044E-01    0.1683250750E-01    0.4069159745E-03    0.3279074342E-01
    0.9000000000E+01    0.3117142978E-01    0.2488366163E-01    0.2105906458E-01    0.5067273823E-03    0.4102955081E-01
    0.1100000000E+02    0.3751415842E-01    0.2947647038E-01    0.2506533819E-01    0.6003131579E-03    0.4884109422E-01
    0.1300000000E+02    0.4366930974E-01    0.3378694159E-01    0.2886877896E-01    0.6881660571E-03    0.5625916764E-01
    0.1500000000E+02    0.4964679459E-01    0.3783692610E-01    0.3248502420E-01    0.7707292305E-03    0.6331405629E-01
    0.1700000000E+02    0.5545581334E-01    0.4164613042E-01    0.3592812813E-01    0.8484023124E-03    0.7003298195E-01
    0.1900000000E+02    0.6110491850E-01    0.4523237311E-01    0.3921075794E-01    0.9215466294E-03    0.7644048213E-01
    0.2100000000E+02    0.6660207092E-01    0.4861180512E-01    0.4234436134E-01    0.9904896757E-03    0.8255873412E-01
    0.2300000000E+02    0.7195469023E-01    0.5179909985E-01    0.4533931038E-01    0.1055528972E-02    0.8840783327E-01
    0.2500000000E+02    0.7716970019E-01    0.5480761769E-01    0.4820502537E-01    0.1116935406E-02    0.9400603258E-01
    0.2700000000E+02    0.8225356961E-01    0.5764954896E-01    0.5095008199E-01    0.1174956136E-02    0.9936995008E-01
    0.2900000000E+02    0.8721234926E-01    0.6033603857E-01    0.5358230428E-01    0.1229817121E-02    0.1045147486E+00
    0.3100000000E+02    0.9205170526E-01    0.6287729503E-01    0.5610884556E-01    0.1281725332E-02    0.1094542924E+00
    0.3300000000E+02    0.9677694936E-01    0.6528268605E-01    0.5853625914E-01    0.1330870691E-02    0.1142012840E+00
    0.3500000000E+02    0.1013930663E+00    0.6756082267E-01    0.6087056015E-01    0.1377427783E-02    0.1187673837E+00
    0.3700000000E+02    0.1059047390E+00    0.6971963346E-01    0.6311728003E-01    0.1421557358E-02    0.1231633152E+00
    0.3900000000E+02    0.1103163707E+00    0.7176643020E-01    0.6528151436E-01    0.1463407660E-02    0.1273989582E+00
    0.4100000000E+02    0.1146321064E+00    0.7370796608E-01    0.6736796518E-01    0.1503115616E-02    0.1314834300E+00
    0.4300000000E+02    0.1188558510E+00    0.7555048742E-01    0.6938097851E-01    0.1540807876E-02    0.1354251584E+00
    0.4500000000E+02    0.1229912871E+00    0.7729977981E-01    0.7132457756E-01    0.1576601758E-02    0.1392319459E+00
    0.4700000000E+02    0.1270418904E+00    0.7896120927E-01    0.7320249232E-01    0.1610606072E-02    0.1429110270E+00
    0.4900000000E+02    0.1310109443E+00    0.8053975909E-01    0.7501818598E-01    0.1642921877E-02    0.1464691193E+00
    0.1000000000E+02    0.3436689031E-01    0.2721681550E-01    0.2308860069E-01    0.5542664362E-03    0.4498653042E-01
    0.3000000000E+02    0.8964661526E-01    0.6162421680E-01    0.5485836217E-01    0.1256128074E-02    0.1070093577E+00
    0.5000000000E+02    0.1329658670E+00    0.8129941497E-01    0.7590371504E-01    0.1658476214E-02    0.1482047639E+00
    0.7000000000E+02    0.1684540533E+00    0.9310925530E-01    0.9102073263E-01    0.1900549106E-02    0.1778716156E+00
    0.9000000000E+02    0.1984618498E+00    0.1003325158E+00    0.1024949000E+00    0.2048870565E-02    0.2004451695E+00
    0.1100000000E+03    0.2244326838E+00    0.1047149899E+00    0.1115584388E+00    0.2138907091E-02    0.2183188068E+00
    0.1300000000E+03    0.2473071672E+00    0.1072607932E+00    0.1189368141E+00    0.2191096561E-02    0.2329028314E+00
    0.1500000000E+03    0.2677284494E+00    0.1085816748E+00    0.1250863235E+00    0.2217921381E-02    0.2450850342E+00
    0.1700000000E+03    0.2861541557E+00    0.1090672777E+00    0.1303091454E+00    0.2227355944E-02    0.2554538343E+00
    0.1900000000E+03    0.3029210226E+00    0.1089746527E+00    0.1348138421E+00    0.2224679570E-02    0.2644156886E+00
    0.2100000000E+03    0.3182840408E+00    0.1084782278E+00    0.1387493278E+00    0.2213489086E-02    0.2722610445E+00
    0.2300000000E+03    0.3324411363E+00    0.1076990984E+00    0.1422249830E+00    0.2196292835E-02    0.2792034118E+00
    0.2500000000E+03    0.3455492776E+00    0.1067229052E+00    0.1453231019E+00    0.2174873648E-02    0.2854035561E+00
    0.2700000000E+03    0.3577353085E+00    0.1056111270E+00    0.1481068897E+00    0.2150518421E-02    0.2909850480E+00
    0.2900000000E+03    0.3691034273E+00    0.1044084246E+00    0.1506257658E+00    0.2124167676E-02    0.2960445816E+00
    0.3100000000E+03    0.3797404744E+00    0.1031475397E+00    0.1529189810E+00    0.2096515504E-02    0.3006590136E+00
    0.3300000000E+03    0.3897197487E+00    0.1018526341E+00    0.1550181434E+00    0.2068077866E-02    0.3048902831E+00
    0.3500000000E+03    0.3991038154E+00    0.1005416112E+00    0.1569490214E+00    0.2039240183E-02    0.3087889235E+00
    0.3700000000E+03    0.4079466084E+00    0.9922775681E-01    0.1587328547E+00    0.2010291070E-02    0.3123966189E+00
    0.3900000000E+03    0.4162950291E+00    0.9792091637E-01    0.1603873247E+00    0.1981446630E-02    0.3157480949E+00
    0.4100000000E+03    0.4241901801E+00    0.9662835110E-01    0.1619272827E+00    0.1952868170E-02    0.3188725404E+00
    0.4300000000E+03    0.4316683309E+00    0.9535536786E-01    0.1633653047E+00    0.1924675291E-02    0.3217946905E+00
    0.4500000000E+03    0.4387616822E+00    0.9410578742E-01    0.1647121195E+00    0.1896955658E-02    0.3245356621E+00
    0.4700000000E+03    0.4454989788E+00    0.9288229581E-01    0.1659769423E+00    0.1869772371E-02    0.3271136059E+00
    0.4900000000E+03    0.4519060060E+00    0.9168671020E-01    0.1671677379E+00    0.1843169556E-02    0.3295442208E+00
    0.1000000000E+03    0.2118843416E+00    0.1028040490E+00    0.1072744201E+00    0.2099652942E-02    0.2098653494E+00
    0.3000000000E+03    0.3745084732E+00    0.1037835750E+00    0.1517984504E+00    0.2110468485E-02    0.2984032612E+00
    0.5000000000E+03    0.4549930188E+00    0.9109976329E-01    0.1677375752E+00    0.1830095506E-02    0.3307086180E+00
    0.7000000000E+03    0.5039949866E+00    0.8089589019E-01    0.1765339848E+00    0.1601519681E-02    0.3488017606E+00
    0.9000000000E+03    0.5366680655E+00    0.7320184227E-01    0.1822949014E+00    0.1428045908E-02    0.3607997316E+00
    0.1100000000E+04    0.5597842817E+00    0.6729427614E-01    0.1864365443E+00    0.1294725998E-02    0.3695205841E+00
    0.1300000000E+04    0.5768740119E+00    0.6262927675E-01    0.1895949027E+00    0.1189734150E-02    0.3762374218E+00
    0.1500000000E+04    0.5899503268E+00    0.5884660523E-01    0.1921036155E+00    0.1105026919E-02    0.3816217177E+00
    0.1700000000E+04    0.6002368149E+00    0.5570841553E-01    0.1941567955E+00    0.1035201055E-02    0.3860660748E+00
    0.1900000000E+04    0.6085151979E+00    0.5305416426E-01    0.1958760819E+00    0.9765663968E-03    0.3898176472E+00
    0.2100000000E+04    0.6153056118E+00    0.5077248806E-01    0.1973420870E+00    0.9265429019E-03    0.3930409378E+00
    0.2300000000E+04    0.6209661059E+00    0.4878403008E-01    0.1986106263E+00    0.8832826543E-03    0.3958503122E+00
    0.2500000000E+04    0.6257503836E+00    0.4703081617E-01    0.1997217313E+00    0.8454316309E-03    0.3983281147E+00
    0.2700000000E+04    0.6298427457E+00    0.4546953125E-01    0.2007049573E+00    0.8119768122E-03    0.4005353665E+00
    0.2900000000E+04    0.6333800102E+00    0.4406715584E-01    0.2015826611E+00    0.7821458956E-03    0.4025183906E+00
    0.3100000000E+04    0.6364656975E+00    0.4279806340E-01    0.2023721063E+00    0.7553400316E-03    0.4043130805E+00
    0.3300000000E+04    0.6391794634E+00    0.4164204404E-01    0.2030868626E+00    0.7310877338E-03    0.4059477428E+00
    0.3500000000E+04    0.6415835263E+00    0.4058292946E-01    0.2037377618E+00    0.7090126581E-03    0.4074450455E+00
    0.3700000000E+04    0.6437271410E+00    0.3960761718E-01    0.2043335686E+00    0.6888106544E-03    0.4088233877E+00
    0.3900000000E+04    0.6456497742E+00    0.3870536543E-01    0.2048814605E+00    0.6702331412E-03    0.4100978822E+00
    0.4100000000E+04    0.6473833969E+00    0.3786727503E-01    0.2053873783E+00    0.6530748693E-03    0.4112810748E+00
    0.4300000000E+04    0.6489541672E+00    0.3708590298E-01    0.2058562871E+00    0.6371647857E-03    0.4123834803E+00
    0.4500000000E+04    0.6503836822E+00    0.3635497009E-01    0.2062923719E+00    0.6223591191E-03    0.4134139874E+00
    0.4700000000E+04    0.6516899218E+00    0.3566913702E-01    0.2066991889E+00    0.6085360839E-03    0.4143801684E+00
    0.4900000000E+04    0.6528879692E+00    0.3502383066E-01    0.2070797808E+00    0.5955917763E-03    0.4152885208E+00
    0.1000000000E+04    0.5491517609E+00    0.7006378886E-01    0.1845182077E+00    0.1357206657E-02    0.3654700154E+00
    0.3000000000E+04    0.6349738501E+00    0.4341732086E-01    0.2019874942E+00    0.7683968531E-03    0.4034373567E+00
    0.5000000000E+04    0.6534504820E+00    0.3471512133E-01    0.2072610759E+00    0.5894207597E-03    0.4157227951E+00
    0.7000000000E+04    0.6612752498E+00    0.2994527352E-01    0.2099898540E+00    0.4958845867E-03    0.4224040819E+00
    0.9000000000E+04    0.6655672789E+00    0.2679843818E-01    0.2117020098E+00    0.4360884412E-03    0.4267746530E+00
    0.1100000000E+05    0.6682710501E+00    0.2451254847E-01    0.2128924518E+00    0.3936221950E-03    0.4299276554E+00
    0.1300000000E+05    0.6701281470E+00    0.2275043754E-01    0.2137751639E+00    0.3614459505E-03    0.4323455260E+00
    0.1500000000E+05    0.6714815088E+00    0.2133599632E-01    0.2144593161E+00    0.3359710834E-03    0.4342788915E+00
    0.1700000000E+05    0.6725112068E+00    0.2016674326E-01    0.2150070160E+00    0.3151499152E-03    0.4358727024E+00
    0.1900000000E+05    0.6733207501E+00    0.1917830795E-01    0.2154564526E+00    0.2977169450E-03    0.4372174545E+00
    0.2100000000E+05    0.6739738214E+00    0.1832788413E-01    0.2158325207E+00    0.2828420267E-03    0.4383729877E+00
    0.2300000000E+05    0.6745117309E+00    0.1758571527E-01    0.2161522055E+00    0.2699548009E-03    0.4393806846E+00
    0.2500000000E+05    0.6749624388E+00    0.1693036912E-01    0.2164275291E+00    0.2586486212E-03    0.4402702125E+00
    0.2700000000E+05    0.6753455404E+00    0.1634595354E-01    0.2166672602E+00    0.2486246463E-03    0.4410634777E+00
    0.2900000000E+05    0.6756751739E+00    0.1582039492E-01    0.2168779580E+00    0.2396576414E-03    0.4417770607E+00
    0.3100000000E+05    0.6759617954E+00    0.1534432989E-01    0.2170646351E+00    0.2315741780E-03    0.4424237768E+00
    0.3300000000E+05    0.6762133034E+00    0.1491036739E-01    0.2172311931E+00    0.2242382436E-03    0.4430137112E+00
    0.3500000000E+05    0.6764357751E+00    0.1451258299E-01    0.2173807182E+00    0.2175414567E-03    0.4435549265E+00
    0.3700000000E+05    0.6766339627E+00    0.1414616344E-01    0.2175156860E+00    0.2113962404E-03    0.4440539568E+00
    0.3900000000E+05    0.6768116356E+00    0.1380715144E-01    0.2176381070E+00    0.2057309509E-03    0.4445161630E+00
    0.4100000000E+05    0.6769718218E+00    0.1349225875E-01    0.2177496323E+00    0.2004863322E-03    0.4449459908E+00
    0.4300000000E+05    0.6771169814E+00    0.1319872697E-01    0.2178516315E+00    0.1956128907E-03    0.4453471629E+00
    0.4500000000E+05    0.6772491341E+00    0.1292422223E-01    0.2179452506E+00    0.1910689190E-03    0.4457228243E+00
    0.4700000000E+05    0.6773699532E+00    0.1266675450E-01    0.2180314569E+00    0.1868189879E-03    0.4460756529E+00
    0.4900000000E+05    0.6774808368E+00    0.1242461485E-01    0.2181110721E+00    0.1828327813E-03    0.4464079455E+00
    0.1000000000E+05    0.6670572970E+00    0.2557439372E-01    0.2123455052E+00    0.4132468279E-03    0.4284653557E+00
    0.3000000000E+05    0.6758233177E+00    0.1557667705E-01    0.2169740332E+00    0.2355147125E-03    0.4421080923E+00
    0.5000000000E+05    0.6775329282E+00    0.1230882354E-01    0.2181486320E+00    0.1809302705E-03    0.4465670211E+00
    0.7000000000E+05    0.6782606336E+00    0.1052572645E-01    0.2186810774E+00    0.1519436797E-03    0.4490349296E+00
    0.9000000000E+05    0.6786637228E+00    0.9358769017E-02    0.2189753683E+00    0.1333047442E-03    0.4506761765E+00
    0.1100000000E+06    0.6789198624E+00    0.8517701963E-02    0.2191549198E+00    0.1200458143E-03    0.4518779642E+00
    0.1300000000E+06    0.6790970637E+00    0.7873846462E-02    0.2192706310E+00    0.1100011363E-03    0.4528120195E+00
    0.1500000000E+06    0.6792269726E+00    0.7360138804E-02    0.2193474015E+00    0.1020560660E-03    0.4535680777E+00
    0.1700000000E+06    0.6793263101E+00    0.6937702695E-02    0.2193988547E+00    0.9557092188E-04    0.4541983538E+00
    0.1900000000E+06    0.6794047436E+00    0.6582226195E-02    0.2194330604E+00    0.9014901603E-04    0.4547356452E+00
    0.2100000000E+06    0.6794682517E+00    0.6277613951E-02    0.2194550921E+00    0.8552961588E-04    0.4552017676E+00
    0.2300000000E+06    0.6795207307E+00    0.6012725810E-02    0.2194682904E+00    0.8153339771E-04    0.4556118946E+00
    0.2500000000E+06    0.6795648286E+00    0.5779571020E-02    0.2194749375E+00    0.7803245659E-04    0.4559769644E+00
    0.2700000000E+06    0.6796024083E+00    0.5572247316E-02    0.2194766404E+00    0.7493279579E-04    0.4563050970E+00
    0.2900000000E+06    0.6796348181E+00    0.5386286823E-02    0.2194745594E+00    0.7216359021E-04    0.4566024698E+00
    0.3100000000E+06    0.6796630585E+00    0.5218236297E-02    0.2194695504E+00    0.6967033056E-04    0.4568738809E+00
    0.3300000000E+06    0.6796878871E+00    0.5065378490E-02    0.2194622557E+00    0.6741029299E-04    0.4571231244E+00
    0.3500000000E+06    0.6797098883E+00    0.4925541741E-02    0.2194531652E+00    0.6534945629E-04    0.4573532473E+00
    0.3700000000E+06    0.6797295203E+00    0.4796966568E-02    0.2194426577E+00    0.6346035008E-04    0.4575667301E+00
    0.3900000000E+06    0.6797471472E+00    0.4678210109E-02    0.2194310290E+00    0.6172051915E-04    0.4577656163E+00
    0.4100000000E+06    0.6797630620E+00    0.4568076344E-02    0.2194185132E+00    0.6011140579E-04    0.4579516078E+00
    0.4300000000E+06    0.6797775034E+00    0.4465564250E-02    0.2194052964E+00    0.5861752198E-04    0.4581261355E+00
    0.4500000000E+06    0.6797906674E+00    0.4369828686E-02    0.2193915285E+00    0.5722582676E-04    0.4582904127E+00
    0.4700000000E+06    0.6798027169E+00    0.4280150468E-02    0.2193773305E+00    0.5592525109E-04    0.4584454766E+00
    0.4900000000E+06    0.6798137881E+00    0.4195913181E-02    0.2193628010E+00    0.5470633087E-04    0.4585922199E+00
    0.1000000000E+06    0.6788046304E+00    0.8907623180E-02    0.2190754095E+00    0.1261738207E-03    0.4513184993E+00
    0.3000000000E+06    0.6796494074E+00    0.5300207323E-02    0.2194723766E+00    0.7088537195E-04    0.4567411633E+00
    0.5000000000E+06    0.6798189934E+00    0.4155665807E-02    0.2193554376E+00    0.5412490092E-04    0.4586627170E+00
    0.7000000000E+06    0.6798920300E+00    0.3538732903E-02    0.2192041086E+00    0.4529363744E-04    0.4597789346E+00
    0.9000000000E+06    0.6799327928E+00    0.3137850848E-02    0.2190591813E+00    0.3964364261E-04    0.4605480515E+00
    0.1100000000E+07    0.6799588437E+00    0.2850312920E-02    0.2189263314E+00    0.3563898669E-04    0.4611273198E+00
    0.1300000000E+07    0.6799769509E+00    0.2630974933E-02    0.2188052925E+00    0.3261347265E-04    0.4615882034E+00
    0.1500000000E+07    0.6799902794E+00    0.2456452853E-02    0.2186946882E+00    0.3022558546E-04    0.4619688084E+00
    0.1700000000E+07    0.6800005080E+00    0.2313254346E-02    0.2185930844E+00    0.2827995529E-04    0.4622916976E+00
    0.1900000000E+07    0.6800086106E+00    0.2192973085E-02    0.2184992228E+00    0.2665574404E-04    0.4625712619E+00
    0.2100000000E+07    0.6800151910E+00    0.2090060754E-02    0.2184120499E+00    0.2527370364E-04    0.4628172060E+00
    0.2300000000E+07    0.6800206439E+00    0.2000687016E-02    0.2183306940E+00    0.2407943326E-04    0.4630363644E+00
    0.2500000000E+07    0.6800252380E+00    0.1922110422E-02    0.2182544336E+00    0.2303419507E-04    0.4632337204E+00
    0.2700000000E+07    0.6800291629E+00    0.1852309897E-02    0.2181826687E+00    0.2210956234E-04    0.4634130125E+00
    0.2900000000E+07    0.6800325558E+00    0.1789758096E-02    0.2181148967E+00    0.2128414382E-04    0.4635771127E+00
    0.3100000000E+07    0.6800355189E+00    0.1733276283E-02    0.2180506934E+00    0.2054149534E-04    0.4637282720E+00
    0.3300000000E+07    0.6800381298E+00    0.1681938185E-02    0.2179896978E+00    0.1986874171E-04    0.4638682860E+00
    0.3500000000E+07    0.6800404481E+00    0.1635004402E-02    0.2179316008E+00    0.1925564022E-04    0.4639986080E+00
    0.3700000000E+07    0.6800425210E+00    0.1591876525E-02    0.2178761356E+00    0.1869392768E-04    0.4641204305E+00
    0.3900000000E+07    0.6800443858E+00    0.1552064322E-02    0.2178230705E+00    0.1817685496E-04    0.4642347428E+00
    0.4100000000E+07    0.6800460727E+00    0.1515161798E-02    0.2177722033E+00    0.1769884852E-04    0.4643423745E+00
    0.4300000000E+07    0.6800476063E+00    0.1480829442E-02    0.2177233560E+00    0.1725526000E-04    0.4644440277E+00
    0.4500000000E+07    0.6800490067E+00    0.1448780835E-02    0.2176763717E+00    0.1684217798E-04    0.4645403017E+00
    0.4700000000E+07    0.6800502908E+00    0.1418772421E-02    0.2176311111E+00    0.1645628453E-04    0.4646317114E+00
    0.4900000000E+07    0.6800514726E+00    0.1390595593E-02    0.2175874499E+00    0.1609474434E-04    0.4647187029E+00
    0.1000000000E+07    0.6799471076E+00    0.2983472381E-02    0.2189912133E+00    0.3748832328E-04    0.4608558308E+00
    0.3000000000E+07    0.6800340858E+00    0.1760821365E-02    0.2180823729E+00    0.2090334901E-04    0.4636541886E+00
    0.5000000000E+07    0.6800520290E+00    0.1377136835E-02    0.2175661838E+00    0.1592233100E-04    0.4647606652E+00
    0.7000000000E+07    0.6800598925E+00    0.1171133711E-02    0.2172030865E+00    0.1330699055E-04    0.4654405403E+00
    0.9000000000E+07    0.6800643433E+00    0.1037572070E-02    0.2169219810E+00    0.1163717432E-04    0.4659270958E+00
    0.1100000000E+08    0.6800672223E+00    0.9419165139E-03    0.2166922118E+00    0.1045525782E-04    0.4663040973E+00
    0.1300000000E+08    0.6800692452E+00    0.8690289167E-03    0.2164977005E+00    0.9563227692E-05    0.4666108797E+00
    0.1500000000E+08    0.6800707489E+00    0.8110830057E-03    0.2163289405E+00    0.8859748518E-05    0.4668689664E+00
    0.1700000000E+08    0.6800719133E+00    0.7635696417E-03    0.2161798338E+00    0.8286924663E-05    0.4670913771E+00
    0.1900000000E+08    0.6800728435E+00    0.7236826446E-03    0.2160462305E+00    0.7808984092E-05    0.4672865687E+00
    0.2100000000E+08    0.6800736049E+00    0.6895716236E-03    0.2159251765E+00    0.7402486684E-05    0.4674603353E+00
    0.2300000000E+08    0.6800742406E+00    0.6599601435E-03    0.2158144925E+00    0.7051353182E-05    0.4676168154E+00
    0.2500000000E+08    0.6800747800E+00    0.6339352482E-03    0.2157125247E+00    0.6744140861E-05    0.4677590644E+00
    0.2700000000E+08    0.6800752439E+00    0.6108242708E-03    0.2156179871E+00    0.6472457270E-05    0.4678894006E+00
