  Pressure (Pa) 22mC5-400 (mol/kg) 2mC6-400 (mol/kg) 3mC6-400 (mol/kg) 33mC5-400 (mol/kg) C7-400 (mol/kg)
    0.1000000000E+01    0.3691841022E-02    0.4739901174E-02    0.2101537666E-02    0.6432085326E-04    0.3410214328E-02
    0.3000000000E+01    0.1085805968E-01    0.1374730875E-01    0.6134734435E-02    0.1865573117E-03    0.9956157476E-02
    0.5000000000E+01    0.1775136135E-01    0.2217035386E-01    0.9957136573E-02    0.3008698237E-03    0.1616147049E-01
    0.7000000000E+01    0.2439049643E-01    0.3005840592E-01    0.1358579242E-01    0.4079272296E-03    0.2205366533E-01
    0.9000000000E+01    0.3079248437E-01    0.3745556892E-01    0.1703593668E-01    0.5083270352E-03    0.2765732927E-01
    0.1100000000E+02    0.3697280963E-01    0.4440135812E-01    0.2032122637E-01    0.6026045811E-03    0.3299450516E-01
    0.1300000000E+02    0.4294559149E-01    0.5093127544E-01    0.2345394077E-01    0.6912408401E-03    0.3808501381E-01
    0.1500000000E+02    0.4872373188E-01    0.5707730082E-01    0.2644515169E-01    0.7746690746E-03    0.4294672841E-01
    0.1700000000E+02    0.5431904445E-01    0.6286831348E-01    0.2930486902E-01    0.8532805448E-03    0.4759580925E-01
    0.1900000000E+02    0.5974236750E-01    0.6833045448E-01    0.3204216574E-01    0.9274294204E-03    0.5204690516E-01
    0.2100000000E+02    0.6500366316E-01    0.7348743983E-01    0.3466528555E-01    0.9974370228E-03    0.5631332719E-01
    0.2300000000E+02    0.7011210475E-01    0.7836083184E-01    0.3718173605E-01    0.1063595501E-02    0.6040719875E-01
    0.2500000000E+02    0.7507615380E-01    0.8297027508E-01    0.3959836954E-01    0.1126171030E-02    0.6433958596E-01
    0.2700000000E+02    0.7990362832E-01    0.8733370217E-01    0.4192145345E-01    0.1185406594E-02    0.6812061117E-01
    0.2900000000E+02    0.8460176324E-01    0.9146751379E-01    0.4415673178E-01    0.1241524430E-02    0.7175955211E-01
    0.3100000000E+02    0.8917726426E-01    0.9538673662E-01    0.4630947898E-01    0.1294728165E-02    0.7526492874E-01
    0.3300000000E+02    0.9363635577E-01    0.9910516223E-01    0.4838454727E-01    0.1345204694E-02    0.7864457961E-01
    0.3500000000E+02    0.9798482368E-01    0.1026354696E+00    0.5038640837E-01    0.1393125847E-02    0.8190572913E-01
    0.3700000000E+02    0.1022280537E+00    0.1059893335E+00    0.5231919032E-01    0.1438649851E-02    0.8505504699E-01
    0.3900000000E+02    0.1063710658E+00    0.1091775204E+00    0.5418671011E-01    0.1481922628E-02    0.8809870077E-01
    0.4100000000E+02    0.1104185450E+00    0.1122099737E+00    0.5599250265E-01    0.1523078958E-02    0.9104240273E-01
    0.4300000000E+02    0.1143748691E+00    0.1150958901E+00    0.5773984656E-01    0.1562243500E-02    0.9389145135E-01
    0.4500000000E+02    0.1182441338E+00    0.1178437865E+00    0.5943178717E-01    0.1599531713E-02    0.9665076845E-01
    0.4700000000E+02    0.1220301756E+00    0.1204615615E+00    0.6107115703E-01    0.1635050675E-02    0.9932493239E-01
    0.4900000000E+02    0.1257365918E+00    0.1229565489E+00    0.6266059439E-01    0.1668899817E-02    0.1019182077E+00
    0.1000000000E+02    0.3390944222E-01    0.4098257844E-01    0.1869839073E-01    0.5561998386E-03    0.3035794077E-01
    0.3000000000E+02    0.8690444320E-01    0.9345305940E-01    0.4524310912E-01    0.1268478507E-02    0.7352843091E-01
    0.5000000000E+02    0.1275610038E+00    0.1241601469E+00    0.6343736380E-01    0.1685227351E-02    0.1031857656E+00
    0.7000000000E+02    0.1605884988E+00    0.1432093997E+00    0.7686870970E-01    0.1943418676E-02    0.1251268342E+00
    0.9000000000E+02    0.1884738937E+00    0.1554214200E+00    0.8730362058E-01    0.2108439114E-02    0.1422081731E+00
    0.1100000000E+03    0.2126647872E+00    0.1633594142E+00    0.9571765297E-01    0.2215091822E-02    0.1560085081E+00
    0.1300000000E+03    0.2340678702E+00    0.1684978310E+00    0.1026960758E+00    0.2283423260E-02    0.1674756488E+00
    0.1500000000E+03    0.2532846652E+00    0.1717369299E+00    0.1086127410E+00    0.2325692873E-02    0.1772154505E+00
    0.1700000000E+03    0.2707332624E+00    0.1736526230E+00    0.1137185046E+00    0.2349757952E-02    0.1856347225E+00
    0.1900000000E+03    0.2867156979E+00    0.1746273394E+00    0.1181885077E+00    0.2360847214E-02    0.1930176793E+00
    0.2100000000E+03    0.3014573995E+00    0.1749228595E+00    0.1221490931E+00    0.2362548375E-02    0.1995694819E+00
    0.2300000000E+03    0.3151313800E+00    0.1747229189E+00    0.1256939328E+00    0.2357386152E-02    0.2054423382E+00
    0.2500000000E+03    0.3278736674E+00    0.1741591861E+00    0.1288941128E+00    0.2347174968E-02    0.2107518297E+00
    0.2700000000E+03    0.3397934821E+00    0.1733276716E+00    0.1318046704E+00    0.2333241898E-02    0.2155875007E+00
    0.2900000000E+03    0.3509801471E+00    0.1722994084E+00    0.1344689664E+00    0.2316571963E-02    0.2200199416E+00
    0.3100000000E+03    0.3615079006E+00    0.1711275910E+00    0.1369216882E+00    0.2297905330E-02    0.2241056574E+00
    0.3300000000E+03    0.3714393258E+00    0.1698524557E+00    0.1391909616E+00    0.2277803864E-02    0.2278904923E+00
    0.3500000000E+03    0.3808278434E+00    0.1685046864E+00    0.1412998683E+00    0.2256697629E-02    0.2314120911E+00
    0.3700000000E+03    0.3897195582E+00    0.1671078331E+00    0.1432675552E+00    0.2234917977E-02    0.2347016994E+00
    0.3900000000E+03    0.3981546490E+00    0.1656800575E+00    0.1451100598E+00    0.2212721462E-02    0.2377855044E+00
    0.4100000000E+03    0.4061684319E+00    0.1642354110E+00    0.1468409340E+00    0.2190307396E-02    0.2406856466E+00
    0.4300000000E+03    0.4137921843E+00    0.1627847815E+00    0.1484717206E+00    0.2167830876E-02    0.2434209950E+00
    0.4500000000E+03    0.4210537930E+00    0.1613366043E+00    0.1500123231E+00    0.2145412596E-02    0.2460077480E+00
    0.4700000000E+03    0.4279782695E+00    0.1598974002E+00    0.1514712955E+00    0.2123146284E-02    0.2484599043E+00
    0.4900000000E+03    0.4345881648E+00    0.1584721873E+00    0.1528560716E+00    0.2101104424E-02    0.2507896359E+00
    0.1000000000E+03    0.2009653462E+00    0.1598148718E+00    0.9172024322E-01    0.2167569292E-02    0.1494488397E+00
    0.3000000000E+03    0.3563222361E+00    0.1717286712E+00    0.1357198826E+00    0.2307449562E-02    0.2221030577E+00
    0.5000000000E+03    0.4377816032E+00    0.1577660644E+00    0.1535226987E+00    0.2090185611E-02    0.2519119714E+00
    0.7000000000E+03    0.4892284845E+00    0.1449091172E+00    0.1641786816E+00    0.1891372684E-02    0.2699300178E+00
    0.9000000000E+03    0.5242956396E+00    0.1345840899E+00    0.1715994836E+00    0.1731753935E-02    0.2825754481E+00
    0.1100000000E+04    0.5494333968E+00    0.1263138045E+00    0.1772035961E+00    0.1604282207E-02    0.2921875903E+00
    0.1300000000E+04    0.5681603584E+00    0.1195681724E+00    0.1816556294E+00    0.1500885067E-02    0.2998672039E+00
    0.1500000000E+04    0.5825500219E+00    0.1139517166E+00    0.1853174079E+00    0.1415417362E-02    0.3062158025E+00
    0.1700000000E+04    0.5938927066E+00    0.1091861856E+00    0.1884065037E+00    0.1343492748E-02    0.3115962941E+00
    0.1900000000E+04    0.6030267593E+00    0.1050757621E+00    0.1910633623E+00    0.1281993005E-02    0.3162436479E+00
    0.2100000000E+04    0.6105167760E+00    0.1014803970E+00    0.1933835996E+00    0.1228672784E-02    0.3203182746E+00
    0.2300000000E+04    0.6167548051E+00    0.9829786187E-01    0.1954350667E+00    0.1181886223E-02    0.3239342980E+00
    0.2500000000E+04    0.6220203786E+00    0.9545197194E-01    0.1972675394E+00    0.1140404147E-02    0.3271756399E+00
    0.2700000000E+04    0.6265174626E+00    0.9288482538E-01    0.1989185420E+00    0.1103291874E-02    0.3301057089E+00
    0.2900000000E+04    0.6303979427E+00    0.9055161279E-01    0.2004170137E+00    0.1069826615E-02    0.3327735108E+00
    0.3100000000E+04    0.6337769792E+00    0.8841708213E-01    0.2017857078E+00    0.1039440743E-02    0.3352176541E+00
    0.3300000000E+04    0.6367433015E+00    0.8645308508E-01    0.2030428128E+00    0.1011682161E-02    0.3374690612E+00
    0.3500000000E+04    0.6393662662E+00    0.8463684206E-01    0.2042030791E+00    0.9861861473E-03    0.3395528553E+00
    0.3700000000E+04    0.6417007947E+00    0.8294969363E-01    0.2052786207E+00    0.9626550206E-03    0.3414897062E+00
    0.3900000000E+04    0.6437908910E+00    0.8137618691E-01    0.2062794981E+00    0.9408432265E-03    0.3432968089E+00
    0.4100000000E+04    0.6456721904E+00    0.7990339691E-01    0.2072141500E+00    0.9205462408E-03    0.3449886102E+00
    0.4300000000E+04    0.6473738330E+00    0.7852041503E-01    0.2080897179E+00    0.9015922014E-03    0.3465773555E+00
    0.4500000000E+04    0.6489198607E+00    0.7721795854E-01    0.2089122943E+00    0.8838355183E-03    0.3480735076E+00
    0.4700000000E+04    0.6503302727E+00    0.7598806873E-01    0.2096871148E+00    0.8671519374E-03    0.3494860712E+00
    0.4900000000E+04    0.6516218306E+00    0.7482387497E-01    0.2104187088E+00    0.8514346856E-03    0.3508228472E+00
    0.1000000000E+04    0.5378405233E+00    0.1302281502E+00    0.1745770195E+00    0.1664544106E-02    0.2876753017E+00
    0.3000000000E+04    0.6321440715E+00    0.8946141482E-01    0.2011163543E+00    0.1054279344E-02    0.3340214523E+00
    0.5000000000E+04    0.6522275483E+00    0.7426451789E-01    0.2107695478E+00    0.8439090850E-03    0.3514649740E+00
    0.7000000000E+04    0.6606000653E+00    0.6541694386E-01    0.2162514034E+00    0.7271148641E-03    0.3615986932E+00
    0.9000000000E+04    0.6651419286E+00    0.5936078203E-01    0.2199152896E+00    0.6495655596E-03    0.3684967773E+00
    0.1100000000E+05    0.6679803001E+00    0.5484790894E-01    0.2225890495E+00    0.5930089508E-03    0.3736105011E+00
    0.1300000000E+05    0.6699181542E+00    0.5130238245E-01    0.2246517511E+00    0.5492951464E-03    0.3776111347E+00
    0.1500000000E+05    0.6713237567E+00    0.4841378406E-01    0.2263054850E+00    0.5141410340E-03    0.3808596644E+00
    0.1700000000E+05    0.6723891802E+00    0.4599697891E-01    0.2276693988E+00    0.4850426295E-03    0.3835705661E+00
    0.1900000000E+05    0.6732242215E+00    0.4393334075E-01    0.2288189857E+00    0.4604213391E-03    0.3858806907E+00
    0.2100000000E+05    0.6738961180E+00    0.4214266569E-01    0.2298047487E+00    0.4392242202E-03    0.3878821822E+00
    0.2300000000E+05    0.6744483134E+00    0.4056841153E-01    0.2306619398E+00    0.4207174688E-03    0.3896397485E+00
    0.2500000000E+05    0.6749101118E+00    0.3916935712E-01    0.2314160222E+00    0.4043714184E-03    0.3912003954E+00
    0.2700000000E+05    0.6753019893E+00    0.3791461154E-01    0.2320859137E+00    0.3897925922E-03    0.3925992339E+00
    0.2900000000E+05    0.6756386813E+00    0.3678048575E-01    0.2326860050E+00    0.3766815774E-03    0.3938631098E+00
    0.3100000000E+05    0.6759310603E+00    0.3574845442E-01    0.2332274653E+00    0.3648058484E-03    0.3950129608E+00
    0.3300000000E+05    0.6761873222E+00    0.3480378442E-01    0.2337191142E+00    0.3539816359E-03    0.3960653980E+00
    0.3500000000E+05    0.6764137616E+00    0.3393458557E-01    0.2341680219E+00    0.3440614779E-03    0.3970337979E+00
    0.3700000000E+05    0.6766152923E+00    0.3313113787E-01    0.2345799316E+00    0.3349254578E-03    0.3979290736E+00
    0.3900000000E+05    0.6767958057E+00    0.3238540441E-01    0.2349595637E+00    0.3264749018E-03    0.3987602321E+00
    0.4100000000E+05    0.6769584238E+00    0.3169067210E-01    0.2353108382E+00    0.3186277584E-03    0.3995347845E+00
    0.4300000000E+05    0.6771056796E+00    0.3104128229E-01    0.2356370418E+00    0.3113151524E-03    0.4002590527E+00
    0.4500000000E+05    0.6772396504E+00    0.3043242575E-01    0.2359409530E+00    0.3044787757E-03    0.4009384019E+00
    0.4700000000E+05    0.6773620552E+00    0.2985998456E-01    0.2362249394E+00    0.2980688841E-03    0.4015774207E+00
    0.4900000000E+05    0.6774743288E+00    0.2932040868E-01    0.2364910319E+00    0.2920427413E-03    0.4021800603E+00
    0.1000000000E+05    0.6667084987E+00    0.5695629676E-01    0.2213463230E+00    0.6193029356E-03    0.3712243790E+00
    0.3000000000E+05    0.6757898456E+00    0.3625270522E-01    0.2329634659E+00    0.3706017627E-03    0.3944511635E+00
    0.5000000000E+05    0.6775270513E+00    0.2906196672E-01    0.2366179256E+00    0.2891618302E-03    0.4024688259E+00
    0.7000000000E+05    0.6782620485E+00    0.2504799906E-01    0.2385387169E+00    0.2448818371E-03    0.4069675700E+00
    0.9000000000E+05    0.6786678619E+00    0.2238609878E-01    0.2397537906E+00    0.2160205270E-03    0.4099726270E+00
    0.1100000000E+06    0.6789251895E+00    0.2045029977E-01    0.2406024254E+00    0.1953014405E-03    0.4121747845E+00
    0.1300000000E+06    0.6791029406E+00    0.1895856489E-01    0.2412331436E+00    0.1794993889E-03    0.4138847398E+00
    0.1500000000E+06    0.6792330980E+00    0.1776221801E-01    0.2417224061E+00    0.1669351018E-03    0.4152662826E+00
    0.1700000000E+06    0.6793325296E+00    0.1677432264E-01    0.2421140167E+00    0.1566363707E-03    0.4164152810E+00
    0.1900000000E+06    0.6794109735E+00    0.1594013535E-01    0.2424350602E+00    0.1479960851E-03    0.4173921952E+00
    0.2100000000E+06    0.6794744455E+00    0.1522320801E-01    0.2427032725E+00    0.1406129238E-03    0.4182373549E+00
    0.2300000000E+06    0.6795268623E+00    0.1459819287E-01    0.2429308005E+00    0.1342095436E-03    0.4189788656E+00
    0.2500000000E+06    0.6795708836E+00    0.1404683350E-01    0.2431262684E+00    0.1285873123E-03    0.4196370147E+00
    0.2700000000E+06    0.6796083790E+00    0.1355559683E-01    0.2432959834E+00    0.1235997340E-03    0.4202268753E+00
    0.2900000000E+06    0.6796407014E+00    0.1311420639E-01    0.2434446739E+00    0.1191360787E-03    0.4207599202E+00
    0.3100000000E+06    0.6796688536E+00    0.1271469712E-01    0.2435759601E+00    0.1151108866E-03    0.4212450626E+00
    0.3300000000E+06    0.6796935947E+00    0.1235078579E-01    0.2436926647E+00    0.1114570071E-03    0.4216893505E+00
    0.3500000000E+06    0.6797155104E+00    0.1201743932E-01    0.2437970232E+00    0.1081208464E-03    0.4220984429E+00
    0.3700000000E+06    0.6797350591E+00    0.1171057139E-01    0.2438908309E+00    0.1050590408E-03    0.4224769452E+00
    0.3900000000E+06    0.6797526054E+00    0.1142682469E-01    0.2439755473E+00    0.1022360764E-03    0.4228286501E+00
    0.4100000000E+06    0.6797684424E+00    0.1116341135E-01    0.2440523719E+00    0.9962255248E-04    0.4231567143E+00
    0.4300000000E+06    0.6797828088E+00    0.1091799428E-01    0.2441223003E+00    0.9719389202E-04    0.4234637901E+00
    0.4500000000E+06    0.6797959007E+00    0.1068859735E-01    0.2441861662E+00    0.9492937029E-04    0.4237521254E+00
    0.4700000000E+06    0.6798078808E+00    0.1047353659E-01    0.2442446731E+00    0.9281137199E-04    0.4240236401E+00
    0.4900000000E+06    0.6798188853E+00    0.1027136677E-01    0.2442984194E+00    0.9082481629E-04    0.4242799855E+00
    0.1000000000E+06    0.6788094783E+00    0.2134954771E-01    0.2402121876E+00    0.2048970053E-03    0.4111497069E+00
    0.3000000000E+06    0.6796552466E+00    0.1290964291E-01    0.2435123003E+00    0.1170732366E-03    0.4210080014E+00
    0.5000000000E+06    0.6798240583E+00    0.1017471911E-01    0.2443236702E+00    0.8987669689E-04    0.4244029241E+00
    0.7000000000E+06    0.6798965606E+00    0.8688882445E-02    0.2446714016E+00    0.7543381207E-04    0.4263293681E+00
    0.9000000000E+06    0.6799369425E+00    0.7718963404E-02    0.2448493624E+00    0.6615167993E-04    0.4276319390E+00
    0.1100000000E+07    0.6799627062E+00    0.7021111798E-02    0.2449470094E+00    0.5955235403E-04    0.4285976524E+00
    0.1300000000E+07    0.6799805872E+00    0.6487556888E-02    0.2450009502E+00    0.5455524332E-04    0.4293557048E+00
    0.1500000000E+07    0.6799937315E+00    0.6062258755E-02    0.2450289102E+00    0.5060429356E-04    0.4299743782E+00
    0.1700000000E+07    0.6800038064E+00    0.5712787700E-02    0.2450404709E+00    0.4738048525E-04    0.4304937722E+00
    0.1900000000E+07    0.6800117781E+00    0.5418891129E-02    0.2450412310E+00    0.4468604830E-04    0.4309392698E+00
    0.2100000000E+07    0.6800182452E+00    0.5167176164E-02    0.2450346578E+00    0.4239103588E-04    0.4313278683E+00
    0.2300000000E+07    0.6800235988E+00    0.4948381816E-02    0.2450229964E+00    0.4040610230E-04    0.4316714595E+00
    0.2500000000E+07    0.6800281050E+00    0.4755870538E-02    0.2450077534E+00    0.3866753911E-04    0.4319786607E+00
    0.2700000000E+07    0.6800319511E+00    0.4584742960E-02    0.2449899690E+00    0.3712853989E-04    0.4322558996E+00
    0.2900000000E+07    0.6800352730E+00    0.4431292599E-02    0.2449703783E+00    0.3575384552E-04    0.4325080869E+00
    0.3100000000E+07    0.6800381717E+00    0.4292656210E-02    0.2449495106E+00    0.3451632571E-04    0.4327390523E+00
    0.3300000000E+07    0.6800407236E+00    0.4166581855E-02    0.2449277536E+00    0.3339472058E-04    0.4329518349E+00
    0.3500000000E+07    0.6800429879E+00    0.4051270515E-02    0.2449053946E+00    0.3237210415E-04    0.4331488839E+00
    0.3700000000E+07    0.6800450110E+00    0.3945265176E-02    0.2448826489E+00    0.3143481208E-04    0.4333321993E+00
    0.3900000000E+07    0.6800468295E+00    0.3847371428E-02    0.2448596793E+00    0.3057167662E-04    0.4335034337E+00
    0.4100000000E+07    0.6800484734E+00    0.3756599510E-02    0.2448366094E+00    0.2977346987E-04    0.4336639674E+00
    0.4300000000E+07    0.6800499668E+00    0.3672121270E-02    0.2448135338E+00    0.2903249152E-04    0.4338149637E+00
    0.4500000000E+07    0.6800513296E+00    0.3593237700E-02    0.2447905248E+00    0.2834225876E-04    0.4339574119E+00
    0.4700000000E+07    0.6800525784E+00    0.3519354121E-02    0.2447676379E+00    0.2769726985E-04    0.4340921592E+00
    0.4900000000E+07    0.6800537271E+00    0.3449960945E-02    0.2447449154E+00    0.2709282129E-04    0.4342199369E+00
    0.1000000000E+07    0.6799511045E+00    0.7344514111E-02    0.2449052855E+00    0.6260200854E-04    0.4281467787E+00
    0.3000000000E+07    0.6800367700E+00    0.4360275594E-02    0.2449600771E+00    0.3511938436E-04    0.4326260165E+00
    0.5000000000E+07    0.6800542675E+00    0.3416808506E-02    0.2447336263E+00    0.2680451229E-04    0.4342814138E+00
    0.7000000000E+07    0.6800618852E+00    0.2908836886E-02    0.2445209661E+00    0.2242664574E-04    0.4352629334E+00
    0.9000000000E+07    0.6800661742E+00    0.2578955177E-02    0.2443346000E+00    0.1962699611E-04    0.4359485472E+00
    0.1100000000E+08    0.6800689362E+00    0.2342432178E-02    0.2441709184E+00    0.1764317946E-04    0.4364702189E+00
    0.1300000000E+08    0.6800708692E+00    0.2162056043E-02    0.2440255494E+00    0.1614469789E-04    0.4368886484E+00
    0.1500000000E+08    0.6800723011E+00    0.2018562441E-02    0.2438949697E+00    0.1496219154E-04    0.4372365067E+00
    0.1700000000E+08    0.6800734064E+00    0.1900840621E-02    0.2437764917E+00    0.1399880268E-04    0.4375332874E+00
    0.1900000000E+08    0.6800742868E+00    0.1801970265E-02    0.2436680670E+00    0.1319463722E-04    0.4377915048E+00
    0.2100000000E+08    0.6800750056E+00    0.1717384991E-02    0.2435681136E+00    0.1251042248E-04    0.4380196459E+00
    0.2300000000E+08    0.6800756041E+00    0.1643932991E-02    0.2434753906E+00    0.1191920325E-04    0.4382237172E+00
    0.2500000000E+08    0.6800761108E+00    0.1579358839E-02    0.2433889091E+00    0.1140178762E-04    0.4384081179E+00
    0.2700000000E+08    0.6800765457E+00    0.1522000009E-02    0.2433078694E+00    0.1094409363E-04    0.4385761614E+00
