  Pressure (Pa) 22mC5-400 (mol/kg) 2mC6-400 (mol/kg) 3mC6-400 (mol/kg) 33mC5-400 (mol/kg) C7-400 (mol/kg)
    0.1000000000E+01    0.3702450544E-02    0.1576795631E-02    0.5232518906E-03    0.2567878162E-03    0.1018935997E-01
    0.3000000000E+01    0.1094931606E-01    0.4555785471E-02    0.1515598239E-02    0.7420727302E-03    0.2951833638E-01
    0.5000000000E+01    0.1799384548E-01    0.7320807221E-02    0.2441851316E-02    0.1192690347E-02    0.4756603578E-01
    0.7000000000E+01    0.2484552916E-01    0.9891955061E-02    0.3308505876E-02    0.1611897828E-02    0.6445816964E-01
    0.9000000000E+01    0.3151325920E-01    0.1228686159E-01    0.4121229310E-02    0.2002552489E-02    0.8030444768E-01
    0.1100000000E+02    0.3800537573E-01    0.1452106999E-01    0.4884989474E-02    0.2367172358E-02    0.9520104892E-01
    0.1300000000E+02    0.4432970895E-01    0.1660833989E-01    0.5604159519E-02    0.2707985927E-02    0.1092326483E+00
    0.1500000000E+02    0.5049361746E-01    0.1856090040E-01    0.6282604409E-02    0.3026973308E-02    0.1224740896E+00
    0.1700000000E+02    0.5650402314E-01    0.2038966066E-01    0.6923752763E-02    0.3325900467E-02    0.1349917743E+00
    0.1900000000E+02    0.6236744303E-01    0.2210438624E-01    0.7530656833E-02    0.3606347890E-02    0.1468448216E+00
    0.2100000000E+02    0.6809001852E-01    0.2371384750E-01    0.8106042858E-02    0.3869734700E-02    0.1580860421E+00
    0.2300000000E+02    0.7367754199E-01    0.2522594516E-01    0.8652353529E-02    0.4117339062E-02    0.1687627591E+00
    0.2500000000E+02    0.7913548124E-01    0.2664781712E-01    0.9171783992E-02    0.4350315521E-02    0.1789175047E+00
    0.2700000000E+02    0.8446900199E-01    0.2798592963E-01    0.9666312490E-02    0.4569709815E-02    0.1885886127E+00
    0.2900000000E+02    0.8968298841E-01    0.2924615555E-01    0.1013772657E-01    0.4776471575E-02    0.1978107258E+00
    0.3100000000E+02    0.9478206214E-01    0.3043384171E-01    0.1058764555E-01    0.4971465265E-02    0.2066152297E+00
    0.3300000000E+02    0.9977059968E-01    0.3155386725E-01    0.1101753993E-01    0.5155479637E-02    0.2150306289E+00
    0.3500000000E+02    0.1046527485E+00    0.3261069417E-01    0.1142874812E-01    0.5329235939E-02    0.2230828705E+00
    0.3700000000E+02    0.1094324419E+00    0.3360841145E-01    0.1182249101E-01    0.5493395066E-02    0.2307956255E+00
    0.3900000000E+02    0.1141134128E+00    0.3455077356E-01    0.1219988459E-01    0.5648563800E-02    0.2381905339E+00
    0.4100000000E+02    0.1186992060E+00    0.3544123420E-01    0.1256195103E-01    0.5795300293E-02    0.2452874186E+00
    0.4300000000E+02    0.1231931906E+00    0.3628297611E-01    0.1290962838E-01    0.5934118878E-02    0.2521044729E+00
    0.4500000000E+02    0.1275985702E+00    0.3707893719E-01    0.1324377903E-01    0.6065494315E-02    0.2586584251E+00
    0.4700000000E+02    0.1319183934E+00    0.3783183377E-01    0.1356519728E-01    0.6189865550E-02    0.2649646834E+00
    0.4900000000E+02    0.1361555628E+00    0.3854418111E-01    0.1387461586E-01    0.6307639044E-02    0.2710374645E+00
    0.1000000000E+02    0.3478076828E-01    0.1342315447E-01    0.4508943634E-02    0.2187971225E-02    0.8786591723E-01
    0.3000000000E+02    0.9224661028E-01    0.2984875082E-01    0.1036527776E-01    0.4875388459E-02    0.2022633338E+00
    0.5000000000E+02    0.1382440217E+00    0.3888588441E-01    0.1402503891E-01    0.6364170511E-02    0.2739904460E+00
    0.7000000000E+02    0.1762812534E+00    0.4407607835E-01    0.1654335554E-01    0.7226798047E-02    0.3235065064E+00
    0.9000000000E+02    0.2085199108E+00    0.4705740059E-01    0.1839032039E-01    0.7728094355E-02    0.3599372301E+00
    0.1100000000E+03    0.2363685367E+00    0.4868987634E-01    0.1980770639E-01    0.8007316949E-02    0.3879813252E+00
    0.1300000000E+03    0.2607878655E+00    0.4946455841E-01    0.2093287431E-01    0.8144203528E-02    0.4103112624E+00
    0.1500000000E+03    0.2824586087E+00    0.4967899091E-01    0.2184980542E-01    0.8187260323E-02    0.4285627518E+00
    0.1700000000E+03    0.3018788497E+00    0.4952157122E-01    0.2261282612E-01    0.8167352826E-02    0.4437950556E+00
    0.1900000000E+03    0.3194232204E+00    0.4911564760E-01    0.2325868963E-01    0.8104809419E-02    0.4567255594E+00
    0.2100000000E+03    0.3353802816E+00    0.4854409323E-01    0.2381318342E-01    0.8013382198E-02    0.4678581433E+00
    0.2300000000E+03    0.3499769393E+00    0.4786371157E-01    0.2429495651E-01    0.7902571565E-02    0.4775575875E+00
    0.2500000000E+03    0.3633948694E+00    0.4711403497E-01    0.2471784377E-01    0.7779048559E-02    0.4860947897E+00
    0.2700000000E+03    0.3757818557E+00    0.4632288456E-01    0.2509233482E-01    0.7647555738E-02    0.4936753583E+00
    0.2900000000E+03    0.3872598004E+00    0.4550998538E-01    0.2542653414E-01    0.7511494632E-02    0.5004583137E+00
    0.3100000000E+03    0.3979305015E+00    0.4468937462E-01    0.2572680721E-01    0.7373318433E-02    0.5065686837E+00
    0.3300000000E+03    0.4078798995E+00    0.4387103974E-01    0.2599822663E-01    0.7234800164E-02    0.5121062026E+00
    0.3500000000E+03    0.4171812532E+00    0.4306205285E-01    0.2624488695E-01    0.7097219216E-02    0.5171514571E+00
    0.3700000000E+03    0.4258975503E+00    0.4226736862E-01    0.2647013144E-01    0.6961493223E-02    0.5217703130E+00
    0.3900000000E+03    0.4340833658E+00    0.4149039310E-01    0.2667671823E-01    0.6828272594E-02    0.5260171627E+00
    0.4100000000E+03    0.4417863124E+00    0.4073339407E-01    0.2686694402E-01    0.6698009134E-02    0.5299373436E+00
    0.4300000000E+03    0.4490481857E+00    0.3999780013E-01    0.2704273752E-01    0.6571006382E-02    0.5335689668E+00
    0.4500000000E+03    0.4559058807E+00    0.3928442046E-01    0.2720573098E-01    0.6447456882E-02    0.5369443161E+00
    0.4700000000E+03    0.4623921308E+00    0.3859360770E-01    0.2735731551E-01    0.6327470020E-02    0.5400909335E+00
    0.4900000000E+03    0.4685361102E+00    0.3792537929E-01    0.2749868446E-01    0.6211092945E-02    0.5430324679E+00
    0.1000000000E+03    0.2229248573E+00    0.4800560079E-01    0.1914247053E-01    0.7889520896E-02    0.3748084399E+00
    0.3000000000E+03    0.3926903550E+00    0.4509994008E-01    0.2558056832E-01    0.7442546670E-02    0.5035908277E+00
    0.5000000000E+03    0.4714880159E+00    0.3759967088E-01    0.2756586552E-01    0.6154259768E-02    0.5444328231E+00
    0.7000000000E+03    0.5176567824E+00    0.3214980278E-01    0.2856196946E-01    0.5193809057E-02    0.5654248671E+00
    0.9000000000E+03    0.5478074562E+00    0.2826939298E-01    0.2916866417E-01    0.4501102501E-02    0.5784958973E+00
    0.1100000000E+04    0.5689075039E+00    0.2541055193E-01    0.2957970762E-01    0.3987995946E-02    0.5875375136E+00
    0.1300000000E+04    0.5844240195E+00    0.2322542158E-01    0.2987771830E-01    0.3595524241E-02    0.5942239987E+00
    0.1500000000E+04    0.5962721292E+00    0.2150074026E-01    0.3010418120E-01    0.3286459174E-02    0.5994031273E+00
    0.1700000000E+04    0.6055911527E+00    0.2010242262E-01    0.3028232937E-01    0.3036931295E-02    0.6035534809E+00
    0.1900000000E+04    0.6130984890E+00    0.1894312773E-01    0.3042623667E-01    0.2831177708E-02    0.6069671950E+00
    0.2100000000E+04    0.6192668316E+00    0.1796394520E-01    0.3054494985E-01    0.2658462623E-02    0.6098334500E+00
    0.2300000000E+04    0.6244194582E+00    0.1712385979E-01    0.3064456121E-01    0.2511260278E-02    0.6122805622E+00
    0.2500000000E+04    0.6287844665E+00    0.1639349931E-01    0.3072933017E-01    0.2384156254E-02    0.6143988742E+00
    0.2700000000E+04    0.6325271238E+00    0.1575130026E-01    0.3080232812E-01    0.2273163899E-02    0.6162539773E+00
    0.2900000000E+04    0.6357699406E+00    0.1518108125E-01    0.3086582790E-01    0.2175286819E-02    0.6178947354E+00
    0.3100000000E+04    0.6386055557E+00    0.1467046228E-01    0.3092154884E-01    0.2088231299E-02    0.6193583571E+00
    0.3300000000E+04    0.6411052524E+00    0.1420980764E-01    0.3097081651E-01    0.2010212618E-02    0.6206737151E+00
    0.3500000000E+04    0.6433247352E+00    0.1379150188E-01    0.3101466992E-01    0.1939821635E-02    0.6218635846E+00
    0.3700000000E+04    0.6453081371E+00    0.1340944325E-01    0.3105393535E-01    0.1875931023E-02    0.6229461924E+00
    0.3900000000E+04    0.6470908572E+00    0.1305868228E-01    0.3108927844E-01    0.1817628145E-02    0.6239363120E+00
    0.4100000000E+04    0.6487016065E+00    0.1273515930E-01    0.3112124155E-01    0.1764166172E-02    0.6248460556E+00
    0.4300000000E+04    0.6501639066E+00    0.1243551082E-01    0.3115027122E-01    0.1714927950E-02    0.6256854549E+00
    0.4500000000E+04    0.6514972057E+00    0.1215692448E-01    0.3117673850E-01    0.1669398911E-02    0.6264628959E+00
    0.4700000000E+04    0.6527177185E+00    0.1189702903E-01    0.3120095432E-01    0.1627146491E-02    0.6271854475E+00
    0.4900000000E+04    0.6538390682E+00    0.1165380975E-01    0.3122318122E-01    0.1587804325E-02    0.6278591137E+00
    0.1000000000E+04    0.5592217632E+00    0.2673801106E-01    0.2939207387E-01    0.4226414147E-02    0.5833875802E+00
    0.3000000000E+04    0.6372337708E+00    0.1491897854E-01    0.3089457010E-01    0.2130528041E-02    0.6186467188E+00
    0.5000000000E+04    0.6543662298E+00    0.1153790510E-01    0.3123361994E-01    0.1569125115E-02    0.6281792491E+00
    0.7000000000E+04    0.6617485474E+00    0.9783138693E-02    0.3137794333E-01    0.1292100277E-02    0.6329444942E+00
    0.9000000000E+04    0.6658438212E+00    0.8660944645E-02    0.3145411101E-01    0.1121008349E-02    0.6358958942E+00
    0.1100000000E+05    0.6684439560E+00    0.7862305988E-02    0.3149878349E-01    0.1002307100E-02    0.6379414695E+00
    0.1300000000E+05    0.6702402172E+00    0.7255641152E-02    0.3152650762E-01    0.9138857836E-03    0.6394616066E+00
    0.1500000000E+05    0.6715550809E+00    0.6774072284E-02    0.3154418380E-01    0.8447864368E-03    0.6406462741E+00
    0.1700000000E+05    0.6725590390E+00    0.6379475411E-02    0.3155549068E-01    0.7888917410E-03    0.6416019213E+00
    0.1900000000E+05    0.6733506374E+00    0.6048289103E-02    0.3156255859E-01    0.7424869464E-03    0.6423932817E+00
    0.2100000000E+05    0.6739907819E+00    0.5765049491E-02    0.3156669992E-01    0.7031702626E-03    0.6430622099E+00
    0.2300000000E+05    0.6745191327E+00    0.5519123516E-02    0.3156876288E-01    0.6693114644E-03    0.6436370909E+00
    0.2500000000E+05    0.6749626207E+00    0.5302922963E-02    0.3156931706E-01    0.6397602638E-03    0.6441379258E+00
    0.2700000000E+05    0.6753401731E+00    0.5110865539E-02    0.3156875702E-01    0.6136788846E-03    0.6445792572E+00
    0.2900000000E+05    0.6756654797E+00    0.4938739379E-02    0.3156736321E-01    0.5904408470E-03    0.6449719400E+00
    0.3100000000E+05    0.6759486868E+00    0.4783297847E-02    0.3156533937E-01    0.5695671081E-03    0.6453242582E+00
    0.3300000000E+05    0.6761974737E+00    0.4641991961E-02    0.3156283621E-01    0.5506842952E-03    0.6456426560E+00
    0.3500000000E+05    0.6764177593E+00    0.4512788370E-02    0.3155996696E-01    0.5334965368E-03    0.6459322298E+00
    0.3700000000E+05    0.6766141790E+00    0.4394042281E-02    0.3155681789E-01    0.5177659540E-03    0.6461970692E+00
    0.3900000000E+05    0.6767904148E+00    0.4284406734E-02    0.3155345544E-01    0.5032988334E-03    0.6464404985E+00
    0.4100000000E+05    0.6769494284E+00    0.4182766526E-02    0.3154993133E-01    0.4899356240E-03    0.6466652505E+00
    0.4300000000E+05    0.6770936289E+00    0.4088189245E-02    0.3154628615E-01    0.4775435699E-03    0.6468735954E+00
    0.4500000000E+05    0.6772249961E+00    0.3999888388E-02    0.3154255199E-01    0.4660111946E-03    0.6470674360E+00
    0.4700000000E+05    0.6773451720E+00    0.3917195210E-02    0.3153875438E-01    0.4552441118E-03    0.6472483811E+00
    0.4900000000E+05    0.6774555300E+00    0.3839536938E-02    0.3153491373E-01    0.4451618016E-03    0.6474178010E+00
    0.1000000000E+05    0.6672746201E+00    0.8231617204E-02    0.3147920866E-01    0.1056875519E-02    0.6370015966E+00
    0.3000000000E+05    0.6758118176E+00    0.4859106238E-02    0.3156641960E-01    0.5797338709E-03    0.6451527055E+00
    0.5000000000E+05    0.6775073961E+00    0.3802438870E-02    0.3153298253E-01    0.4403554358E-03    0.6474985628E+00
    0.7000000000E+05    0.6782335234E+00    0.3234232235E-02    0.3149471731E-01    0.3675718009E-03    0.6487224250E+00
    0.9000000000E+05    0.6786371704E+00    0.2865439832E-02    0.3145954989E-01    0.3212053999E-03    0.6495050151E+00
    0.1100000000E+06    0.6788943143E+00    0.2601120809E-02    0.3142806456E-01    0.2884261292E-03    0.6500614020E+00
    0.1300000000E+06    0.6790725651E+00    0.2399611774E-02    0.3139983586E-01    0.2637052450E-03    0.6504837193E+00
    0.1500000000E+06    0.6792034610E+00    0.2239352206E-02    0.3137434763E-01    0.2442199289E-03    0.6508188571E+00
    0.1700000000E+06    0.6793036980E+00    0.2107910030E-02    0.3135115280E-01    0.2283598103E-03    0.6510935233E+00
    0.1900000000E+06    0.6793829436E+00    0.1997543325E-02    0.3132988923E-01    0.2151308962E-03    0.6513241955E+00
    0.2100000000E+06    0.6794471845E+00    0.1903144323E-02    0.3131026750E-01    0.2038823375E-03    0.6515216654E+00
    0.2300000000E+06    0.6795003265E+00    0.1821188005E-02    0.3129205551E-01    0.1941679184E-03    0.6516933375E+00
    0.2500000000E+06    0.6795450265E+00    0.1749152176E-02    0.3127506557E-01    0.1856702298E-03    0.6518444850E+00
    0.2700000000E+06    0.6795831553E+00    0.1685177884E-02    0.3125914431E-01    0.1781565557E-03    0.6519789795E+00
    0.2900000000E+06    0.6796160682E+00    0.1627860631E-02    0.3124416508E-01    0.1714519088E-03    0.6520997372E+00
    0.3100000000E+06    0.6796447715E+00    0.1576116721E-02    0.3123002226E-01    0.1654218596E-03    0.6522090020E+00
    0.3300000000E+06    0.6796700276E+00    0.1529094734E-02    0.3121662690E-01    0.1599612162E-03    0.6523085337E+00
    0.3500000000E+06    0.6796924253E+00    0.1486115150E-02    0.3120390345E-01    0.1549863378E-03    0.6523997339E+00
    0.3700000000E+06    0.6797124262E+00    0.1446628115E-02    0.3119178724E-01    0.1504297800E-03    0.6524837354E+00
    0.3900000000E+06    0.6797303974E+00    0.1410183251E-02    0.3118022247E-01    0.1462364792E-03    0.6525614650E+00
    0.4100000000E+06    0.6797466345E+00    0.1376407627E-02    0.3116916071E-01    0.1423609810E-03    0.6526336892E+00
    0.4300000000E+06    0.6797613785E+00    0.1344989426E-02    0.3115855962E-01    0.1387653897E-03    0.6527010487E+00
    0.4500000000E+06    0.6797748273E+00    0.1315665630E-02    0.3114838202E-01    0.1354178279E-03    0.6527640835E+00
    0.4700000000E+06    0.6797871455E+00    0.1288212617E-02    0.3113859505E-01    0.1322912631E-03    0.6528232527E+00
    0.4900000000E+06    0.6797984708E+00    0.1262438873E-02    0.3112916953E-01    0.1293626020E-03    0.6528789491E+00
    0.1000000000E+06    0.6787785611E+00    0.2723506295E-02    0.3144336738E-01    0.3035550919E-03    0.6498041816E+00
    0.3000000000E+06    0.6796308937E+00    0.1601349851E-02    0.3123699503E-01    0.1683597153E-03    0.6521556866E+00
    0.5000000000E+06    0.6798037981E+00    0.1250129231E-02    0.3112458408E-01    0.1279661685E-03    0.6529056027E+00
    0.7000000000E+06    0.6798787488E+00    0.1061825502E-02    0.3104679726E-01    0.1068004264E-03    0.6533184720E+00
    0.9000000000E+06    0.6799207999E+00    0.9398635112E-03    0.3098715786E-01    0.9330441857E-04    0.6535926305E+00
    0.1100000000E+07    0.6799477969E+00    0.8525851060E-03    0.3093873559E-01    0.8376103417E-04    0.6537933523E+00
    0.1300000000E+07    0.6799666387E+00    0.7861243621E-03    0.3089794888E-01    0.7656389444E-04    0.6539494315E+00
    0.1500000000E+07    0.6799805601E+00    0.7333173204E-03    0.3086270172E-01    0.7089167780E-04    0.6540758654E+00
    0.1700000000E+07    0.6799912811E+00    0.6900386739E-03    0.3083166001E-01    0.6627548687E-04    0.6541813628E+00
    0.1900000000E+07    0.6799998015E+00    0.6537223229E-03    0.3080392143E-01    0.6242578132E-04    0.6542713865E+00
    0.2100000000E+07    0.6800067427E+00    0.6226768910E-03    0.3077884681E-01    0.5915293587E-04    0.6543495668E+00
    0.2300000000E+07    0.6800125115E+00    0.5957360715E-03    0.3075596673E-01    0.5632693303E-04    0.6544184271E+00
    0.2500000000E+07    0.6800173855E+00    0.5720659600E-03    0.3073492613E-01    0.5385528456E-04    0.6544797861E+00
    0.2700000000E+07    0.6800215605E+00    0.5510523268E-03    0.3071544994E-01    0.5167018193E-04    0.6545349933E+00
    0.2900000000E+07    0.6800251791E+00    0.5322313645E-03    0.3069732063E-01    0.4972064014E-04    0.6545850755E+00
    0.3100000000E+07    0.6800283472E+00    0.5152453858E-03    0.3068036323E-01    0.4796749387E-04    0.6546308302E+00
    0.3300000000E+07    0.6800311454E+00    0.4998134972E-03    0.3066443485E-01    0.4638009850E-04    0.6546728881E+00
    0.3500000000E+07    0.6800336359E+00    0.4857116100E-03    0.3064941730E-01    0.4493408985E-04    0.6547117557E+00
    0.3700000000E+07    0.6800358677E+00    0.4727584664E-03    0.3063521171E-01    0.4360982341E-04    0.6547478454E+00
    0.3900000000E+07    0.6800378799E+00    0.4608056506E-03    0.3062173448E-01    0.4239126243E-04    0.6547814971E+00
    0.4100000000E+07    0.6800397040E+00    0.4497303091E-03    0.3060891435E-01    0.4126516991E-04    0.6548129940E+00
    0.4300000000E+07    0.6800413658E+00    0.4394297510E-03    0.3059669004E-01    0.4022051110E-04    0.6548425742E+00
    0.4500000000E+07    0.6800428863E+00    0.4298173812E-03    0.3058500846E-01    0.3924800462E-04    0.6548704396E+00
    0.4700000000E+07    0.6800442833E+00    0.4208195928E-03    0.3057382335E-01    0.3833978043E-04    0.6548967629E+00
    0.4900000000E+07    0.6800455715E+00    0.4123733639E-03    0.3056309412E-01    0.3748911590E-04    0.6549216928E+00
    0.1000000000E+07    0.6799356203E+00    0.8929827064E-03    0.3096181634E-01    0.8816576615E-04    0.6536999044E+00
    0.3000000000E+07    0.6800268140E+00    0.5235280880E-03    0.3068870503E-01    0.4882160226E-04    0.6546084511E+00
    0.5000000000E+07    0.6800461788E+00    0.4083398125E-03    0.3055788911E-01    0.3708352977E-04    0.6549336762E+00
    0.7000000000E+07    0.6800548341E+00    0.3466697082E-03    0.3047089295E-01    0.3093809788E-04    0.6551240505E+00
    0.9000000000E+07    0.6800598115E+00    0.3067586895E-03    0.3040559047E-01    0.2702167580E-04    0.6552560037E+00
    0.1100000000E+08    0.6800630754E+00    0.2782128100E-03    0.3035328736E-01    0.2425333458E-04    0.6553558617E+00
    0.1300000000E+08    0.6800653965E+00    0.2564841391E-03    0.3030965589E-01    0.2216620004E-04    0.6554356297E+00
    0.1500000000E+08    0.6800671406E+00    0.2392245696E-03    0.3027222514E-01    0.2052166595E-04    0.6555017286E+00
    0.1700000000E+08    0.6800685047E+00    0.2250826666E-03    0.3023945021E-01    0.1918355652E-04    0.6555579713E+00
    0.1900000000E+08    0.6800696043E+00    0.2132181303E-03    0.3021030031E-01    0.1806780760E-04    0.6556067954E+00
    0.2100000000E+08    0.6800705122E+00    0.2030772849E-03    0.3018405318E-01    0.1711937694E-04    0.6556498490E+00
    0.2300000000E+08    0.6800712762E+00    0.1942784444E-03    0.3016018308E-01    0.1630053208E-04    0.6556882950E+00
    0.2500000000E+08    0.6800719292E+00    0.1865487700E-03    0.3013829531E-01    0.1558443668E-04    0.6557229830E+00
    0.2700000000E+08    0.6800724949E+00    0.1796873381E-03    0.3011808600E-01    0.1495141845E-04    0.6557545516E+00
