  Pressure (Pa) 22mC5-400 (mol/kg) 2mC6-400 (mol/kg) 3mC6-400 (mol/kg) 33mC5-400 (mol/kg) C7-400 (mol/kg)
    0.1000000000E+01    0.3703161657E-02    0.1578692462E-02    0.3143760090E-02    0.6427346544E-04    0.6802055907E-02
    0.3000000000E+01    0.1095548535E-01    0.4571673167E-02    0.9129284128E-02    0.1861588049E-03    0.1975576389E-01
    0.5000000000E+01    0.1801037355E-01    0.7361973760E-02    0.1474387829E-01    0.2998319144E-03    0.3191050337E-01
    0.7000000000E+01    0.2487678961E-01    0.9967380429E-02    0.2002153200E-01    0.4060136224E-03    0.4333937286E-01
    0.9000000000E+01    0.3156315022E-01    0.1240364883E-01    0.2499218858E-01    0.5053423010E-03    0.5410677603E-01
    0.1100000000E+02    0.3807736629E-01    0.1468479053E-01    0.2968233056E-01    0.5983855179E-03    0.6426967892E-01
    0.1300000000E+02    0.4442688024E-01    0.1682331174E-01    0.3411546624E-01    0.6856497444E-03    0.7387865507E-01
    0.1500000000E+02    0.5061870009E-01    0.1883041336E-01    0.3831253636E-01    0.7675884897E-03    0.8297875918E-01
    0.1700000000E+02    0.5665943062E-01    0.2071615955E-01    0.4229225582E-01    0.8446091536E-03    0.9161026114E-01
    0.1900000000E+02    0.6255530192E-01    0.2248962052E-01    0.4607140217E-01    0.9170788285E-03    0.9980926599E-01
    0.2100000000E+02    0.6831219554E-01    0.2415899402E-01    0.4966506043E-01    0.9853292361E-03    0.1076082398E+00
    0.2300000000E+02    0.7393566850E-01    0.2573170918E-01    0.5308683157E-01    0.1049660946E-02    0.1150364578E+00
    0.2500000000E+02    0.7943097538E-01    0.2721451574E-01    0.5634901101E-01    0.1110346997E-02    0.1221203877E+00
    0.2700000000E+02    0.8480308860E-01    0.2861356083E-01    0.5946274186E-01    0.1167636019E-02    0.1288840194E+00
    0.2900000000E+02    0.9005671715E-01    0.2993445559E-01    0.6243814711E-01    0.1221754932E-02    0.1353491487E+00
    0.3100000000E+02    0.9519632379E-01    0.3118233286E-01    0.6528444399E-01    0.1272911291E-02    0.1415356232E+00
    0.3300000000E+02    0.1002261410E+00    0.3236189763E-01    0.6801004325E-01    0.1321295331E-02    0.1474615560E+00
    0.3500000000E+02    0.1051501856E+00    0.3347747103E-01    0.7062263576E-01    0.1367081752E-02    0.1531435115E+00
    0.3700000000E+02    0.1099722726E+00    0.3453302900E-01    0.7312926801E-01    0.1410431285E-02    0.1585966677E+00
    0.3900000000E+02    0.1146960274E+00    0.3553223629E-01    0.7553640844E-01    0.1451492076E-02    0.1638349590E+00
    0.4100000000E+02    0.1193248976E+00    0.3647847649E-01    0.7785000564E-01    0.1490400895E-02    0.1688712013E+00
    0.4300000000E+02    0.1238621640E+00    0.3737487857E-01    0.8007553971E-01    0.1527284221E-02    0.1737172024E+00
    0.4500000000E+02    0.1283109505E+00    0.3822434048E-01    0.8221806760E-01    0.1562259187E-02    0.1783838594E+00
    0.4700000000E+02    0.1326742334E+00    0.3902955010E-01    0.8428226333E-01    0.1595434440E-02    0.1828812452E+00
    0.4900000000E+02    0.1369548500E+00    0.3979300394E-01    0.8627245361E-01    0.1626910890E-02    0.1872186853E+00
    0.1000000000E+02    0.3484130061E-01    0.1356279611E-01    0.2737079003E-01    0.5526166080E-03    0.5926049033E-01
    0.3000000000E+02    0.9264050346E-01    0.3056721786E-01    0.6387689059E-01    0.1247691157E-02    0.1384760474E+00
    0.5000000000E+02    0.1390650091E+00    0.4015980443E-01    0.8724106175E-01    0.1642041652E-02    0.1893301526E+00
    0.7000000000E+02    0.1775240732E+00    0.4578908350E-01    0.1035615901E+00    0.1875094669E-02    0.2249597083E+00
    0.9000000000E+02    0.2101437990E+00    0.4910214914E-01    0.1156551843E+00    0.2013455426E-02    0.2514388982E+00
    0.1100000000E+03    0.2383225402E+00    0.5098190689E-01    0.1250057476E+00    0.2092879755E-02    0.2719710565E+00
    0.1300000000E+03    0.2630210780E+00    0.5193995880E-01    0.1324709441E+00    0.2134140727E-02    0.2884095342E+00
    0.1500000000E+03    0.2849241271E+00    0.5228980070E-01    0.1385819260E+00    0.2150013708E-02    0.3019032723E+00
    0.1700000000E+03    0.3045350386E+00    0.5223173732E-01    0.1436857272E+00    0.2148698494E-02    0.3132036947E+00
    0.1900000000E+03    0.3222338225E+00    0.5189792641E-01    0.1480189933E+00    0.2135634436E-02    0.3228237114E+00
    0.2100000000E+03    0.3383140530E+00    0.5137777111E-01    0.1517488363E+00    0.2114524167E-02    0.3311258812E+00
    0.2300000000E+03    0.3530071200E+00    0.5073294460E-01    0.1549967540E+00    0.2087939985E-02    0.3383740576E+00
    0.2500000000E+03    0.3664986243E+00    0.5000663826E-01    0.1578532845E+00    0.2057697715E-02    0.3447650503E+00
    0.2700000000E+03    0.3789397464E+00    0.4922944424E-01    0.1603873350E+00    0.2025095026E-02    0.3504487929E+00
    0.2900000000E+03    0.3904553098E+00    0.4842320214E-01    0.1626523190E+00    0.1991067683E-02    0.3555416179E+00
    0.3100000000E+03    0.4011496172E+00    0.4760357446E-01    0.1646903083E+00    0.1956294508E-02    0.3601352428E+00
    0.3300000000E+03    0.4111107533E+00    0.4678180619E-01    0.1665349127E+00    0.1921269342E-02    0.3643030077E+00
    0.3500000000E+03    0.4204138113E+00    0.4596594836E-01    0.1682133216E+00    0.1886351303E-02    0.3681042978E+00
    0.3700000000E+03    0.4291233486E+00    0.4516172181E-01    0.1697477788E+00    0.1851800427E-02    0.3715877421E+00
    0.3900000000E+03    0.4372952840E+00    0.4437313523E-01    0.1711566669E+00    0.1817803302E-02    0.3747935657E+00
    0.4100000000E+03    0.4449783806E+00    0.4360293242E-01    0.1724553175E+00    0.1784491726E-02    0.3777553481E+00
    0.4300000000E+03    0.4522154202E+00    0.4285291941E-01    0.1736566238E+00    0.1751956430E-02    0.3805013542E+00
    0.4500000000E+03    0.4590441431E+00    0.4212420559E-01    0.1747715115E+00    0.1720257266E-02    0.3830555572E+00
    0.4700000000E+03    0.4654980076E+00    0.4141738304E-01    0.1758093032E+00    0.1689430839E-02    0.3854384316E+00
    0.4900000000E+03    0.4716068098E+00    0.4073266052E-01    0.1767780048E+00    0.1659496252E-02    0.3876675759E+00
    0.1000000000E+03    0.2247203105E+00    0.5018315763E-01    0.1206096836E+00    0.2058991818E-02    0.2623108312E+00
    0.3000000000E+03    0.3958992773E+00    0.4801427159E-01    0.1636974163E+00    0.1973739799E-02    0.3578958749E+00
    0.5000000000E+03    0.4745402501E+00    0.4039857255E-01    0.1772386455E+00    0.1644865677E-02    0.3887293359E+00
    0.7000000000E+03    0.5202876727E+00    0.3477978994E-01    0.1840941801E+00    0.1396630536E-02    0.4046924258E+00
    0.9000000000E+03    0.5500326272E+00    0.3074881785E-01    0.1882993271E+00    0.1216583227E-02    0.4146853959E+00
    0.1100000000E+04    0.5707937775E+00    0.2776186357E-01    0.1911666264E+00    0.1082645759E-02    0.4216297700E+00
    0.1300000000E+04    0.5860369141E+00    0.2546732109E-01    0.1932580731E+00    0.9798064988E-03    0.4267869487E+00
    0.1500000000E+04    0.5976655286E+00    0.2364807638E-01    0.1948567460E+00    0.8985342957E-03    0.4307972911E+00
    0.1700000000E+04    0.6068073018E+00    0.2216701978E-01    0.1961216002E+00    0.8326990035E-03    0.4340230547E+00
    0.1900000000E+04    0.6141701406E+00    0.2093453209E-01    0.1971491554E+00    0.7782429211E-03    0.4366857794E+00
    0.2100000000E+04    0.6202194396E+00    0.1988998159E-01    0.1980015929E+00    0.7323967159E-03    0.4389291741E+00
    0.2300000000E+04    0.6252729594E+00    0.1899103403E-01    0.1987208757E+00    0.6932152817E-03    0.4408508680E+00
    0.2500000000E+04    0.6295546307E+00    0.1820728991E-01    0.1993364020E+00    0.6592965252E-03    0.4425197026E+00
    0.2700000000E+04    0.6332265561E+00    0.1751637288E-01    0.1998694126E+00    0.6296061307E-03    0.4439857323E+00
    0.2900000000E+04    0.6364088213E+00    0.1690144899E-01    0.2003356560E+00    0.6033652510E-03    0.4452862985E+00
    0.3100000000E+04    0.6391921884E+00    0.1634960751E-01    0.2007470687E+00    0.5799765931E-03    0.4464498750E+00
    0.3300000000E+04    0.6416464738E+00    0.1585077595E-01    0.2011128704E+00    0.5589745711E-03    0.4474985865E+00
    0.3500000000E+04    0.6438262234E+00    0.1539697565E-01    0.2014403014E+00    0.5399909310E-03    0.4484499079E+00
    0.3700000000E+04    0.6457746468E+00    0.1498179994E-01    0.2017351302E+00    0.5227305601E-03    0.4493178423E+00
    0.3900000000E+04    0.6475264000E+00    0.1460004119E-01    0.2020020122E+00    0.5069541463E-03    0.4501137542E+00
    0.4100000000E+04    0.6491095907E+00    0.1424741944E-01    0.2022447478E+00    0.4924655372E-03    0.4508469723E+00
    0.4300000000E+04    0.6505472473E+00    0.1392038191E-01    0.2024664713E+00    0.4791023828E-03    0.4515252324E+00
    0.4500000000E+04    0.6518584110E+00    0.1361595253E-01    0.2026697918E+00    0.4667291111E-03    0.4521550091E+00
    0.4700000000E+04    0.6530589589E+00    0.1333161762E-01    0.2028568997E+00    0.4552315868E-03    0.4527417665E+00
    0.4900000000E+04    0.6541622317E+00    0.1306523788E-01    0.2030296479E+00    0.4445130008E-03    0.4532901510E+00
    0.1000000000E+04    0.5612687385E+00    0.2915077684E-01    0.1898555684E+00    0.1144946701E-02    0.4184386818E+00
    0.3000000000E+04    0.6378455896E+00    0.1661832896E-01    0.2005475863E+00    0.5913461175E-03    0.4458837019E+00
    0.5000000000E+04    0.6546809871E+00    0.1293819787E-01    0.2031111397E+00    0.4394194927E-03    0.4535512196E+00
    0.7000000000E+04    0.6619527138E+00    0.1100713714E-01    0.2042705541E+00    0.3635289822E-03    0.4574793065E+00
    0.9000000000E+04    0.6659935319E+00    0.9764797923E-02    0.2049246205E+00    0.3163149832E-03    0.4599628229E+00
    0.1100000000E+05    0.6685622251E+00    0.8877307645E-02    0.2053386539E+00    0.2833985570E-03    0.4617154296E+00
    0.1300000000E+05    0.6703383658E+00    0.8201376071E-02    0.2056198515E+00    0.2587929764E-03    0.4630390695E+00
    0.1500000000E+05    0.6716393935E+00    0.7663777284E-02    0.2058199785E+00    0.2395132947E-03    0.4640858910E+00
    0.1700000000E+05    0.6726333177E+00    0.7222602072E-02    0.2059671303E+00    0.2238853999E-03    0.4649418557E+00
    0.1900000000E+05    0.6734173364E+00    0.6851870643E-02    0.2060778754E+00    0.2108889279E-03    0.4656596417E+00
    0.2100000000E+05    0.6740515671E+00    0.6534490768E-02    0.2061626119E+00    0.1998621704E-03    0.4662735555E+00
    0.2300000000E+05    0.6745751816E+00    0.6258686682E-02    0.2062281894E+00    0.1903548657E-03    0.4668070226E+00
    0.2500000000E+05    0.6750147933E+00    0.6016041006E-02    0.2062792987E+00    0.1820486362E-03    0.4672766572E+00
    0.2700000000E+05    0.6753891153E+00    0.5800352956E-02    0.2063192557E+00    0.1747111802E-03    0.4676946145E+00
    0.2900000000E+05    0.6757116880E+00    0.5606938489E-02    0.2063504677E+00    0.1681685112E-03    0.4680700213E+00
    0.3100000000E+05    0.6759925506E+00    0.5432183295E-02    0.2063747221E+00    0.1622874049E-03    0.4684098825E+00
    0.3300000000E+05    0.6762393037E+00    0.5273247167E-02    0.2063933717E+00    0.1569638970E-03    0.4687196775E+00
    0.3500000000E+05    0.6764578072E+00    0.5127862629E-02    0.2064074579E+00    0.1521155132E-03    0.4690037625E+00
    0.3700000000E+05    0.6766526515E+00    0.4994194188E-02    0.2064177938E+00    0.1476758795E-03    0.4692656513E+00
    0.3900000000E+05    0.6768274837E+00    0.4870737742E-02    0.2064250229E+00    0.1435908967E-03    0.4695082139E+00
    0.4100000000E+05    0.6769852378E+00    0.4756247262E-02    0.2064296600E+00    0.1398159706E-03    0.4697338216E+00
    0.4300000000E+05    0.6771283012E+00    0.4649680386E-02    0.2064321214E+00    0.1363139686E-03    0.4699444530E+00
    0.4500000000E+05    0.6772586359E+00    0.4550157446E-02    0.2064327465E+00    0.1330536887E-03    0.4701417742E+00
    0.4700000000E+05    0.6773778695E+00    0.4456930133E-02    0.2064318149E+00    0.1300086960E-03    0.4703272001E+00
    0.4900000000E+05    0.6774873634E+00    0.4369357265E-02    0.2064295580E+00    0.1271564260E-03    0.4705019410E+00
    0.1000000000E+05    0.6674067036E+00    0.9288042548E-02    0.2051530198E+00    0.2985470454E-03    0.4609064880E+00
    0.3000000000E+05    0.6758568105E+00    0.5517421419E-02    0.2063633715E+00    0.1651523410E-03    0.4682440223E+00
    0.5000000000E+05    0.6775388237E+00    0.4327515411E-02    0.2064279942E+00    0.1257963938E-03    0.4705856361E+00
    0.7000000000E+05    0.6782592391E+00    0.3686036652E-02    0.2063605200E+00    0.1051758095E-03    0.4718895395E+00
    0.9000000000E+05    0.6786596056E+00    0.3269049589E-02    0.2062652688E+00    0.9201423255E-04    0.4727656665E+00
    0.1100000000E+06    0.6789145585E+00    0.2969862087E-02    0.2061659252E+00    0.8269710024E-04    0.4734142473E+00
    0.1300000000E+06    0.6790912111E+00    0.2741576829E-02    0.2060693678E+00    0.7566337571E-04    0.4739237179E+00
    0.1500000000E+06    0.6792208724E+00    0.2559896427E-02    0.2059776473E+00    0.7011481581E-04    0.4743402676E+00
    0.1700000000E+06    0.6793201167E+00    0.2410798059E-02    0.2058911900E+00    0.6559550864E-04    0.4746908098E+00
    0.1900000000E+06    0.6793985404E+00    0.2285542783E-02    0.2058098403E+00    0.6182378478E-04    0.4749922898E+00
    0.2100000000E+06    0.6794620852E+00    0.2178361489E-02    0.2057332428E+00    0.5861507103E-04    0.4752560123E+00
    0.2300000000E+06    0.6795146269E+00    0.2085270625E-02    0.2056609911E+00    0.5584274347E-04    0.4754898663E+00
    0.2500000000E+06    0.6795588021E+00    0.2003418582E-02    0.2055926868E+00    0.5341667919E-04    0.4756995588E+00
    0.2700000000E+06    0.6795964664E+00    0.1930702739E-02    0.2055279616E+00    0.5127076953E-04    0.4758893416E+00
    0.2900000000E+06    0.6796289642E+00    0.1865533903E-02    0.2054664842E+00    0.4935528300E-04    0.4760624609E+00
    0.3100000000E+06    0.6796572932E+00    0.1806685451E-02    0.2054079597E+00    0.4763199932E-04    0.4762214477E+00
    0.3300000000E+06    0.6796822095E+00    0.1753193366E-02    0.2053521272E+00    0.4607099993E-04    0.4763683105E+00
    0.3500000000E+06    0.6797042968E+00    0.1704288041E-02    0.2052987560E+00    0.4464848788E-04    0.4765046678E+00
    0.3700000000E+06    0.6797240124E+00    0.1659346563E-02    0.2052476418E+00    0.4334526830E-04    0.4766318423E+00
    0.3900000000E+06    0.6797417203E+00    0.1617858576E-02    0.2051986036E+00    0.4214566554E-04    0.4767509271E+00
    0.4100000000E+06    0.6797577132E+00    0.1579401391E-02    0.2051514806E+00    0.4103673594E-04    0.4768628358E+00
    0.4300000000E+06    0.6797722298E+00    0.1543621506E-02    0.2051061292E+00    0.4000768559E-04    0.4769683392E+00
    0.4500000000E+06    0.6797854663E+00    0.1510220683E-02    0.2050624211E+00    0.3904943267E-04    0.4770680929E+00
    0.4700000000E+06    0.6797975854E+00    0.1478945299E-02    0.2050202411E+00    0.3815427392E-04    0.4771626590E+00
    0.4900000000E+06    0.6798087236E+00    0.1449578110E-02    0.2049794855E+00    0.3731562721E-04    0.4772525232E+00
    0.1000000000E+06    0.6787998052E+00    0.3108427408E-02    0.2062154989E+00    0.8699864212E-04    0.4731114433E+00
    0.3000000000E+06    0.6796435978E+00    0.1835385114E-02    0.2054368699E+00    0.4847165081E-04    0.4761435849E+00
    0.5000000000E+06    0.6798139615E+00    0.1435550530E-02    0.2049596123E+00    0.3691569510E-04    0.4772958261E+00
    0.7000000000E+06    0.6798875346E+00    0.1220822629E-02    0.2046183749E+00    0.3084959453E-04    0.4779935246E+00
    0.9000000000E+06    0.6799286800E+00    0.1081588112E-02    0.2043522498E+00    0.2697698877E-04    0.4784886692E+00
    0.1100000000E+07    0.6799550196E+00    0.9818633300E-03    0.2041338101E+00    0.2423608551E-04    0.4788701773E+00
    0.1300000000E+07    0.6799733543E+00    0.9058721723E-03    0.2039483842E+00    0.2216752974E-04    0.4791793554E+00
    0.1500000000E+07    0.6799868680E+00    0.8454574889E-03    0.2037871970E+00    0.2053626547E-04    0.4794386350E+00
    0.1700000000E+07    0.6799972513E+00    0.7959190891E-03    0.2036445773E+00    0.1920800785E-04    0.4796615065E+00
    0.1900000000E+07    0.6800054857E+00    0.7543317078E-03    0.2035166451E+00    0.1809979008E-04    0.4798566926E+00
    0.2100000000E+07    0.6800121802E+00    0.7187663366E-03    0.2034006271E+00    0.1715724901E-04    0.4800301473E+00
    0.2300000000E+07    0.6800177331E+00    0.6878922587E-03    0.2032944713E+00    0.1634309413E-04    0.4801861093E+00
    0.2500000000E+07    0.6800224159E+00    0.6607576657E-03    0.2031966162E+00    0.1563078844E-04    0.4803277000E+00
    0.2700000000E+07    0.6800264201E+00    0.6366612480E-03    0.2031058457E+00    0.1500086930E-04    0.4804572822E+00
    0.2900000000E+07    0.6800298846E+00    0.6150732812E-03    0.2030211939E+00    0.1443869810E-04    0.4805766859E+00
    0.3100000000E+07    0.6800329128E+00    0.5955851275E-03    0.2029418806E+00    0.1393302653E-04    0.4806873569E+00
    0.3300000000E+07    0.6800355830E+00    0.5778757976E-03    0.2028672665E+00    0.1347505104E-04    0.4807904563E+00
    0.3500000000E+07    0.6800379560E+00    0.5616891530E-03    0.2027968213E+00    0.1305777051E-04    0.4808869305E+00
    0.3700000000E+07    0.6800400792E+00    0.5468179639E-03    0.2027300999E+00    0.1267553868E-04    0.4809775605E+00
    0.3900000000E+07    0.6800419907E+00    0.5330925125E-03    0.2026667251E+00    0.1232374523E-04    0.4810629984E+00
    0.4100000000E+07    0.6800437211E+00    0.5203722832E-03    0.2026063748E+00    0.1199858390E-04    0.4811437940E+00
    0.4300000000E+07    0.6800452952E+00    0.5085397995E-03    0.2025487710E+00    0.1169688105E-04    0.4812204148E+00
    0.4500000000E+07    0.6800467335E+00    0.4974959795E-03    0.2024936728E+00    0.1141596680E-04    0.4812932619E+00
    0.4700000000E+07    0.6800480533E+00    0.4871565882E-03    0.2024408697E+00    0.1115357686E-04    0.4813626818E+00
    0.4900000000E+07    0.6800492687E+00    0.4774494917E-03    0.2023901768E+00    0.1090777672E-04    0.4814289758E+00
    0.1000000000E+07    0.6799431484E+00    0.1028031253E-02    0.2042381742E+00    0.2550141558E-04    0.4786904167E+00
    0.3000000000E+07    0.6800314479E+00    0.6050885360E-03    0.2029809128E+00    0.1417939870E-04    0.4806330347E+00
    0.5000000000E+07    0.6800498412E+00    0.4728132824E-03    0.2023655698E+00    0.1079056864E-04    0.4814610342E+00
    0.7000000000E+07    0.6800579536E+00    0.4018842550E-03    0.2019529578E+00    0.9013478164E-05    0.4819877068E+00
    0.9000000000E+07    0.6800625686E+00    0.3559319829E-03    0.2016417150E+00    0.7879700598E-05    0.4823729768E+00
    0.1100000000E+08    0.6800655667E+00    0.3230382875E-03    0.2013915811E+00    0.7077606548E-05    0.4826762211E+00
    0.1300000000E+08    0.6800676812E+00    0.2979835393E-03    0.2011823834E+00    0.6472469752E-05    0.4829259705E+00
    0.1500000000E+08    0.6800692581E+00    0.2780709057E-03    0.2010025508E+00    0.5995384445E-05    0.4831381117E+00
    0.1700000000E+08    0.6800704830E+00    0.2617473297E-03    0.2008448229E+00    0.5607001163E-05    0.4833223899E+00
    0.1900000000E+08    0.6800714642E+00    0.2480466606E-03    0.2007043417E+00    0.5283016031E-05    0.4834852089E+00
    0.2100000000E+08    0.6800722694E+00    0.2363320194E-03    0.2005776953E+00    0.5007508484E-05    0.4836310002E+00
    0.2300000000E+08    0.6800729432E+00    0.2261641913E-03    0.2004623952E+00    0.4769560300E-05    0.4837629555E+00
    0.2500000000E+08    0.6800735162E+00    0.2172291046E-03    0.2003565700E+00    0.4561403320E-05    0.4838834496E+00
    0.2700000000E+08    0.6800740100E+00    0.2092953970E-03    0.2002587768E+00    0.4377341252E-05    0.4839942963E+00
