  Pressure (Pa) 22mC5-400 (mol/kg) 2mC6-400 (mol/kg) 3mC6-400 (mol/kg) 33mC5-400 (mol/kg) C7-400 (mol/kg)
    0.1000000000E+01    0.3705063575E-02    0.7914516232E-03    0.1576539956E-02    0.3222169904E-03    0.6822127315E-02
    0.3000000000E+01    0.1097199837E-01    0.2303615633E-02    0.4604105034E-02    0.9379669107E-03    0.1992575668E-01
    0.5000000000E+01    0.1805464436E-01    0.3727407018E-02    0.7475273191E-02    0.1517882122E-02    0.3235567146E-01
    0.7000000000E+01    0.2496057392E-01    0.5069351627E-02    0.1020201383E-01    0.2064607811E-02    0.4416335216E-01
    0.9000000000E+01    0.3169694245E-01    0.6335354220E-02    0.1279510139E-01    0.2580536965E-02    0.5539514380E-01
    0.1100000000E+02    0.3827051658E-01    0.7530771617E-02    0.1526426095E-01    0.3067840125E-02    0.6609288139E-01
    0.1300000000E+02    0.4468770014E-01    0.8660475606E-02    0.1761829308E-01    0.3528490970E-02    0.7629442615E-01
    0.1500000000E+02    0.5095455804E-01    0.9728907274E-02    0.1986518124E-01    0.3964288412E-02    0.8603412704E-01
    0.1700000000E+02    0.5707683836E-01    0.1074012409E-01    0.2201218458E-01    0.4376875734E-02    0.9534321932E-01
    0.1900000000E+02    0.6305999272E-01    0.1169784088E-01    0.2406591833E-01    0.4767757240E-02    0.1042501701E+00
    0.2100000000E+02    0.6890919512E-01    0.1260546556E-01    0.2603242375E-01    0.5138312787E-02    0.1127809787E+00
    0.2300000000E+02    0.7462935936E-01    0.1346613047E-01    0.2791722914E-01    0.5489810504E-02    0.1209594389E+00
    0.2500000000E+02    0.8022515515E-01    0.1428271987E-01    0.2972540321E-01    0.5823417965E-02    0.1288073685E+00
    0.2700000000E+02    0.8570102313E-01    0.1505789416E-01    0.3146160196E-01    0.6140212033E-02    0.1363448102E+00
    0.2900000000E+02    0.9106118871E-01    0.1579411134E-01    0.3313010987E-01    0.6441187552E-02    0.1435902094E+00
    0.3100000000E+02    0.9630967494E-01    0.1649364593E-01    0.3473487632E-01    0.6727265049E-02    0.1505605701E+00
    0.3300000000E+02    0.1014503145E+00    0.1715860584E-01    0.3627954779E-01    0.6999297576E-02    0.1572715934E+00
    0.3500000000E+02    0.1064867610E+00    0.1779094739E-01    0.3776749636E-01    0.7258076796E-02    0.1637378003E+00
    0.3700000000E+02    0.1114224990E+00    0.1839248870E-01    0.3920184510E-01    0.7504338421E-02    0.1699726407E+00
    0.3900000000E+02    0.1162608541E+00    0.1896492166E-01    0.4058549072E-01    0.7738767071E-02    0.1759885905E+00
    0.4100000000E+02    0.1210050015E+00    0.1950982271E-01    0.4192112371E-01    0.7962000632E-02    0.1817972386E+00
    0.4300000000E+02    0.1256579748E+00    0.2002866244E-01    0.4321124640E-01    0.8174634173E-02    0.1874093645E+00
    0.4500000000E+02    0.1302226738E+00    0.2052281435E-01    0.4445818922E-01    0.8377223467E-02    0.1928350076E+00
    0.4700000000E+02    0.1347018716E+00    0.2099356266E-01    0.4566412517E-01    0.8570288174E-02    0.1980835302E+00
    0.4900000000E+02    0.1390982216E+00    0.2144210939E-01    0.4683108297E-01    0.8754314710E-02    0.2031636737E+00
    0.1000000000E+02    0.3500367036E-01    0.6941570888E-02    0.1404460180E-01    0.2827639100E-02    0.6080831563E-01
    0.3000000000E+02    0.9369914787E-01    0.1614832849E-01    0.3394022612E-01    0.6586033731E-02    0.1471087592E+00
    0.5000000000E+02    0.1412661268E+00    0.2165841192E-01    0.4740054251E-01    0.8843082224E-02    0.2056431777E+00
    0.7000000000E+02    0.1808382173E+00    0.2505778677E-01    0.5714383149E-01    0.1024062375E-01    0.2481192849E+00
    0.9000000000E+02    0.2144422400E+00    0.2716714689E-01    0.6454167836E-01    0.1111092215E-01    0.2804497160E+00
    0.1100000000E+03    0.2434497873E+00    0.2845084640E-01    0.7036201331E-01    0.1164224280E-01    0.3059477182E+00
    0.1300000000E+03    0.2688246616E+00    0.2918870219E-01    0.7506883287E-01    0.1194829786E-01    0.3266169135E+00
    0.1500000000E+03    0.2912660225E+00    0.2955738658E-01    0.7895934268E-01    0.1210110772E-01    0.3437417706E+00
    0.1700000000E+03    0.3112950527E+00    0.2967251100E-01    0.8223291455E-01    0.1214798113E-01    0.3581846572E+00
    0.1900000000E+03    0.3293095025E+00    0.2961188223E-01    0.8502840238E-01    0.1212089813E-01    0.3705466732E+00
    0.2100000000E+03    0.3456191866E+00    0.2942904559E-01    0.8744556331E-01    0.1204197680E-01    0.3812600242E+00
    0.2300000000E+03    0.3604697743E+00    0.2916151285E-01    0.8955796566E-01    0.1192679791E-01    0.3906437117E+00
    0.2500000000E+03    0.3740591510E+00    0.2883593891E-01    0.9142108949E-01    0.1178649971E-01    0.3989385004E+00
    0.2700000000E+03    0.3865489346E+00    0.2847147538E-01    0.9307758893E-01    0.1162913784E-01    0.4063296447E+00
    0.2900000000E+03    0.3980727509E+00    0.2808199817E-01    0.9456081394E-01    0.1146059071E-01    0.4129621064E+00
    0.3100000000E+03    0.4087422930E+00    0.2767761899E-01    0.9589722891E-01    0.1128517566E-01    0.4189510104E+00
    0.3300000000E+03    0.4186518336E+00    0.2726573017E-01    0.9710811207E-01    0.1110607628E-01    0.4243889946E+00
    0.3500000000E+03    0.4278816378E+00    0.2685173865E-01    0.9821077364E-01    0.1092564366E-01    0.4293514816E+00
    0.3700000000E+03    0.4365005812E+00    0.2643958899E-01    0.9921944497E-01    0.1074561190E-01    0.4339005283E+00
    0.3900000000E+03    0.4445681843E+00    0.2603214066E-01    0.1001459381E+00    0.1056725430E-01    0.4380876823E+00
    0.4100000000E+03    0.4521362123E+00    0.2563144318E-01    0.1010001420E+00    0.1039149774E-01    0.4419561334E+00
    0.4300000000E+03    0.4592499475E+00    0.2523893881E-01    0.1017904014E+00    0.1021900739E-01    0.4455423543E+00
    0.4500000000E+03    0.4659492102E+00    0.2485561306E-01    0.1025238084E+00    0.1005024991E-01    0.4488773682E+00
    0.4700000000E+03    0.4722691871E+00    0.2448210731E-01    0.1032064310E+00    0.9885541098E-02    0.4519877383E+00
    0.4900000000E+03    0.4782411083E+00    0.2411880360E-01    0.1038434926E+00    0.9725081847E-02    0.4548963484E+00
    0.1000000000E+03    0.2294528133E+00    0.2789161164E-01    0.6761498783E-01    0.1141059346E-01    0.2939057879E+00
    0.3000000000E+03    0.4035080504E+00    0.2788115540E-01    0.9524593742E-01    0.1137352016E-01    0.4160307562E+00
    0.5000000000E+03    0.4811053649E+00    0.2394104212E-01    0.1041463752E+00    0.9646484085E-02    0.4562812940E+00
    0.7000000000E+03    0.5255068249E+00    0.2090863677E-01    0.1086450238E+00    0.8298369839E-02    0.4770450106E+00
    0.9000000000E+03    0.5541552586E+00    0.1868734828E-01    0.1113881622E+00    0.7305303175E-02    0.4899494679E+00
    0.1100000000E+04    0.5740871530E+00    0.1701533497E-01    0.1132457269E+00    0.6557851631E-02    0.4988476537E+00
    0.1300000000E+04    0.5887083006E+00    0.1571380158E-01    0.1145911840E+00    0.5978066814E-02    0.5054059548E+00
    0.1500000000E+04    0.5998657584E+00    0.1466992303E-01    0.1156125831E+00    0.5515641664E-02    0.5104693663E+00
    0.1700000000E+04    0.6086452196E+00    0.1381146147E-01    0.1164153389E+00    0.5137905454E-02    0.5145147839E+00
    0.1900000000E+04    0.6157249714E+00    0.1309068142E-01    0.1170633095E+00    0.4823069101E-02    0.5178330036E+00
    0.2100000000E+04    0.6215496748E+00    0.1247497677E-01    0.1175975238E+00    0.4556162506E-02    0.5206120595E+00
    0.2300000000E+04    0.6264224645E+00    0.1194138094E-01    0.1180455910E+00    0.4326605665E-02    0.5229792754E+00
    0.2500000000E+04    0.6305568166E+00    0.1147326693E-01    0.1184267970E+00    0.4126727087E-02    0.5250241361E+00
    0.2700000000E+04    0.6341072462E+00    0.1105830193E-01    0.1187550350E+00    0.3950835516E-02    0.5268114932E+00
    0.2900000000E+04    0.6371882485E+00    0.1068714086E-01    0.1190405759E+00    0.3794622121E-02    0.5283895732E+00
    0.3100000000E+04    0.6398864055E+00    0.1035256777E-01    0.1192911816E+00    0.3654765271E-02    0.5297950344E+00
    0.3300000000E+04    0.6422683642E+00    0.1004891702E-01    0.1195128306E+00    0.3528662844E-02    0.5310562743E+00
    0.3500000000E+04    0.6443862365E+00    0.9771673652E-02    0.1197102047E+00    0.3414246858E-02    0.5321956564E+00
    0.3700000000E+04    0.6462813402E+00    0.9517191714E-02    0.1198870236E+00    0.3309852476E-02    0.5332310487E+00
    0.3900000000E+04    0.6479868442E+00    0.9282491769E-02    0.1200462812E+00    0.3214123744E-02    0.5341769121E+00
    0.4100000000E+04    0.6495296756E+00    0.9065112827E-02    0.1201904150E+00    0.3125944599E-02    0.5350450847E+00
    0.4300000000E+04    0.6509319163E+00    0.8863002333E-02    0.1203214302E+00    0.3044387608E-02    0.5358453572E+00
    0.4500000000E+04    0.6522118422E+00    0.8674433249E-02    0.1204409919E+00    0.2968675347E-02    0.5365859029E+00
    0.4700000000E+04    0.6533847062E+00    0.8497940722E-02    0.1205504941E+00    0.2898150923E-02    0.5372736020E+00
    0.4900000000E+04    0.6544633363E+00    0.8332273127E-02    0.1206511134E+00    0.2832255212E-02    0.5379142915E+00
    0.1000000000E+04    0.5649468295E+00    0.1779576007E-01    0.1123979802E+00    0.6906527884E-02    0.4947672558E+00
    0.3000000000E+04    0.6385806231E+00    0.1051566588E-01    0.1191698368E+00    0.3722826132E-02    0.5291119428E+00
    0.5000000000E+04    0.6549707753E+00    0.8253156259E-02    0.1206984104E+00    0.2800890680E-02    0.5382185945E+00
    0.7000000000E+04    0.6621034946E+00    0.7042413515E-02    0.1213567897E+00    0.2329691218E-02    0.5427367449E+00
    0.9000000000E+04    0.6660845160E+00    0.6256202296E-02    0.1217111615E+00    0.2032920055E-02    0.5455265531E+00
    0.1100000000E+05    0.6686224292E+00    0.5691627047E-02    0.1219248155E+00    0.1824461655E-02    0.5474585643E+00
    0.1300000000E+05    0.6703807915E+00    0.5260250562E-02    0.1220624391E+00    0.1667858736E-02    0.5488950023E+00
    0.1500000000E+05    0.6716706909E+00    0.4916428444E-02    0.1221547190E+00    0.1544723189E-02    0.5500158841E+00
    0.1700000000E+05    0.6726572234E+00    0.4633859010E-02    0.1222180359E+00    0.1444654938E-02    0.5509217164E+00
    0.1900000000E+05    0.6734361030E+00    0.4396157702E-02    0.1222618979E+00    0.1361274644E-02    0.5516734506E+00
    0.2100000000E+05    0.6740666290E+00    0.4192505576E-02    0.1222921807E+00    0.1290424647E-02    0.5523104129E+00
    0.2300000000E+05    0.6745874928E+00    0.4015427908E-02    0.1223126969E+00    0.1229264579E-02    0.5528592306E+00
    0.2500000000E+05    0.6750250119E+00    0.3859569914E-02    0.1223260185E+00    0.1175779509E-02    0.5533386436E+00
    0.2700000000E+05    0.6753977086E+00    0.3720979929E-02    0.1223339366E+00    0.1128495313E-02    0.5537622652E+00
    0.2900000000E+05    0.6757189968E+00    0.3596668583E-02    0.1223377320E+00    0.1086305431E-02    0.5541402502E+00
    0.3100000000E+05    0.6759988285E+00    0.3484326471E-02    0.1223383413E+00    0.1048360936E-02    0.5544803447E+00
    0.3300000000E+05    0.6762447433E+00    0.3382137014E-02    0.1223364627E+00    0.1013998265E-02    0.5547885731E+00
    0.3500000000E+05    0.6764625571E+00    0.3288648737E-02    0.1223326249E+00    0.9826902728E-03    0.5550696992E+00
    0.3700000000E+05    0.6766568281E+00    0.3202685857E-02    0.1223272343E+00    0.9540121994E-03    0.5553275459E+00
    0.3900000000E+05    0.6768311792E+00    0.3123284294E-02    0.1223206072E+00    0.9276174643E-03    0.5555652211E+00
    0.4100000000E+05    0.6769885264E+00    0.3049644961E-02    0.1223129922E+00    0.9032201062E-03    0.5557852802E+00
    0.4300000000E+05    0.6771312428E+00    0.2981099088E-02    0.1223045870E+00    0.8805818105E-03    0.5559898466E+00
    0.4500000000E+05    0.6772612798E+00    0.2917082064E-02    0.1222955497E+00    0.8595021751E-03    0.5561807010E+00
    0.4700000000E+05    0.6773802563E+00    0.2857113425E-02    0.1222860080E+00    0.8398113003E-03    0.5563593494E+00
    0.4900000000E+05    0.6774895269E+00    0.2800781367E-02    0.1222760658E+00    0.8213640740E-03    0.5565270752E+00
    0.1000000000E+05    0.6674800287E+00    0.5953190667E-02    0.1218303503E+00    0.1920549149E-02    0.5465708748E+00
    0.3000000000E+05    0.6758635764E+00    0.3539124735E-02    0.1223383866E+00    0.1066847665E-02    0.5543146231E+00
    0.5000000000E+05    0.6775408865E+00    0.2773866096E-02    0.1222709716E+00    0.8125671416E-03    0.5566071924E+00
    0.7000000000E+05    0.6782601733E+00    0.2361249626E-02    0.1221621117E+00    0.6791366829E-03    0.5578365980E+00
    0.9000000000E+05    0.6786601350E+00    0.2093100314E-02    0.1220550985E+00    0.5939397923E-03    0.5586420781E+00
    0.1100000000E+06    0.6789149102E+00    0.1900764486E-02    0.1219565115E+00    0.5336259177E-03    0.5592272409E+00
    0.1300000000E+06    0.6790914749E+00    0.1754054436E-02    0.1218667172E+00    0.4880970758E-03    0.5596801005E+00
    0.1500000000E+06    0.6792210896E+00    0.1637329200E-02    0.1217848276E+00    0.4521861654E-03    0.5600458591E+00
    0.1700000000E+06    0.6793203081E+00    0.1541562466E-02    0.1217097925E+00    0.4229409744E-03    0.5603504927E+00
    0.1900000000E+06    0.6793987174E+00    0.1461129760E-02    0.1216406586E+00    0.3985372338E-03    0.5606101654E+00
    0.2100000000E+06    0.6794622543E+00    0.1392318542E-02    0.1215766180E+00    0.3777794184E-03    0.5608355516E+00
    0.2300000000E+06    0.6795147921E+00    0.1332565699E-02    0.1215169986E+00    0.3598473260E-03    0.5610340340E+00
    0.2500000000E+06    0.6795589656E+00    0.1280036714E-02    0.1214612438E+00    0.3441571898E-03    0.5612109103E+00
    0.2700000000E+06    0.6795966298E+00    0.1233379115E-02    0.1214088905E+00    0.3302808058E-03    0.5613700991E+00
    0.2900000000E+06    0.6796291284E+00    0.1191570830E-02    0.1213595513E+00    0.3178960633E-03    0.5615145728E+00
    0.3100000000E+06    0.6796574588E+00    0.1153823083E-02    0.1213128997E+00    0.3067554229E-03    0.5616466347E+00
    0.3300000000E+06    0.6796823770E+00    0.1119516046E-02    0.1212686586E+00    0.2966651246E-03    0.5617681024E+00
    0.3500000000E+06    0.6797044662E+00    0.1088154956E-02    0.1212265908E+00    0.2874710633E-03    0.5618804335E+00
    0.3700000000E+06    0.6797241840E+00    0.1059339405E-02    0.1211864924E+00    0.2790489449E-03    0.5619848129E+00
    0.3900000000E+06    0.6797418940E+00    0.1032741375E-02    0.1211481864E+00    0.2712972705E-03    0.5620822160E+00
    0.4100000000E+06    0.6797578892E+00    0.1008089227E-02    0.1211115186E+00    0.2641322371E-03    0.5621734542E+00
    0.4300000000E+06    0.6797724080E+00    0.9851558082E-03    0.1210763538E+00    0.2574839646E-03    0.5622592094E+00
    0.4500000000E+06    0.6797856466E+00    0.9637494962E-03    0.1210425728E+00    0.2512936614E-03    0.5623400597E+00
    0.4700000000E+06    0.6797977679E+00    0.9437073530E-03    0.1210100701E+00    0.2455114636E-03    0.5624164989E+00
    0.4900000000E+06    0.6798089081E+00    0.9248898249E-03    0.1209787516E+00    0.2400947675E-03    0.5624889520E+00
    0.1000000000E+06    0.6788002293E+00    0.1989835074E-02    0.1220046748E+00    0.5614713894E-03    0.5589552406E+00
    0.3000000000E+06    0.6796437627E+00    0.1172231496E-02    0.1213359079E+00    0.3121834099E-03    0.5615820319E+00
    0.5000000000E+06    0.6798141470E+00    0.9159020353E-03    0.1209635098E+00    0.2375118276E-03    0.5625238007E+00
    0.7000000000E+06    0.6798877377E+00    0.7783742114E-03    0.1207044768E+00    0.1983482374E-03    0.5630796334E+00
    0.9000000000E+06    0.6799288961E+00    0.6892563174E-03    0.1205053826E+00    0.1733616152E-03    0.5634678430E+00
    0.1100000000E+07    0.6799552459E+00    0.6254585024E-03    0.1203434913E+00    0.1556853661E-03    0.5637635826E+00
    0.1300000000E+07    0.6799735889E+00    0.5768633679E-03    0.1202069870E+00    0.1423503193E-03    0.5640011892E+00
    0.1500000000E+07    0.6799871097E+00    0.5382419801E-03    0.1200889317E+00    0.1318377385E-03    0.5641990777E+00
    0.1700000000E+07    0.6799974991E+00    0.5065825108E-03    0.1199848996E+00    0.1232802826E-03    0.5643682139E+00
    0.1900000000E+07    0.6800057389E+00    0.4800110707E-03    0.1198918919E+00    0.1161422298E-03    0.5645156304E+00
    0.2100000000E+07    0.6800124382E+00    0.4572922968E-03    0.1198077821E+00    0.1100726448E-03    0.5646460944E+00
    0.2300000000E+07    0.6800179956E+00    0.4375741854E-03    0.1197310069E+00    0.1048308584E-03    0.5647629793E+00
    0.2500000000E+07    0.6800226824E+00    0.4202474638E-03    0.1196603826E+00    0.1002456393E-03    0.5648687566E+00
    0.2700000000E+07    0.6800266904E+00    0.4048632964E-03    0.1195949918E+00    0.9619142744E-04    0.5649652880E+00
    0.2900000000E+07    0.6800301584E+00    0.3910827219E-03    0.1195341085E+00    0.9257380080E-04    0.5650540100E+00
    0.3100000000E+07    0.6800331898E+00    0.3786443031E-03    0.1194771485E+00    0.8932021711E-04    0.5651360527E+00
    0.3300000000E+07    0.6800358631E+00    0.3673427093E-03    0.1194236344E+00    0.8637390914E-04    0.5652123209E+00
    0.3500000000E+07    0.6800382390E+00    0.3570141168E-03    0.1193731713E+00    0.8368973849E-04    0.5652835496E+00
    0.3700000000E+07    0.6800403650E+00    0.3475260011E-03    0.1193254286E+00    0.8123130677E-04    0.5653503437E+00
    0.3900000000E+07    0.6800422791E+00    0.3387698399E-03    0.1192801268E+00    0.7896889718E-04    0.5654132068E+00
    0.4100000000E+07    0.6800440120E+00    0.3306557942E-03    0.1192370276E+00    0.7687797866E-04    0.5654725625E+00
    0.4300000000E+07    0.6800455885E+00    0.3231087633E-03    0.1191959258E+00    0.7493809953E-04    0.5655287702E+00
    0.4500000000E+07    0.6800470291E+00    0.3160654127E-03    0.1191566439E+00    0.7313205627E-04    0.5655821376E+00
    0.4700000000E+07    0.6800483511E+00    0.3094719033E-03    0.1191190270E+00    0.7144526020E-04    0.5656329299E+00
    0.4900000000E+07    0.6800495687E+00    0.3032821349E-03    0.1190829392E+00    0.6986524859E-04    0.5656813772E+00
    0.1000000000E+07    0.6799433699E+00    0.6549904574E-03    0.1204206821E+00    0.1638446238E-03    0.5636245919E+00
    0.3000000000E+07    0.6800317233E+00    0.3847096940E-03    0.1195051701E+00    0.9090536520E-04    0.5650958052E+00
    0.5000000000E+07    0.6800501421E+00    0.3003260188E-03    0.1190654307E+00    0.6911187800E-04    0.5657047853E+00
    0.7000000000E+07    0.6800582721E+00    0.2551160285E-03    0.1187726614E+00    0.5769334933E-04    0.5660875558E+00
    0.9000000000E+07    0.6800629008E+00    0.2258429791E-03    0.1185527398E+00    0.5041264228E-04    0.5663655626E+00
    0.1100000000E+08    0.6800659102E+00    0.2048977612E-03    0.1183765029E+00    0.4526417760E-04    0.5665832981E+00
    0.1300000000E+08    0.6800680343E+00    0.1889496088E-03    0.1182294233E+00    0.4138133015E-04    0.5667619580E+00
    0.1500000000E+08    0.6800696197E+00    0.1762782843E-03    0.1181032017E+00    0.3832104078E-04    0.5669132707E+00
    0.1700000000E+08    0.6800708522E+00    0.1658934523E-03    0.1179926470E+00    0.3583037794E-04    0.5670443959E+00
    0.1900000000E+08    0.6800718402E+00    0.1571791966E-03    0.1178942940E+00    0.3375316384E-04    0.5671600197E+00
    0.2100000000E+08    0.6800726516E+00    0.1497296058E-03    0.1178057145E+00    0.3198711688E-04    0.5672633743E+00
    0.2300000000E+08    0.6800733312E+00    0.1432648073E-03    0.1177251400E+00    0.3046210800E-04    0.5673567812E+00
    0.2500000000E+08    0.6800739095E+00    0.1375847086E-03    0.1176512427E+00    0.2912825088E-04    0.5674419635E+00
    0.2700000000E+08    0.6800744083E+00    0.1325419357E-03    0.1175830003E+00    0.2794897089E-04    0.5675202345E+00
