  Pressure (Pa) 22mC5-400 (mol/kg) 2mC6-400 (mol/kg) 3mC6-400 (mol/kg) 33mC5-400 (mol/kg) C7-400 (mol/kg)
    0.1000000000E+01    0.3700319403E-02    0.2363512979E-02    0.2091870822E-02    0.6415119435E-04    0.8486537186E-02
    0.3000000000E+01    0.1093088105E-01    0.6819598502E-02    0.6052943805E-02    0.1851346335E-03    0.2456040267E-01
    0.5000000000E+01    0.1794459636E-01    0.1094472141E-01    0.9743098106E-02    0.2971781605E-03    0.3954005415E-01
    0.7000000000E+01    0.2475263844E-01    0.1477107001E-01    0.1318979405E-01    0.4011515245E-03    0.5353623197E-01
    0.9000000000E+01    0.3136540605E-01    0.1832676550E-01    0.1641688275E-01    0.4978143766E-03    0.6664513274E-01
    0.1100000000E+02    0.3779258935E-01    0.2163649443E-01    0.1944518112E-01    0.5878334177E-03    0.7895072524E-01
    0.1300000000E+02    0.4404322922E-01    0.2472202539E-01    0.2229294024E-01    0.6717964037E-03    0.9052663716E-01
    0.1500000000E+02    0.5012577064E-01    0.2760263410E-01    0.2497622961E-01    0.7502236648E-03    0.1014377028E+00
    0.1700000000E+02    0.5604811099E-01    0.3029545535E-01    0.2750925425E-01    0.8235776422E-03    0.1117412405E+00
    0.1900000000E+02    0.6181764371E-01    0.3281577632E-01    0.2990461802E-01    0.8922708316E-03    0.1214881140E+00
    0.2100000000E+02    0.6744129787E-01    0.3517728232E-01    0.3217354358E-01    0.9566724381E-03    0.1307236179E+00
    0.2300000000E+02    0.7292557413E-01    0.3739226385E-01    0.3432605695E-01    0.1017113982E-02    0.1394882222E+00
    0.2500000000E+02    0.7827657736E-01    0.3947179200E-01    0.3637114325E-01    0.1073894047E-02    0.1478181991E+00
    0.2700000000E+02    0.8350004640E-01    0.4142586760E-01    0.3831687875E-01    0.1127282314E-02    0.1557461558E+00
    0.2900000000E+02    0.8860138111E-01    0.4326354888E-01    0.4017054325E-01    0.1177523016E-02    0.1633014871E+00
    0.3100000000E+02    0.9358566714E-01    0.4499306091E-01    0.4193871616E-01    0.1224837900E-02    0.1705107628E+00
    0.3300000000E+02    0.9845769855E-01    0.4662189008E-01    0.4362735905E-01    0.1269428777E-02    0.1773980602E+00
    0.3500000000E+02    0.1032219984E+00    0.4815686576E-01    0.4524188671E-01    0.1311479734E-02    0.1839852509E+00
    0.3700000000E+02    0.1078828380E+00    0.4960423131E-01    0.4678722866E-01    0.1351159050E-02    0.1902922488E+00
    0.3900000000E+02    0.1124442538E+00    0.5096970592E-01    0.4826788248E-01    0.1388620868E-02    0.1963372245E+00
    0.4100000000E+02    0.1169100639E+00    0.5225853871E-01    0.4968796030E-01    0.1424006659E-02    0.2021367936E+00
    0.4300000000E+02    0.1212838823E+00    0.5347555622E-01    0.5105122937E-01    0.1457446500E-02    0.2077061798E+00
    0.4500000000E+02    0.1255691329E+00    0.5462520416E-01    0.5236114761E-01    0.1489060203E-02    0.2130593582E+00
    0.4700000000E+02    0.1297690614E+00    0.5571158427E-01    0.5362089487E-01    0.1518958312E-02    0.2182091816E+00
    0.4900000000E+02    0.1338867474E+00    0.5673848695E-01    0.5483340040E-01    0.1547242983E-02    0.2231674912E+00
    0.1000000000E+02    0.3460161612E-01    0.2001095224E-01    0.1795468476E-01    0.5436159343E-03    0.7289351802E-01
    0.3000000000E+02    0.9110784900E-01    0.4414134185E-01    0.4106492996E-01    0.1201533133E-02    0.1669478222E+00
    0.5000000000E+02    0.1359156689E+00    0.5723074082E-01    0.5542279045E-01    0.1560810102E-02    0.2255782766E+00
    0.7000000000E+02    0.1728137830E+00    0.6467970463E-01    0.6528716736E-01    0.1767028841E-02    0.2659909656E+00
    0.9000000000E+02    0.2040538751E+00    0.6893337812E-01    0.7252606504E-01    0.1886119259E-02    0.2957414683E+00
    0.1100000000E+03    0.2310634808E+00    0.7125462056E-01    0.7809105960E-01    0.1952186164E-02    0.3186830119E+00
    0.1300000000E+03    0.2547958049E+00    0.7235523636E-01    0.8251946145E-01    0.1984504930E-02    0.3369937475E+00
    0.1500000000E+03    0.2759150672E+00    0.7266217543E-01    0.8613845669E-01    0.1994680686E-02    0.3520014731E+00
    0.1700000000E+03    0.2949009665E+00    0.7244365763E-01    0.8915914428E-01    0.1990038554E-02    0.3645638029E+00
    0.1900000000E+03    0.3121106369E+00    0.7187425802E-01    0.9172410479E-01    0.1975373258E-02    0.3752606055E+00
    0.2100000000E+03    0.3278170035E+00    0.7107076990E-01    0.9393328544E-01    0.1953913766E-02    0.3844987919E+00
    0.2300000000E+03    0.3422334120E+00    0.7011302250E-01    0.9585893693E-01    0.1927883880E-02    0.3925728215E+00
    0.2500000000E+03    0.3555299551E+00    0.6905648879E-01    0.9755465842E-01    0.1898842299E-02    0.3997013660E+00
    0.2700000000E+03    0.3678446001E+00    0.6794019490E-01    0.9906110083E-01    0.1867896416E-02    0.4060504419E+00
    0.2900000000E+03    0.3792909626E+00    0.6679183162E-01    0.1004096884E+00    0.1835840850E-02    0.4117485157E+00
    0.3100000000E+03    0.3899638588E+00    0.6563114245E-01    0.1016251204E+00    0.1803249551E-02    0.4168966634E+00
    0.3300000000E+03    0.3999433502E+00    0.6447221860E-01    0.1027270962E+00    0.1770538434E-02    0.4215755813E+00
    0.3500000000E+03    0.4092977451E+00    0.6332508330E-01    0.1037315327E+00    0.1738008780E-02    0.4258505356E+00
    0.3700000000E+03    0.4180858622E+00    0.6219680345E-01    0.1046514400E+00    0.1705877845E-02    0.4297749268E+00
    0.3900000000E+03    0.4263587634E+00    0.6109228092E-01    0.1054975636E+00    0.1674300754E-02    0.4333929022E+00
    0.4100000000E+03    0.4341611001E+00    0.6001482283E-01    0.1062788618E+00    0.1643386375E-02    0.4367413036E+00
    0.4300000000E+03    0.4415321719E+00    0.5896655700E-01    0.1070028670E+00    0.1613208958E-02    0.4398511380E+00
    0.4500000000E+03    0.4485067692E+00    0.5794873760E-01    0.1076759621E+00    0.1583816749E-02    0.4427487048E+00
    0.4700000000E+03    0.4551158516E+00    0.5696197158E-01    0.1083035940E+00    0.1555238432E-02    0.4454564690E+00
    0.4900000000E+03    0.4613870991E+00    0.5600638789E-01    0.1088904416E+00    0.1527487975E-02    0.4479937454E+00
    0.1000000000E+03    0.2180194980E+00    0.7028225687E-01    0.7547768621E-01    0.1924338846E-02    0.3079007994E+00
    0.3000000000E+03    0.3847187837E+00    0.6621203594E-01    0.1010327167E+00    0.1819583052E-02    0.4143858752E+00
    0.5000000000E+03    0.4644039010E+00    0.5554023093E-01    0.1091698565E+00    0.1513924457E-02    0.4492037609E+00
    0.7000000000E+03    0.5118896449E+00    0.4770260423E-01    0.1133601201E+00    0.1283557365E-02    0.4675294617E+00
    0.9000000000E+03    0.5431698179E+00    0.4207912785E-01    0.1159675632E+00    0.1116066608E-02    0.4791563252E+00
    0.1100000000E+04    0.5651520645E+00    0.3791424013E-01    0.1177669268E+00    0.9913003551E-03    0.4873240443E+00
    0.1300000000E+04    0.5813455710E+00    0.3471902635E-01    0.1190928709E+00    0.8954837095E-03    0.4934438418E+00
    0.1500000000E+04    0.5937154083E+00    0.3219023971E-01    0.1201154015E+00    0.8198064186E-03    0.4982381794E+00
    0.1700000000E+04    0.6034411036E+00    0.3013569988E-01    0.1209307318E+00    0.7585693862E-03    0.5021189059E+00
    0.1900000000E+04    0.6112697038E+00    0.2842951428E-01    0.1215977049E+00    0.7079849719E-03    0.5053396421E+00
    0.2100000000E+04    0.6176952817E+00    0.2698641626E-01    0.1221544797E+00    0.6654612260E-03    0.5080659423E+00
    0.2300000000E+04    0.6230565280E+00    0.2574685414E-01    0.1226269631E+00    0.6291746094E-03    0.5104109194E+00
    0.2500000000E+04    0.6275927455E+00    0.2466807785E-01    0.1230334065E+00    0.5978094617E-03    0.5124547481E+00
    0.2700000000E+04    0.6314774442E+00    0.2371864248E-01    0.1233870647E+00    0.5703948755E-03    0.5142560001E+00
    0.2900000000E+04    0.6348392769E+00    0.2287491517E-01    0.1236978124E+00    0.5461997763E-03    0.5158585630E+00
    0.3100000000E+04    0.6377755186E+00    0.2211879202E-01    0.1239731677E+00    0.5246636900E-03    0.5172960370E+00
    0.3300000000E+04    0.6403609968E+00    0.2143616717E-01    0.1242189618E+00    0.5053499640E-03    0.5185946278E+00
    0.3500000000E+04    0.6426541572E+00    0.2081588217E-01    0.1244397921E+00    0.4879134656E-03    0.5197751056E+00
    0.3700000000E+04    0.6447012771E+00    0.2024898938E-01    0.1246393350E+00    0.4720778295E-03    0.5208541680E+00
    0.3900000000E+04    0.6465394503E+00    0.1972822581E-01    0.1248205680E+00    0.4576191398E-03    0.5218454073E+00
    0.4100000000E+04    0.6481987404E+00    0.1924763046E-01    0.1249859298E+00    0.4443540309E-03    0.5227600125E+00
    0.4300000000E+04    0.6497037586E+00    0.1880226171E-01    0.1251374380E+00    0.4321308786E-03    0.5236072869E+00
    0.4500000000E+04    0.6510748375E+00    0.1838798554E-01    0.1252767774E+00    0.4208231888E-03    0.5243950365E+00
    0.4700000000E+04    0.6523289160E+00    0.1800131460E-01    0.1254053662E+00    0.4103245705E-03    0.5251298644E+00
    0.4900000000E+04    0.6534802146E+00    0.1763928457E-01    0.1255244076E+00    0.4005448699E-03    0.5258173985E+00
    0.1000000000E+04    0.5550541460E+00    0.3985037757E-01    0.1169417358E+00    0.1049346093E-02    0.4835609921E+00
    0.3000000000E+04    0.6363554759E+00    0.2248686423E-01    0.1238395163E+00    0.5351291146E-03    0.5165961515E+00
    0.5000000000E+04    0.6540211525E+00    0.1746670245E-01    0.1255806751E+00    0.3959001265E-03    0.5261449667E+00
    0.7000000000E+04    0.6615740867E+00    0.1484886427E-01    0.1263901549E+00    0.3268956504E-03    0.5310919479E+00
    0.9000000000E+04    0.6657437222E+00    0.1316931126E-01    0.1268562402E+00    0.2841503130E-03    0.5342340631E+00
    0.1100000000E+05    0.6683823956E+00    0.1197113195E-01    0.1271564273E+00    0.2544267410E-03    0.5364550682E+00
    0.1300000000E+05    0.6702009668E+00    0.1105924527E-01    0.1273635571E+00    0.2322453614E-03    0.5381325639E+00
    0.1500000000E+05    0.6715297747E+00    0.1033427942E-01    0.1275132403E+00    0.2148852682E-03    0.5394581021E+00
    0.1700000000E+05    0.6725429503E+00    0.9739481177E-02    0.1276250046E+00    0.2008250053E-03    0.5405404294E+00
    0.1900000000E+05    0.6733409067E+00    0.9239719423E-02    0.1277104694E+00    0.1891393443E-03    0.5414464235E+00
    0.2100000000E+05    0.6739855847E+00    0.8811904579E-02    0.1277769852E+00    0.1792293198E-03    0.5422197542E+00
    0.2300000000E+05    0.6745172548E+00    0.8440140511E-02    0.1278294293E+00    0.1706879245E-03    0.5428903007E+00
    0.2500000000E+05    0.6749632257E+00    0.8113070607E-02    0.1278711641E+00    0.1632276843E-03    0.5434792856E+00
    0.2700000000E+05    0.6753426679E+00    0.7822332122E-02    0.1279045816E+00    0.1566390350E-03    0.5440022533E+00
    0.2900000000E+05    0.6756694336E+00    0.7561609729E-02    0.1279314285E+00    0.1507651368E-03    0.5444708846E+00
    0.3100000000E+05    0.6759537806E+00    0.7326031439E-02    0.1279530092E+00    0.1454859695E-03    0.5448941499E+00
    0.3300000000E+05    0.6762034664E+00    0.7111769359E-02    0.1279703164E+00    0.1407079220E-03    0.5452790679E+00
    0.3500000000E+05    0.6764244663E+00    0.6915767864E-02    0.1279841179E+00    0.1363567665E-03    0.5456312203E+00
    0.3700000000E+05    0.6766214569E+00    0.6735553684E-02    0.1279950168E+00    0.1323727882E-03    0.5459551090E+00
    0.3900000000E+05    0.6767981509E+00    0.6569100220E-02    0.1280034924E+00    0.1287073318E-03    0.5462544113E+00
    0.4100000000E+05    0.6769575332E+00    0.6414728664E-02    0.1280099303E+00    0.1253203022E-03    0.5465321645E+00
    0.4300000000E+05    0.6771020306E+00    0.6271034661E-02    0.1280146436E+00    0.1221783210E-03    0.5467909026E+00
    0.4500000000E+05    0.6772336369E+00    0.6136833065E-02    0.1280178892E+00    0.1192533475E-03    0.5470327588E+00
    0.4700000000E+05    0.6773540046E+00    0.6011115717E-02    0.1280198794E+00    0.1165216293E-03    0.5472595436E+00
    0.4900000000E+05    0.6774645156E+00    0.5893018780E-02    0.1280207908E+00    0.1139628953E-03    0.5474728051E+00
    0.1000000000E+05    0.6671966118E+00    0.1252551266E-01    0.1270212333E+00    0.2680983759E-03    0.5354297506E+00
    0.3000000000E+05    0.6758163758E+00    0.7440937613E-02    0.1279428090E+00    0.1480575862E-03    0.5446877105E+00
    0.5000000000E+05    0.6775164460E+00    0.5836591068E-02    0.1280208893E+00    0.1127428568E-03    0.5475747885E+00
    0.7000000000E+05    0.6782429218E+00    0.4971356868E-02    0.1279920629E+00    0.9424664295E-04    0.5491483836E+00
    0.9000000000E+05    0.6786462683E+00    0.4408773050E-02    0.1279372686E+00    0.8244222581E-04    0.5501868305E+00
    0.1100000000E+06    0.6789030015E+00    0.4005049273E-02    0.1278760617E+00    0.7408617356E-04    0.5509438084E+00
    0.1300000000E+06    0.6790808495E+00    0.3696963675E-02    0.1278146429E+00    0.6777813398E-04    0.5515304919E+00
    0.1500000000E+06    0.6792113777E+00    0.3451753354E-02    0.1277551868E+00    0.6280211818E-04    0.5520045066E+00
    0.1700000000E+06    0.6793112857E+00    0.3250506055E-02    0.1276984249E+00    0.5874921578E-04    0.5523991868E+00
    0.1900000000E+06    0.6793902379E+00    0.3081433869E-02    0.1276445204E+00    0.5536680174E-04    0.5527353766E+00
    0.2100000000E+06    0.6794542164E+00    0.2936753837E-02    0.1275934044E+00    0.5248933664E-04    0.5530268920E+00
    0.2300000000E+06    0.6795071226E+00    0.2811091245E-02    0.1275449163E+00    0.5000325467E-04    0.5532833154E+00
    0.2500000000E+06    0.6795516097E+00    0.2700598264E-02    0.1274988659E+00    0.4782772668E-04    0.5535115385E+00
    0.2700000000E+06    0.6795895451E+00    0.2602437486E-02    0.1274550602E+00    0.4590346115E-04    0.5537166674E+00
    0.2900000000E+06    0.6796222816E+00    0.2514464204E-02    0.1274133160E+00    0.4418585477E-04    0.5539025806E+00
    0.3100000000E+06    0.6796508230E+00    0.2435022923E-02    0.1273734643E+00    0.4264062828E-04    0.5540722866E+00
    0.3300000000E+06    0.6796759300E+00    0.2362812502E-02    0.1273353515E+00    0.4124094808E-04    0.5542281613E+00
    0.3500000000E+06    0.6796981897E+00    0.2296794152E-02    0.1272988390E+00    0.3996547090E-04    0.5543721112E+00
    0.3700000000E+06    0.6797180625E+00    0.2236127050E-02    0.1272638026E+00    0.3879698100E-04    0.5545056867E+00
    0.3900000000E+06    0.6797359143E+00    0.2180122284E-02    0.1272301303E+00    0.3772141901E-04    0.5546301645E+00
    0.4100000000E+06    0.6797520399E+00    0.2128209262E-02    0.1271977218E+00    0.3672717588E-04    0.5547466070E+00
    0.4300000000E+06    0.6797666792E+00    0.2079910777E-02    0.1271664869E+00    0.3580457062E-04    0.5548559070E+00
    0.4500000000E+06    0.6797800297E+00    0.2034824213E-02    0.1271363442E+00    0.3494545782E-04    0.5549588210E+00
    0.4700000000E+06    0.6797922552E+00    0.1992607180E-02    0.1271072201E+00    0.3414292853E-04    0.5550559958E+00
    0.4900000000E+06    0.6798034929E+00    0.1952966390E-02    0.1270790483E+00    0.3339107933E-04    0.5551479875E+00
    0.1000000000E+06    0.6787874564E+00    0.4192036544E-02    0.1279069319E+00    0.7794397464E-04    0.5505917388E+00
    0.3000000000E+06    0.6796370244E+00    0.2473765448E-02    0.1273931636E+00    0.4339351921E-04    0.5539892984E+00
    0.5000000000E+06    0.6798087782E+00    0.1934031679E-02    0.1270653004E+00    0.3303254469E-04    0.5551921929E+00
    0.7000000000E+06    0.6798830719E+00    0.1644206178E-02    0.1268282687E+00    0.2759488092E-04    0.5558933074E+00
    0.9000000000E+06    0.6799246824E+00    0.1456302775E-02    0.1266423563E+00    0.2412412457E-04    0.5563780314E+00
    0.1100000000E+07    0.6799513563E+00    0.1321737726E-02    0.1264892094E+00    0.2166804715E-04    0.5567442114E+00
    0.1300000000E+07    0.6799699474E+00    0.1219210886E-02    0.1263588831E+00    0.1981472527E-04    0.5570363368E+00
    0.1500000000E+07    0.6799836665E+00    0.1137709238E-02    0.1262453820E+00    0.1835339105E-04    0.5572781536E+00
    0.1700000000E+07    0.6799942195E+00    0.1070887316E-02    0.1261448099E+00    0.1716364467E-04    0.5574837384E+00
    0.1900000000E+07    0.6800025972E+00    0.1014796085E-02    0.1260544898E+00    0.1617110383E-04    0.5576620805E+00
    0.2100000000E+07    0.6800094152E+00    0.9668315664E-03    0.1259725025E+00    0.1532703384E-04    0.5578192493E+00
    0.2300000000E+07    0.6800150761E+00    0.9251975160E-03    0.1258974240E+00    0.1459800741E-04    0.5579595246E+00
    0.2500000000E+07    0.6800198543E+00    0.8886092192E-03    0.1258281685E+00    0.1396023834E-04    0.5580860303E+00
    0.2700000000E+07    0.6800239437E+00    0.8561201248E-03    0.1257638887E+00    0.1339628258E-04    0.5582011126E+00
    0.2900000000E+07    0.6800274851E+00    0.8270153044E-03    0.1257039106E+00    0.1289302057E-04    0.5583065762E+00
    0.3100000000E+07    0.6800305829E+00    0.8007432783E-03    0.1256476890E+00    0.1244037189E-04    0.5584038368E+00
    0.3300000000E+07    0.6800333168E+00    0.7768708742E-03    0.1255947769E+00    0.1203044742E-04    0.5584940248E+00
    0.3500000000E+07    0.6800357483E+00    0.7550524512E-03    0.1255448028E+00    0.1165697365E-04    0.5585780561E+00
    0.3700000000E+07    0.6800379255E+00    0.7350083805E-03    0.1254974546E+00    0.1131489138E-04    0.5586566829E+00
    0.3900000000E+07    0.6800398871E+00    0.7165096602E-03    0.1254524679E+00    0.1100006982E-04    0.5587305297E+00
    0.4100000000E+07    0.6800416640E+00    0.6993666997E-03    0.1254096163E+00    0.1070909881E-04    0.5588001208E+00
    0.4300000000E+07    0.6800432816E+00    0.6834210002E-03    0.1253687046E+00    0.1043913507E-04    0.5588659001E+00
    0.4500000000E+07    0.6800447608E+00    0.6685388864E-03    0.1253295635E+00    0.1018778681E-04    0.5589282469E+00
    0.4700000000E+07    0.6800461189E+00    0.6546067180E-03    0.1252920449E+00    0.9953025607E-05    0.5589874874E+00
    0.4900000000E+07    0.6800473704E+00    0.6415271837E-03    0.1252560185E+00    0.9733118588E-05    0.5590439043E+00
    0.1000000000E+07    0.6799393301E+00    0.1384032894E-02    0.1265624340E+00    0.2280184047E-04    0.5565724628E+00
    0.3000000000E+07    0.6800290840E+00    0.8135546226E-03    0.1256753602E+00    0.1266090621E-04    0.5583561555E+00
    0.5000000000E+07    0.6800479602E+00    0.6352804826E-03    0.1252385284E+00    0.9628261373E-05    0.5590711321E+00
    0.7000000000E+07    0.6800563415E+00    0.5397319032E-03    0.1249450416E+00    0.8038771649E-05    0.5595135467E+00
    0.9000000000E+07    0.6800611357E+00    0.4778514418E-03    0.1247234357E+00    0.7025062289E-05    0.5598316331E+00
    0.1100000000E+08    0.6800642649E+00    0.4335684445E-03    0.1245452311E+00    0.6308123378E-05    0.5600789355E+00
    0.1300000000E+08    0.6800664811E+00    0.3998464988E-03    0.1243961308E+00    0.5767364684E-05    0.5602807068E+00
    0.1500000000E+08    0.6800681403E+00    0.3730508693E-03    0.1242679231E+00    0.5341124469E-05    0.5604508126E+00
    0.1700000000E+08    0.6800694336E+00    0.3510887615E-03    0.1241554511E+00    0.4994196955E-05    0.5605976639E+00
    0.1900000000E+08    0.6800704729E+00    0.3326584659E-03    0.1240552616E+00    0.4704841308E-05    0.5607267370E+00
    0.2100000000E+08    0.6800713284E+00    0.3169020294E-03    0.1239649282E+00    0.4458818090E-05    0.5608417920E+00
    0.2300000000E+08    0.6800720464E+00    0.3032278531E-03    0.1238826802E+00    0.4246363334E-05    0.5609455190E+00
    0.2500000000E+08    0.6800726585E+00    0.2912129499E-03    0.1238071856E+00    0.4060530988E-05    0.5610399074E+00
    0.2700000000E+08    0.6800731874E+00    0.2805457586E-03    0.1237374169E+00    0.3896228191E-05    0.5611264691E+00
