  Pressure (Pa) 22mC5-400 (mol/kg) 2mC6-400 (mol/kg) 3mC6-400 (mol/kg) 33mC5-400 (mol/kg) C7-400 (mol/kg)
    0.1000000000E+01    0.3696551738E-02    0.3165491704E-02    0.5261330206E-03    0.3221708633E-03    0.5122583703E-02
    0.3000000000E+01    0.1089840933E-01    0.9211897392E-02    0.1540044534E-02    0.9375811708E-03    0.1499594909E-01
    0.5000000000E+01    0.1785815048E-01    0.1490322317E-01    0.2505991783E-02    0.1516889846E-02    0.2440431537E-01
    0.7000000000E+01    0.2459012873E-01    0.2026621413E-01    0.3427458311E-02    0.2062812971E-02    0.3338140755E-01
    0.9000000000E+01    0.3110755308E-01    0.2532507679E-01    0.4307594699E-02    0.2577808800E-02    0.4195772952E-01
    0.1100000000E+02    0.3742259993E-01    0.3010177007E-01    0.5149257550E-02    0.3064107328E-02    0.5016094096E-01
    0.1300000000E+02    0.4354651217E-01    0.3461625731E-01    0.5955043119E-02    0.3523735898E-02    0.5801618258E-01
    0.1500000000E+02    0.4948968707E-01    0.3888672532E-01    0.6727316414E-02    0.3958541449E-02    0.6554635755E-01
    0.1700000000E+02    0.5526175448E-01    0.4292977525E-01    0.7468236487E-02    0.4370209911E-02    0.7277237607E-01
    0.1900000000E+02    0.6087164653E-01    0.4676058956E-01    0.8179778459E-02    0.4760283161E-02    0.7971336844E-01
    0.2100000000E+02    0.6632765988E-01    0.5039307835E-01    0.8863752782E-02    0.5130173892E-02    0.8638687131E-01
    0.2300000000E+02    0.7163751143E-01    0.5384000815E-01    0.9521822125E-02    0.5481178687E-02    0.9280899105E-01
    0.2500000000E+02    0.7680838832E-01    0.5711311540E-01    0.1015551622E-01    0.5814489547E-02    0.9899454731E-01
    0.2700000000E+02    0.8184699279E-01    0.6022320677E-01    0.1076624493E-01    0.6131204081E-02    0.1049571997E+00
    0.2900000000E+02    0.8675958260E-01    0.6318024806E-01    0.1135530988E-01    0.6432334531E-02    0.1107095595E+00
    0.3100000000E+02    0.9155200749E-01    0.6599344319E-01    0.1192391461E-01    0.6718815792E-02    0.1162632892E+00
    0.3300000000E+02    0.9622974212E-01    0.6867130446E-01    0.1247317376E-01    0.6991512548E-02    0.1216291903E+00
    0.3500000000E+02    0.1007979158E+00    0.7122171527E-01    0.1300412118E-01    0.7251225642E-02    0.1268172819E+00
    0.3700000000E+02    0.1052613395E+00    0.7365198619E-01    0.1351771709E-01    0.7498697761E-02    0.1318368706E+00
    0.3900000000E+02    0.1096245305E+00    0.7596890514E-01    0.1401485463E-01    0.7734618542E-02    0.1366966132E+00
    0.4100000000E+02    0.1138917344E+00    0.7817878247E-01    0.1449636560E-01    0.7959629139E-02    0.1414045727E+00
    0.4300000000E+02    0.1180669456E+00    0.8028749150E-01    0.1496302572E-01    0.8174326341E-02    0.1459682688E+00
    0.4500000000E+02    0.1221539256E+00    0.8230050496E-01    0.1541555926E-01    0.8379266278E-02    0.1503947232E+00
    0.4700000000E+02    0.1261562203E+00    0.8422292801E-01    0.1585464328E-01    0.8574967759E-02    0.1546905002E+00
    0.4900000000E+02    0.1300771749E+00    0.8605952791E-01    0.1628091144E-01    0.8761915297E-02    0.1588617440E+00
    0.1000000000E+02    0.3428965021E-01    0.2774740284E-01    0.4733067310E-02    0.2824414044E-02    0.4610434722E-01
    0.3000000000E+02    0.8917046507E-01    0.6460427893E-01    0.1164209812E-01    0.6577350700E-02    0.1135105588E+00
    0.5000000000E+02    0.1320081437E+00    0.8694704825E-01    0.1648942659E-01    0.8852249049E-02    0.1609024792E+00
    0.7000000000E+02    0.1670383142E+00    0.1011323568E+00    0.2011289896E-01    0.1029496660E-01    0.1964011748E+00
    0.9000000000E+02    0.1966411792E+00    0.1103751416E+00    0.2294613929E-01    0.1123242246E-01    0.2242126890E+00
    0.1100000000E+03    0.2222646466E+00    0.1164568159E+00    0.2523693628E-01    0.1184598025E-01    0.2467421746E+00
    0.1300000000E+03    0.2448456066E+00    0.1204335860E+00    0.2713763538E-01    0.1224333488E-01    0.2654693647E+00
    0.1500000000E+03    0.2650211740E+00    0.1229651913E+00    0.2874733453E-01    0.1249187881E-01    0.2813574351E+00
    0.1700000000E+03    0.2832427317E+00    0.1244810857E+00    0.3013345041E-01    0.1263557309E-01    0.2950620635E+00
    0.1900000000E+03    0.2998412810E+00    0.1252702908E+00    0.3134355235E-01    0.1270407314E-01    0.3070461938E+00
    0.2100000000E+03    0.3150667773E+00    0.1255327013E+00    0.3241223869E-01    0.1271794242E-01    0.3176467491E+00
    0.2300000000E+03    0.3291128064E+00    0.1254097312E+00    0.3336532578E-01    0.1269176889E-01    0.3271152898E+00
    0.2500000000E+03    0.3421326231E+00    0.1250033262E+00    0.3422250316E-01    0.1263610022E-01    0.3356437937E+00
    0.2700000000E+03    0.3542498981E+00    0.1243881485E+00    0.3499907436E-01    0.1255868524E-01    0.3433815651E+00
    0.2900000000E+03    0.3655661164E+00    0.1236196047E+00    0.3570713202E-01    0.1246529298E-01    0.3504466539E+00
    0.3100000000E+03    0.3761657925E+00    0.1227392669E+00    0.3635637163E-01    0.1236026646E-01    0.3569337654E+00
    0.3300000000E+03    0.3861202259E+00    0.1217786101E+00    0.3695466764E-01    0.1224690514E-01    0.3629198624E+00
    0.3500000000E+03    0.3954902588E+00    0.1207616400E+00    0.3750848965E-01    0.1212773424E-01    0.3684682144E+00
    0.3700000000E+03    0.4043283358E+00    0.1197067692E+00    0.3802320832E-01    0.1200469752E-01    0.3736313742E+00
    0.3900000000E+03    0.4126800677E+00    0.1186281794E+00    0.3850332392E-01    0.1187929741E-01    0.3784534032E+00
    0.4100000000E+03    0.4205854365E+00    0.1175368211E+00    0.3895263951E-01    0.1175269818E-01    0.3829715574E+00
    0.4300000000E+03    0.4280797366E+00    0.1164411578E+00    0.3937439386E-01    0.1162580294E-01    0.3872175830E+00
    0.4500000000E+03    0.4351943186E+00    0.1153477254E+00    0.3977136476E-01    0.1149931160E-01    0.3912187226E+00
    0.4700000000E+03    0.4419571855E+00    0.1142615568E+00    0.4014595016E-01    0.1137376506E-01    0.3949985069E+00
    0.4900000000E+03    0.4483934743E+00    0.1131865066E+00    0.4050023250E-01    0.1124957906E-01    0.3985773812E+00
    0.1000000000E+03    0.2098829295E+00    0.1137330726E+00    0.2414822018E-01    0.1157173497E-01    0.2360296697E+00
    0.3000000000E+03    0.3709507926E+00    0.1231912414E+00    0.3603857476E-01    0.1241400693E-01    0.3537572844E+00
    0.5000000000E+03    0.4514963220E+00    0.1126540962E+00    0.4067033741E-01    0.1118809855E-01    0.4002971488E+00
    0.7000000000E+03    0.5009043704E+00    0.1029894445E+00    0.4334694132E-01    0.1007339455E-01    0.4274921786E+00
    0.9000000000E+03    0.5340115671E+00    0.9526728437E-01    0.4515862715E-01    0.9184941593E-02    0.4460691768E+00
    0.1100000000E+04    0.5575109270E+00    0.8910226636E-01    0.4649507595E-01    0.8479052337E-02    0.4598824765E+00
    0.1300000000E+04    0.5749207302E+00    0.8408414844E-01    0.4753594815E-01    0.7908446077E-02    0.4707172746E+00
    0.1500000000E+04    0.5882602312E+00    0.7991190135E-01    0.4837754495E-01    0.7437904066E-02    0.4795344063E+00
    0.1700000000E+04    0.5987628707E+00    0.7637571692E-01    0.4907694084E-01    0.7042614540E-02    0.4869054601E+00
    0.1900000000E+04    0.6072196349E+00    0.7332875846E-01    0.4967048819E-01    0.6705088633E-02    0.4931957552E+00
    0.2100000000E+04    0.6141583368E+00    0.7066633284E-01    0.5018263192E-01    0.6412804068E-02    0.4986517393E+00
    0.2300000000E+04    0.6199431108E+00    0.6831213797E-01    0.5063052183E-01    0.6156616337E-02    0.5034468348E+00
    0.2500000000E+04    0.6248324099E+00    0.6620934319E-01    0.5102660656E-01    0.5929712941E-02    0.5077072847E+00
    0.2700000000E+04    0.6290142313E+00    0.6431475471E-01    0.5138017876E-01    0.5726921867E-02    0.5115275822E+00
    0.2900000000E+04    0.6326282787E+00    0.6259493250E-01    0.5169833950E-01    0.5544247615E-02    0.5149801221E+00
    0.3100000000E+04    0.6357803379E+00    0.6102355369E-01    0.5198662407E-01    0.5378554285E-02    0.5181214759E+00
    0.3300000000E+04    0.6385518569E+00    0.5957958598E-01    0.5224942163E-01    0.5227345063E-02    0.5209966080E+00
    0.3500000000E+04    0.6410064826E+00    0.5824599715E-01    0.5249026465E-01    0.5088605992E-02    0.5236417894E+00
    0.3700000000E+04    0.6431946177E+00    0.5700882679E-01    0.5271203340E-01    0.4960693377E-02    0.5260866600E+00
    0.3900000000E+04    0.6451566583E+00    0.5585650699E-01    0.5291710366E-01    0.4842251319E-02    0.5283557203E+00
    0.4100000000E+04    0.6469253341E+00    0.5477935747E-01    0.5310745534E-01    0.4732150421E-02    0.5304694303E+00
    0.4300000000E+04    0.6485274267E+00    0.5376920488E-01    0.5328475370E-01    0.4629441592E-02    0.5324450337E+00
    0.4500000000E+04    0.6499850488E+00    0.5281909195E-01    0.5345041108E-01    0.4533320780E-02    0.5342971835E+00
    0.4700000000E+04    0.6513166103E+00    0.5192305240E-01    0.5360563440E-01    0.4443101743E-02    0.5360384252E+00
    0.4900000000E+04    0.6525375548E+00    0.5107593497E-01    0.5375146210E-01    0.4358194779E-02    0.5376795734E+00
    0.1000000000E+04    0.5466946944E+00    0.9201823718E-01    0.4587224317E-01    0.8812396365E-02    0.4534322153E+00
    0.3000000000E+04    0.6342564842E+00    0.6179210895E-01    0.5184591901E-01    0.5459447280E-02    0.5165866541E+00
    0.5000000000E+04    0.6531107035E+00    0.5066930029E-01    0.5382113836E-01    0.4317571237E-02    0.5384655932E+00
    0.7000000000E+04    0.6610742287E+00    0.4427332731E-01    0.5488742974E-01    0.3690032398E-02    0.5506690270E+00
    0.9000000000E+04    0.6654330243E+00    0.3993912064E-01    0.5557507405E-01    0.3276943203E-02    0.5587555342E+00
    0.1100000000E+05    0.6681743207E+00    0.3673539349E-01    0.5606296460E-01    0.2977829596E-02    0.5646318892E+00
    0.1300000000E+05    0.6700547453E+00    0.3423498543E-01    0.5643060519E-01    0.2748019928E-02    0.5691572144E+00
    0.1500000000E+05    0.6714236718E+00    0.3220909251E-01    0.5671939941E-01    0.2564147317E-02    0.5727843286E+00
    0.1700000000E+05    0.6724643132E+00    0.3052204926E-01    0.5695328958E-01    0.2412613968E-02    0.5757779402E+00
    0.1900000000E+05    0.6732818677E+00    0.2908738958E-01    0.5714719689E-01    0.2284884657E-02    0.5783046769E+00
    0.2100000000E+05    0.6739409945E+00    0.2784693514E-01    0.5731095970E-01    0.2175289272E-02    0.5804754360E+00
    0.2300000000E+05    0.6744836023E+00    0.2675985059E-01    0.5745135744E-01    0.2079891002E-02    0.5823673091E+00
    0.2500000000E+05    0.6749380351E+00    0.2579648373E-01    0.5757323027E-01    0.1995858000E-02    0.5840357973E+00
    0.2700000000E+05    0.6753241441E+00    0.2493469385E-01    0.5768013617E-01    0.1921093233E-02    0.5855220252E+00
    0.2900000000E+05    0.6756562441E+00    0.2415755836E-01    0.5777475528E-01    0.1854005671E-02    0.5868572084E+00
    0.3100000000E+05    0.6759449157E+00    0.2345188381E-01    0.5785914887E-01    0.1793363079E-02    0.5880655318E+00
    0.3300000000E+05    0.6761981479E+00    0.2280720702E-01    0.5793493085E-01    0.1738194069E-02    0.5891660663E+00
    0.3500000000E+05    0.6764220848E+00    0.2221510587E-01    0.5800338468E-01    0.1687721012E-02    0.5901740827E+00
    0.3700000000E+05    0.6766215290E+00    0.2166871216E-01    0.5806554512E-01    0.1641312936E-02    0.5911019749E+00
    0.3900000000E+05    0.6768002884E+00    0.2116235983E-01    0.5812225650E-01    0.1598451723E-02    0.5919599223E+00
    0.4100000000E+05    0.6769614211E+00    0.2069132614E-01    0.5817421534E-01    0.1558707374E-02    0.5927563749E+00
    0.4300000000E+05    0.6771074107E+00    0.2025163813E-01    0.5822200173E-01    0.1521719605E-02    0.5934984142E+00
    0.4500000000E+05    0.6772402956E+00    0.1983992552E-01    0.5826610310E-01    0.1487183938E-02    0.5941920263E+00
    0.4700000000E+05    0.6773617643E+00    0.1945330763E-01    0.5830693224E-01    0.1454841042E-02    0.5948423110E+00
    0.4900000000E+05    0.6774732272E+00    0.1908930516E-01    0.5834484128E-01    0.1424468467E-02    0.5954536435E+00
    0.1000000000E+05    0.6669442097E+00    0.3822927898E-01    0.5583773376E-01    0.3116650694E-02    0.5619026257E+00
    0.3000000000E+05    0.6758054586E+00    0.2379649714E-01    0.5781812049E-01    0.1822944674E-02    0.5874759335E+00
    0.5000000000E+05    0.6775255849E+00    0.1891510230E-01    0.5836279695E-01    0.1409959993E-02    0.5957459040E+00
    0.7000000000E+05    0.6782566132E+00    0.1622159362E-01    0.5862363794E-01    0.1187933963E-02    0.6002409524E+00
    0.9000000000E+05    0.6786611996E+00    0.1444809091E-01    0.5877558145E-01    0.1044229629E-02    0.6031790170E+00
    0.1100000000E+06    0.6789181514E+00    0.1316485293E-01    0.5887362480E-01    0.9415772431E-03    0.6052964155E+00
    0.1300000000E+06    0.6790958471E+00    0.1217977640E-01    0.5894094385E-01    0.8635818336E-03    0.6069182315E+00
    0.1500000000E+06    0.6792260816E+00    0.1139217959E-01    0.5898908535E-01    0.8017544696E-03    0.6082134102E+00
    0.1700000000E+06    0.6793256463E+00    0.1074345665E-01    0.5902447186E-01    0.7512019889E-03    0.6092796925E+00
    0.1900000000E+06    0.6794042453E+00    0.1019683998E-01    0.5905096727E-01    0.7088796900E-03    0.6101781147E+00
    0.2100000000E+06    0.6794678783E+00    0.9727925473E-02    0.5907103714E-01    0.6727809532E-03    0.6109490428E+00
    0.2300000000E+06    0.6795204543E+00    0.9319786324E-02    0.5908632870E-01    0.6415226208E-03    0.6116203950E+00
    0.2500000000E+06    0.6795646293E+00    0.8960259329E-02    0.5909798372E-01    0.6141163004E-03    0.6122121859E+00
    0.2700000000E+06    0.6796022714E+00    0.8640346537E-02    0.5910681791E-01    0.5898344728E-03    0.6127391941E+00
    0.2900000000E+06    0.6796347327E+00    0.8353227653E-02    0.5911342890E-01    0.5681282103E-03    0.6132126040E+00
    0.3100000000E+06    0.6796630160E+00    0.8093625093E-02    0.5911826402E-01    0.5485745329E-03    0.6136410593E+00
    0.3300000000E+06    0.6796878809E+00    0.7857381793E-02    0.5912166428E-01    0.5308415612E-03    0.6140313613E+00
    0.3500000000E+06    0.6797099133E+00    0.7641172313E-02    0.5912389382E-01    0.5146647683E-03    0.6143889457E+00
    0.3700000000E+06    0.6797295722E+00    0.7442300136E-02    0.5912516008E-01    0.4998303811E-03    0.6147182173E+00
    0.3900000000E+06    0.6797472226E+00    0.7258552326E-02    0.5912562800E-01    0.4861635206E-03    0.6150227888E+00
    0.4100000000E+06    0.6797631580E+00    0.7088093277E-02    0.5912543015E-01    0.4735195608E-03    0.6153056553E+00
    0.4300000000E+06    0.6797776176E+00    0.6929385694E-02    0.5912467412E-01    0.4617777220E-03    0.6155693243E+00
    0.4500000000E+06    0.6797907979E+00    0.6781130930E-02    0.5912344798E-01    0.4508362483E-03    0.6158159134E+00
    0.4700000000E+06    0.6798028620E+00    0.6642223298E-02    0.5912182440E-01    0.4406087242E-03    0.6160472250E+00
    0.4900000000E+06    0.6798139464E+00    0.6511714647E-02    0.5911986379E-01    0.4310212270E-03    0.6162648046E+00
    0.1000000000E+06    0.6788025680E+00    0.1376027620E-01    0.5882949382E-01    0.9890643093E-03    0.6043147002E+00
    0.3000000000E+06    0.6796493443E+00    0.8220269015E-02    0.5911604504E-01    0.5581048553E-03    0.6134319892E+00
    0.5000000000E+06    0.6798191578E+00    0.6449349759E-02    0.5911877320E-01    0.4264472454E-03    0.6163688690E+00
    0.7000000000E+06    0.6798922750E+00    0.5492640978E-02    0.5908801183E-01    0.3569203239E-03    0.6179742640E+00
    0.9000000000E+06    0.6799330797E+00    0.4870285426E-02    0.5905101050E-01    0.3123909596E-03    0.6190304928E+00
    0.1100000000E+07    0.6799591572E+00    0.4423604476E-02    0.5901392450E-01    0.2808095084E-03    0.6197966102E+00
    0.1300000000E+07    0.6799772833E+00    0.4082729845E-02    0.5897845057E-01    0.2569405353E-03    0.6203870165E+00
    0.1500000000E+07    0.6799906264E+00    0.3811429253E-02    0.5894501448E-01    0.2380971816E-03    0.6208612426E+00
    0.1700000000E+07    0.6800008669E+00    0.3588779999E-02    0.5891362750E-01    0.2227411708E-03    0.6212537899E+00
    0.1900000000E+07    0.6800089794E+00    0.3401738342E-02    0.5888416309E-01    0.2099205093E-03    0.6215862464E+00
    0.2100000000E+07    0.6800155684E+00    0.3241691126E-02    0.5885645595E-01    0.1990105798E-03    0.6218729193E+00
    0.2300000000E+07    0.6800210290E+00    0.3102689926E-02    0.5883033912E-01    0.1895824543E-03    0.6221237247E+00
    0.2500000000E+07    0.6800256299E+00    0.2980476039E-02    0.5880565741E-01    0.1813306143E-03    0.6223457869E+00
    0.2700000000E+07    0.6800295609E+00    0.2871909035E-02    0.5878227143E-01    0.1740308110E-03    0.6225443777E+00
    0.2900000000E+07    0.6800329596E+00    0.2774615168E-02    0.5876005781E-01    0.1675142637E-03    0.6227234951E+00
    0.3100000000E+07    0.6800359280E+00    0.2686762164E-02    0.5873890806E-01    0.1616512041E-03    0.6228862352E+00
    0.3300000000E+07    0.6800385437E+00    0.2606909968E-02    0.5871872687E-01    0.1563400149E-03    0.6230350392E+00
    0.3500000000E+07    0.6800408667E+00    0.2533908911E-02    0.5869943043E-01    0.1514998462E-03    0.6231718621E+00
    0.3700000000E+07    0.6800429439E+00    0.2466828441E-02    0.5868094485E-01    0.1470654672E-03    0.6232982912E+00
    0.3900000000E+07    0.6800448128E+00    0.2404906153E-02    0.5866320484E-01    0.1429835946E-03    0.6234156308E+00
    0.4100000000E+07    0.6800465036E+00    0.2347510597E-02    0.5864615246E-01    0.1392102234E-03    0.6235249642E+00
    0.4300000000E+07    0.6800480408E+00    0.2294113686E-02    0.5862973613E-01    0.1357086509E-03    0.6236272002E+00
    0.4500000000E+07    0.6800494448E+00    0.2244269888E-02    0.5861390977E-01    0.1324479914E-03    0.6237231075E+00
    0.4700000000E+07    0.6800507322E+00    0.2197600328E-02    0.5859863208E-01    0.1294020446E-03    0.6238133416E+00
    0.4900000000E+07    0.6800519173E+00    0.2153780476E-02    0.5858386589E-01    0.1265484205E-03    0.6238984656E+00
    0.1000000000E+07    0.6799474091E+00    0.4630491028E-02    0.5903232446E-01    0.2953955631E-03    0.6194408093E+00
    0.3000000000E+07    0.6800344922E+00    0.2729606379E-02    0.5874935620E-01    0.1645079590E-03    0.6228067466E+00
    0.5000000000E+07    0.6800524753E+00    0.2132850221E-02    0.5857666401E-01    0.1251876034E-03    0.6239392660E+00
    0.7000000000E+07    0.6800603654E+00    0.1812533745E-02    0.5845283609E-01    0.1045489272E-03    0.6245766871E+00
    0.9000000000E+07    0.6800648367E+00    0.1604923423E-02    0.5835604965E-01    0.9137653099E-04    0.6250057577E+00
    0.1100000000E+08    0.6800677325E+00    0.1456280318E-02    0.5827647411E-01    0.8205610279E-04    0.6253229549E+00
    0.1300000000E+08    0.6800697697E+00    0.1343049275E-02    0.5820883940E-01    0.7502385119E-04    0.6255714452E+00
    0.1500000000E+08    0.6800712860E+00    0.1253053555E-02    0.5814998702E-01    0.6947958884E-04    0.6257739472E+00
    0.1700000000E+08    0.6800724616E+00    0.1179278262E-02    0.5809787189E-01    0.6496621215E-04    0.6259437607E+00
    0.1900000000E+08    0.6800734019E+00    0.1117358339E-02    0.5805109260E-01    0.6120133154E-04    0.6260892843E+00
    0.2100000000E+08    0.6800741726E+00    0.1064415829E-02    0.5800864611E-01    0.5799993443E-04    0.6262161303E+00
    0.2300000000E+08    0.6800748169E+00    0.1018465713E-02    0.5796978937E-01    0.5523512559E-04    0.6263282191E+00
    0.2500000000E+08    0.6800753642E+00    0.9780884000E-03    0.5793395639E-01    0.5281661321E-04    0.6264283876E+00
    0.2700000000E+08    0.6800758355E+00    0.9422380586E-03    0.5790070590E-01    0.5067818338E-04    0.6265187494E+00
