  Pressure (Pa) 22mC5-400 (mol/kg) 2mC6-400 (mol/kg) 3mC6-400 (mol/kg) 33mC5-400 (mol/kg) C7-400 (mol/kg)
    0.1000000000E+01    0.3694190935E-02    0.3945010090E-02    0.5244035789E-03    0.1927281656E-03    0.6807764015E-02
    0.3000000000E+01    0.1087815488E-01    0.1141455154E-01    0.1525353121E-02    0.5576895291E-03    0.1980474360E-01
    0.5000000000E+01    0.1780446259E-01    0.1836655682E-01    0.2467406802E-02    0.8974241295E-03    0.3204042003E-01
    0.7000000000E+01    0.2448961798E-01    0.2484744372E-01    0.3355838829E-02    0.1214193202E-02    0.4358287257E-01
    0.9000000000E+01    0.3094870368E-01    0.3089834354E-01    0.4195305617E-02    0.1510000303E-02    0.5449221190E-01
    0.1100000000E+02    0.3719553114E-01    0.3655583172E-01    0.4989933950E-02    0.1786626952E-02    0.6482171677E-01
    0.1300000000E+02    0.4324277209E-01    0.4185254019E-01    0.5743394451E-02    0.2045662496E-02    0.7461878121E-01
    0.1500000000E+02    0.4910207406E-01    0.4681767328E-01    0.6458963134E-02    0.2288529269E-02    0.8392570825E-01
    0.1700000000E+02    0.5478416216E-01    0.5147744451E-01    0.7139573242E-02    0.2516503890E-02    0.9278037833E-01
    0.1900000000E+02    0.6029892899E-01    0.5585544812E-01    0.7787859110E-02    0.2730735377E-02    0.1012168149E+00
    0.2100000000E+02    0.6565551419E-01    0.5997297652E-01    0.8406193447E-02    0.2932260622E-02    0.1092656654E+00
    0.2300000000E+02    0.7086237511E-01    0.6384929259E-01    0.8996719172E-02    0.3122017664E-02    0.1169546116E+00
    0.2500000000E+02    0.7592734966E-01    0.6750186419E-01    0.9561376697E-02    0.3300857120E-02    0.1243087219E+00
    0.2700000000E+02    0.8085771229E-01    0.7094656697E-01    0.1010192741E-01    0.3469552066E-02    0.1313507536E+00
    0.2900000000E+02    0.8566022409E-01    0.7419786021E-01    0.1061997396E-01    0.3628806605E-02    0.1381014153E+00
    0.3100000000E+02    0.9034117757E-01    0.7726893991E-01    0.1111697783E-01    0.3779263331E-02    0.1445795932E+00
    0.3300000000E+02    0.9490643689E-01    0.8017187254E-01    0.1159427464E-01    0.3921509840E-02    0.1508025484E+00
    0.3500000000E+02    0.9936147396E-01    0.8291771205E-01    0.1205308746E-01    0.4056084433E-02    0.1567860893E+00
    0.3700000000E+02    0.1037114010E+00    0.8551660280E-01    0.1249453854E-01    0.4183481125E-02    0.1625447219E+00
    0.3900000000E+02    0.1079609998E+00    0.8797787008E-01    0.1291965948E-01    0.4304154063E-02    0.1680917822E+00
    0.4100000000E+02    0.1121147484E+00    0.9031010022E-01    0.1332940031E-01    0.4418521417E-02    0.1734395526E+00
    0.4300000000E+02    0.1161768450E+00    0.9252121135E-01    0.1372463744E-01    0.4526968835E-02    0.1785993646E+00
    0.4500000000E+02    0.1201512295E+00    0.9461851631E-01    0.1410618069E-01    0.4629852498E-02    0.1835816899E+00
    0.4700000000E+02    0.1240416038E+00    0.9660877863E-01    0.1447477953E-01    0.4727501853E-02    0.1883962207E+00
    0.4900000000E+02    0.1278514491E+00    0.9849826232E-01    0.1483112868E-01    0.4820222035E-02    0.1930519415E+00
    0.1000000000E+02    0.3409783242E-01    0.3377413863E-01    0.4597985259E-02    0.1650607661E-02    0.5972635357E-01
    0.3000000000E+02    0.8801551951E-01    0.7575514757E-01    0.1087101997E-01    0.3705096751E-02    0.1413734500E+00
    0.5000000000E+02    0.1297272052E+00    0.9940704418E-01    0.1500491297E-01    0.4864822931E-02    0.1953228783E+00
    0.7000000000E+02    0.1637168711E+00    0.1134989610E+00    0.1797186961E-01    0.5556876332E-02    0.2341425158E+00
    0.9000000000E+02    0.1924243492E+00    0.1221019735E+00    0.2022709048E-01    0.5979662467E-02    0.2637222248E+00
    0.1100000000E+03    0.2172999100E+00    0.1273400760E+00    0.2201327520E-01    0.6236820334E-02    0.2872050741E+00
    0.1300000000E+03    0.2392659768E+00    0.1304166676E+00    0.2347226358E-01    0.6387170208E-02    0.3064295253E+00
    0.1500000000E+03    0.2589416477E+00    0.1320567571E+00    0.2469282943E-01    0.6466227653E-02    0.3225471860E+00
    0.1700000000E+03    0.2767610962E+00    0.1327183416E+00    0.2573356907E-01    0.6496488356E-02    0.3363188147E+00
    0.1900000000E+03    0.2930401767E+00    0.1327017913E+00    0.2663483954E-01    0.6492752018E-02    0.3482687923E+00
    0.2100000000E+03    0.3080159261E+00    0.1322101220E+00    0.2742541942E-01    0.6465057425E-02    0.3587713524E+00
    0.2300000000E+03    0.3218710450E+00    0.1313839459E+00    0.2812643385E-01    0.6420385677E-02    0.3681014206E+00
    0.2500000000E+03    0.3347496474E+00    0.1303226153E+00    0.2875377460E-01    0.6363691542E-02    0.3764659750E+00
    0.2700000000E+03    0.3467677247E+00    0.1290974789E+00    0.2931965015E-01    0.6298550845E-02    0.3840241435E+00
    0.2900000000E+03    0.3580202949E+00    0.1277604502E+00    0.2983361148E-01    0.6227579518E-02    0.3909005103E+00
    0.3100000000E+03    0.3685864092E+00    0.1263496938E+00    0.3030325027E-01    0.6152712164E-02    0.3971941760E+00
    0.3300000000E+03    0.3785327370E+00    0.1248934874E+00    0.3073468602E-01    0.6075391577E-02    0.4029850828E+00
    0.3500000000E+03    0.3879161831E+00    0.1234128963E+00    0.3113291328E-01    0.5996700335E-02    0.4083385249E+00
    0.3700000000E+03    0.3967858345E+00    0.1219236606E+00    0.3150205406E-01    0.5917453835E-02    0.4133084280E+00
    0.3900000000E+03    0.4051844308E+00    0.1204375462E+00    0.3184554440E-01    0.5838267115E-02    0.4179397762E+00
    0.4100000000E+03    0.4131494936E+00    0.1189633272E+00    0.3216627453E-01    0.5759603562E-02    0.4222704346E+00
    0.4300000000E+03    0.4207142044E+00    0.1175075074E+00    0.3246669560E-01    0.5681810838E-02    0.4263325378E+00
    0.4500000000E+03    0.4279080969E+00    0.1160748576E+00    0.3274890192E-01    0.5605147708E-02    0.4301535616E+00
    0.4700000000E+03    0.4347576095E+00    0.1146688192E+00    0.3301469527E-01    0.5529804267E-02    0.4337571594E+00
    0.4900000000E+03    0.4412865309E+00    0.1132918091E+00    0.3326563545E-01    0.5455917327E-02    0.4371638222E+00
    0.1000000000E+03    0.2052744434E+00    0.1250516485E+00    0.2116831845E-01    0.6124549005E-02    0.2760897748E+00
    0.3000000000E+03    0.3633847365E+00    0.1270623248E+00    0.3007355884E-01    0.6190532911E-02    0.3941147954E+00
    0.5000000000E+03    0.4444375702E+00    0.1126147236E+00    0.3338596699E-01    0.5419551194E-02    0.4387989733E+00
    0.7000000000E+03    0.4949158151E+00    0.1007386763E+00    0.3526589943E-01    0.4778298114E-02    0.4644940394E+00
    0.9000000000E+03    0.5290372423E+00    0.9166133667E-01    0.3652319750E-01    0.4285096213E-02    0.4818657906E+00
    0.1100000000E+04    0.5533774315E+00    0.8462463245E-01    0.3744207638E-01    0.3902399512E-02    0.4946814484E+00
    0.1300000000E+04    0.5714595344E+00    0.7902823164E-01    0.3815220632E-01    0.3598842178E-02    0.5046692311E+00
    0.1500000000E+04    0.5853330630E+00    0.7446499343E-01    0.3872256635E-01    0.3352555801E-02    0.5127529641E+00
    0.1700000000E+04    0.5962617748E+00    0.7066206353E-01    0.3919378510E-01    0.3148616589E-02    0.5194791849E+00
    0.1900000000E+04    0.6050614401E+00    0.6743333374E-01    0.3959160121E-01    0.2976717656E-02    0.5251955384E+00
    0.2100000000E+04    0.6122789175E+00    0.6464870416E-01    0.3993323937E-01    0.2829592170E-02    0.5301355526E+00
    0.2300000000E+04    0.6182926940E+00    0.6221491198E-01    0.4023073084E-01    0.2702001426E-02    0.5344629241E+00
    0.2500000000E+04    0.6233720064E+00    0.6006350012E-01    0.4049277354E-01    0.2590086894E-02    0.5382963924E+00
    0.2700000000E+04    0.6277129911E+00    0.5814312239E-01    0.4072583585E-01    0.2490949508E-02    0.5417245420E+00
    0.2900000000E+04    0.6314615427E+00    0.5641450952E-01    0.4093484324E-01    0.2402371229E-02    0.5448150327E+00
    0.3100000000E+04    0.6347282007E+00    0.5484709931E-01    0.4112362243E-01    0.2322626963E-02    0.5476205841E+00
    0.3300000000E+04    0.6375980985E+00    0.5341673050E-01    0.4129519835E-01    0.2250354951E-02    0.5501829867E+00
    0.3500000000E+04    0.6401377691E+00    0.5210403153E-01    0.4145199830E-01    0.2184465715E-02    0.5525358654E+00
    0.3700000000E+04    0.6423998962E+00    0.5089327318E-01    0.4159599596E-01    0.2124076962E-02    0.5547066324E+00
    0.3900000000E+04    0.6444266958E+00    0.4977153696E-01    0.4172881496E-01    0.2068466258E-02    0.5567178954E+00
    0.4100000000E+04    0.6462523618E+00    0.4872810254E-01    0.4185180498E-01    0.2017036090E-02    0.5585884937E+00
    0.4300000000E+04    0.6479048637E+00    0.4775398980E-01    0.4196609849E-01    0.1969287723E-02    0.5603342723E+00
    0.4500000000E+04    0.6494072855E+00    0.4684161168E-01    0.4207265375E-01    0.1924801356E-02    0.5619686703E+00
    0.4700000000E+04    0.6507788366E+00    0.4598450779E-01    0.4217228782E-01    0.1883220908E-02    0.5635031722E+00
    0.4900000000E+04    0.6520356238E+00    0.4517713754E-01    0.4226570226E-01    0.1844242193E-02    0.5649476611E+00
    0.1000000000E+04    0.5421633113E+00    0.8793058368E-01    0.3701480175E-01    0.4082140003E-02    0.4887082110E+00
    0.3000000000E+04    0.6331492840E+00    0.5561229258E-01    0.4103155626E-01    0.2361487251E-02    0.5462505949E+00
    0.5000000000E+04    0.6526253154E+00    0.4479058194E-01    0.4231026983E-01    0.1825645295E-02    0.5656388706E+00
    0.7000000000E+04    0.6607975478E+00    0.3879113225E-01    0.4298663938E-01    0.1542574548E-02    0.5763183693E+00
    0.9000000000E+04    0.6652509357E+00    0.3480450626E-01    0.4341651226E-01    0.1360360329E-02    0.5833410038E+00
    0.1100000000E+05    0.6680431454E+00    0.3189387190E-01    0.4371796826E-01    0.1230317218E-02    0.5884172094E+00
    0.1300000000E+05    0.6699542041E+00    0.2964161877E-01    0.4394287123E-01    0.1131417659E-02    0.5923109008E+00
    0.1500000000E+05    0.6713430629E+00    0.2782834682E-01    0.4411798383E-01    0.1052886097E-02    0.5954221101E+00
    0.1700000000E+05    0.6723974482E+00    0.2632578239E-01    0.4425866542E-01    0.9885475454E-03    0.5979835066E+00
    0.1900000000E+05    0.6732249137E+00    0.2505304163E-01    0.4437442663E-01    0.9345720643E-03    0.6001409510E+00
    0.2100000000E+05    0.6738914470E+00    0.2395616081E-01    0.4447150302E-01    0.8884396191E-03    0.6019911898E+00
    0.2300000000E+05    0.6744397528E+00    0.2299752222E-01    0.4455416980E-01    0.8484142407E-03    0.6036012835E+00
    0.2500000000E+05    0.6748986765E+00    0.2214996562E-01    0.4462546536E-01    0.8132553988E-03    0.6050193914E+00
    0.2700000000E+05    0.6752883979E+00    0.2139330859E-01    0.4468761388E-01    0.7820495891E-03    0.6062811207E+00
    0.2900000000E+05    0.6756234547E+00    0.2071218905E-01    0.4474228428E-01    0.7541070679E-03    0.6074134472E+00
    0.3100000000E+05    0.6759145835E+00    0.2009467324E-01    0.4479075549E-01    0.7288958798E-03    0.6084372352E+00
    0.3300000000E+05    0.6761698846E+00    0.1953132684E-01    0.4483402549E-01    0.7059982263E-03    0.6093689121E+00
    0.3500000000E+05    0.6763955840E+00    0.1901457715E-01    0.4487288535E-01    0.6850807438E-03    0.6102216136E+00
    0.3700000000E+05    0.6765965452E+00    0.1853826413E-01    0.4490797092E-01    0.6658737342E-03    0.6110059871E+00
    0.3900000000E+05    0.6767766224E+00    0.1809731737E-01    0.4493979951E-01    0.6481563215E-03    0.6117307678E+00
    0.4100000000E+05    0.6769389092E+00    0.1768751926E-01    0.4496879668E-01    0.6317456354E-03    0.6124031988E+00
    0.4300000000E+05    0.6770859174E+00    0.1730532834E-01    0.4499531591E-01    0.6164887883E-03    0.6130293446E+00
    0.4500000000E+05    0.6772197072E+00    0.1694774552E-01    0.4501965343E-01    0.6022568317E-03    0.6136143267E+00
    0.4700000000E+05    0.6773419849E+00    0.1661221137E-01    0.4504205949E-01    0.5889401394E-03    0.6141625044E+00
    0.4900000000E+05    0.6774541750E+00    0.1629652630E-01    0.4506274703E-01    0.5764448343E-03    0.6146776154E+00
    0.1000000000E+05    0.6667910695E+00    0.3324747796E-01    0.4357920087E-01    0.1290480719E-02    0.5860623997E+00
    0.3000000000E+05    0.6757739525E+00    0.2039612031E-01    0.4476722683E-01    0.7411884437E-03    0.6079377932E+00
    0.5000000000E+05    0.6775068695E+00    0.1614552246E-01    0.4507250442E-01    0.5704794710E-03    0.6149237961E+00
    0.7000000000E+05    0.6782422949E+00    0.1381675427E-01    0.4521049390E-01    0.4794595557E-03    0.6187037457E+00
    0.9000000000E+05    0.6786491118E+00    0.1228935574E-01    0.4528615012E-01    0.4208062830E-03    0.6211679967E+00
    0.1100000000E+06    0.6789074372E+00    0.1118699122E-01    0.4533174924E-01    0.3790267643E-03    0.6229408177E+00
    0.1300000000E+06    0.6790860807E+00    0.1034230601E-01    0.4536064164E-01    0.3473463626E-03    0.6242969485E+00
    0.1500000000E+06    0.6792170190E+00    0.9667897707E-02    0.4537936594E-01    0.3222713092E-03    0.6253788551E+00
    0.1700000000E+06    0.6793171335E+00    0.9113022086E-02    0.4539150001E-01    0.3017935873E-03    0.6262688226E+00
    0.1900000000E+06    0.6793961780E+00    0.8645907842E-02    0.4539916201E-01    0.2846665334E-03    0.6270181681E+00
    0.2100000000E+06    0.6794601820E+00    0.8245501387E-02    0.4540368213E-01    0.2700700026E-03    0.6276607938E+00
    0.2300000000E+06    0.6795130736E+00    0.7897219531E-02    0.4540593482E-01    0.2574395057E-03    0.6282201258E+00
    0.2500000000E+06    0.6795575218E+00    0.7590595107E-02    0.4540651641E-01    0.2463721654E-03    0.6287129459E+00
    0.2700000000E+06    0.6795954036E+00    0.7317892449E-02    0.4540584585E-01    0.2365717543E-03    0.6291516372E+00
    0.2900000000E+06    0.6796280777E+00    0.7073253090E-02    0.4540422487E-01    0.2278149700E-03    0.6295455657E+00
    0.3100000000E+06    0.6796565517E+00    0.6852147148E-02    0.4540187534E-01    0.2199298854E-03    0.6299019660E+00
    0.3300000000E+06    0.6796815889E+00    0.6651008926E-02    0.4539896334E-01    0.2127817003E-03    0.6302265279E+00
    0.3500000000E+06    0.6797037781E+00    0.6466987777E-02    0.4539561506E-01    0.2062630407E-03    0.6305237971E+00
    0.3700000000E+06    0.6797235805E+00    0.6297773457E-02    0.4539192767E-01    0.2002871850E-03    0.6307974554E+00
    0.3900000000E+06    0.6797413629E+00    0.6141470980E-02    0.4538797682E-01    0.1947832274E-03    0.6310505216E+00
    0.4100000000E+06    0.6797574206E+00    0.5996509196E-02    0.4538382201E-01    0.1896925568E-03    0.6312854978E+00
    0.4300000000E+06    0.6797719936E+00    0.5861572846E-02    0.4537951041E-01    0.1849662479E-03    0.6315044779E+00
    0.4500000000E+06    0.6797852797E+00    0.5735551283E-02    0.4537507973E-01    0.1805630986E-03    0.6317092298E+00
    0.4700000000E+06    0.6797974427E+00    0.5617499230E-02    0.4537056028E-01    0.1764481314E-03    0.6319012578E+00
    0.4900000000E+06    0.6798086199E+00    0.5506606364E-02    0.4536597657E-01    0.1725914361E-03    0.6320818515E+00
    0.1000000000E+06    0.6787912380E+00    0.1169820248E-01    0.4531163795E-01    0.3983419983E-03    0.6221191862E+00
    0.3000000000E+06    0.6796427872E+00    0.6960000535E-02    0.4540312970E-01    0.2237726293E-03    0.6297280705E+00
    0.5000000000E+06    0.6798138757E+00    0.5453622330E-02    0.4536366699E-01    0.1707517521E-03    0.6321682143E+00
    0.7000000000E+06    0.6798876721E+00    0.4641405390E-02    0.4531734759E-01    0.1428081994E-03    0.6334995075E+00
    0.9000000000E+06    0.6799289202E+00    0.4113630233E-02    0.4527402046E-01    0.1249317127E-03    0.6343742725E+00
    0.1100000000E+07    0.6799553181E+00    0.3735115273E-02    0.4523473918E-01    0.1122628482E-03    0.6350081435E+00
    0.1300000000E+07    0.6799736906E+00    0.3446418881E-02    0.4519918419E-01    0.1026931660E-03    0.6354962395E+00
    0.1500000000E+07    0.6799872313E+00    0.3216745002E-02    0.4516683824E-01    0.9514164426E-04    0.6358880164E+00
    0.1700000000E+07    0.6799976350E+00    0.3028322844E-02    0.4513722090E-01    0.8898982567E-04    0.6362121178E+00
    0.1900000000E+07    0.6800058855E+00    0.2870079920E-02    0.4510992908E-01    0.8385518402E-04    0.6364864562E+00
    0.2100000000E+07    0.6800125934E+00    0.2734708142E-02    0.4508463324E-01    0.7948685542E-04    0.6367228971E+00
    0.2300000000E+07    0.6800181577E+00    0.2617162363E-02    0.4506106477E-01    0.7571263775E-04    0.6369296609E+00
    0.2500000000E+07    0.6800228504E+00    0.2513831779E-02    0.4503900370E-01    0.7240991518E-04    0.6371126514E+00
    0.2700000000E+07    0.6800268633E+00    0.2422054503E-02    0.4501826843E-01    0.6948871469E-04    0.6372762355E+00
    0.2900000000E+07    0.6800303356E+00    0.2339819021E-02    0.4499870772E-01    0.6688133542E-04    0.6374237240E+00
    0.3100000000E+07    0.6800333708E+00    0.2265573016E-02    0.4498019451E-01    0.6453573695E-04    0.6375576801E+00
    0.3300000000E+07    0.6800360475E+00    0.2198096714E-02    0.4496262113E-01    0.6241117639E-04    0.6376801244E+00
    0.3500000000E+07    0.6800384265E+00    0.2136416485E-02    0.4494589563E-01    0.6047524347E-04    0.6377926743E+00
    0.3700000000E+07    0.6800405553E+00    0.2079744400E-02    0.4492993888E-01    0.5870179347E-04    0.6378966430E+00
    0.3900000000E+07    0.6800424720E+00    0.2027435005E-02    0.4491468233E-01    0.5706947363E-04    0.6379931090E+00
    0.4100000000E+07    0.6800442073E+00    0.1978953791E-02    0.4490006623E-01    0.5556065180E-04    0.6380829682E+00
    0.4300000000E+07    0.6800457860E+00    0.1933853798E-02    0.4488603815E-01    0.5416062371E-04    0.6381669718E+00
    0.4500000000E+07    0.6800472287E+00    0.1891757988E-02    0.4487255190E-01    0.5285701715E-04    0.6382457551E+00
    0.4700000000E+07    0.6800485527E+00    0.1852345769E-02    0.4485956651E-01    0.5163933782E-04    0.6383198599E+00
    0.4900000000E+07    0.6800497721E+00    0.1815342564E-02    0.4484704553E-01    0.5049861866E-04    0.6383897512E+00
    0.1000000000E+07    0.6799434213E+00    0.3910400417E-02    0.4525388385E-01    0.1181130322E-03    0.6347138297E+00
    0.3000000000E+07    0.6800319024E+00    0.2301780197E-02    0.4498932732E-01    0.6567858472E-04    0.6374922565E+00
    0.5000000000E+07    0.6800503465E+00    0.1797669072E-02    0.4484094887E-01    0.4995466589E-04    0.6384232447E+00
    0.7000000000E+07    0.6800584907E+00    0.1527262320E-02    0.4473703365E-01    0.4170693759E-04    0.6389459786E+00
    0.9000000000E+07    0.6800631298E+00    0.1352070006E-02    0.4465679276E-01    0.3644500063E-04    0.6392972205E+00
    0.1100000000E+08    0.6800661474E+00    0.1226671612E-02    0.4459132543E-01    0.3272281334E-04    0.6395565067E+00
    0.1300000000E+08    0.6800682784E+00    0.1131167192E-02    0.4453598151E-01    0.2991500258E-04    0.6397593823E+00
    0.1500000000E+08    0.6800698699E+00    0.1055272875E-02    0.4448801873E-01    0.2770166897E-04    0.6399245367E+00
    0.1700000000E+08    0.6800711077E+00    0.9930656990E-03    0.4444568154E-01    0.2590011609E-04    0.6400629019E+00
    0.1900000000E+08    0.6800721005E+00    0.9408608006E-03    0.4440777709E-01    0.2439749986E-04    0.6401813758E+00
    0.2100000000E+08    0.6800729164E+00    0.8962290913E-03    0.4437345726E-01    0.2311990051E-04    0.6402845652E+00
    0.2300000000E+08    0.6800736000E+00    0.8574953833E-03    0.4434209715E-01    0.2201662549E-04    0.6403756860E+00
    0.2500000000E+08    0.6800741821E+00    0.8234618087E-03    0.4431322284E-01    0.2105160899E-04    0.6404570640E+00
    0.2700000000E+08    0.6800746844E+00    0.7932459770E-03    0.4428646629E-01    0.2019840558E-04    0.6405304310E+00
