  Pressure (Pa) 22mC5-400 (mol/kg) 2mC6-400 (mol/kg) 3mC6-400 (mol/kg) 33mC5-400 (mol/kg) C7-400 (mol/kg)
    0.1000000000E+01    0.3705297153E-02    0.7899084448E-03    0.1572736253E-02    0.2572775698E-03    0.8507185664E-02
    0.3000000000E+01    0.1097403129E-01    0.2290579930E-02    0.4571817267E-02    0.7461857153E-03    0.2473339134E-01
    0.5000000000E+01    0.1806010751E-01    0.3693359954E-02    0.7390537199E-02    0.1203373655E-02    0.3998841753E-01
    0.7000000000E+01    0.2497093722E-01    0.5006500595E-02    0.1004484814E-01    0.1631516327E-02    0.5435802504E-01
    0.9000000000E+01    0.3171352899E-01    0.6237344842E-02    0.1254887021E-01    0.2032993310E-02    0.6791813349E-01
    0.1100000000E+02    0.3829451541E-01    0.7392450770E-02    0.1491514738E-01    0.2409929234E-02    0.8073619488E-01
    0.1300000000E+02    0.4472017793E-01    0.8477695648E-02    0.1715486152E-01    0.2764227668E-02    0.9287234326E-01
    0.1500000000E+02    0.5099646965E-01    0.9498363692E-02    0.1927801262E-01    0.3097599671E-02    0.1043803620E+00
    0.1700000000E+02    0.5712903648E-01    0.1045922041E-01    0.2129357099E-01    0.3411587970E-02    0.1153085015E+00
    0.1900000000E+02    0.6312323664E-01    0.1136457587E-01    0.2320960658E-01    0.3707587544E-02    0.1257001739E+00
    0.2100000000E+02    0.6898415872E-01    0.1221833882E-01    0.2503339931E-01    0.3986863208E-02    0.1355945450E+00
    0.2300000000E+02    0.7471663840E-01    0.1302406312E-01    0.2677153355E-01    0.4250564720E-02    0.1450270425E+00
    0.2500000000E+02    0.8032527396E-01    0.1378498782E-01    0.2842997929E-01    0.4499739791E-02    0.1540297914E+00
    0.2700000000E+02    0.8581444065E-01    0.1450407178E-01    0.3001416230E-01    0.4735345348E-02    0.1626319915E+00
    0.2900000000E+02    0.9118830405E-01    0.1518402386E-01    0.3152902482E-01    0.4958257317E-02    0.1708602427E+00
    0.3100000000E+02    0.9645083251E-01    0.1582732909E-01    0.3297907830E-01    0.5169279146E-02    0.1787388291E+00
    0.3300000000E+02    0.1016058087E+00    0.1643627166E-01    0.3436844943E-01    0.5369149256E-02    0.1862899659E+00
    0.3500000000E+02    0.1066568402E+00    0.1701295509E-01    0.3570092033E-01    0.5558547581E-02    0.1935340155E+00
    0.3700000000E+02    0.1116073698E+00    0.1755931993E-01    0.3697996387E-01    0.5738101317E-02    0.2004896770E+00
    0.3900000000E+02    0.1164606847E+00    0.1807715939E-01    0.3820877467E-01    0.5908390005E-02    0.2071741533E+00
    0.4100000000E+02    0.1212199252E+00    0.1856813326E-01    0.3939029644E-01    0.6069950013E-02    0.2136032978E+00
    0.4300000000E+02    0.1258880927E+00    0.1903378011E-01    0.4052724623E-01    0.6223278532E-02    0.2197917444E+00
    0.4500000000E+02    0.1304680578E+00    0.1947552833E-01    0.4162213585E-01    0.6368837113E-02    0.2257530233E+00
    0.4700000000E+02    0.1349625668E+00    0.1989470580E-01    0.4267729091E-01    0.6507054831E-02    0.2314996629E+00
    0.4900000000E+02    0.1393742487E+00    0.2029254865E-01    0.4369486782E-01    0.6638331115E-02    0.2370432809E+00
    0.1000000000E+02    0.3502382232E-01    0.6823982911E-02    0.1374849838E-01    0.2224405108E-02    0.7441600231E-01
    0.3000000000E+02    0.9383324451E-01    0.1551011011E-01    0.3226188625E-01    0.5065206904E-02    0.1748418097E+00
    0.5000000000E+02    0.1415498206E+00    0.2048383274E-01    0.4419019584E-01    0.6701483560E-02    0.2397423588E+00
    0.7000000000E+02    0.1812719153E+00    0.2343142194E-01    0.5254131372E-01    0.7678303363E-02    0.2853148689E+00
    0.9000000000E+02    0.2150124739E+00    0.2517726343E-01    0.5872897525E-01    0.8262149354E-02    0.3191801562E+00
    0.1100000000E+03    0.2441384903E+00    0.2617141839E-01    0.6350629101E-01    0.8598719009E-02    0.3454020825E+00
    0.1300000000E+03    0.2696132331E+00    0.2667851072E-01    0.6731177800E-01    0.8773912788E-02    0.3663493371E+00
    0.1500000000E+03    0.2921370492E+00    0.2686257959E-01    0.7041838019E-01    0.8841183967E-02    0.3834977372E+00
    0.1700000000E+03    0.3122329506E+00    0.2682938083E-01    0.7300503977E-01    0.8835159324E-02    0.3978157969E+00
    0.1900000000E+03    0.3303006593E+00    0.2664916356E-01    0.7519405748E-01    0.8778970926E-02    0.4099661192E+00
    0.2100000000E+03    0.3466518811E+00    0.2636968134E-01    0.7707192371E-01    0.8688446240E-02    0.4204177556E+00
    0.2300000000E+03    0.3615340030E+00    0.2602398111E-01    0.7870157229E-01    0.8574619310E-02    0.4295123421E+00
    0.2500000000E+03    0.3751464273E+00    0.2563524624E-01    0.8012991645E-01    0.8445294946E-02    0.4375047951E+00
    0.2700000000E+03    0.3876520901E+00    0.2521990376E-01    0.8139266022E-01    0.8306054677E-02    0.4445893116E+00
    0.2900000000E+03    0.3991857515E+00    0.2478967089E-01    0.8251747063E-01    0.8160921306E-02    0.4509165200E+00
    0.3100000000E+03    0.4098600748E+00    0.2435293341E-01    0.8352612786E-01    0.8012808064E-02    0.4566051128E+00
    0.3300000000E+03    0.4197701603E+00    0.2391569192E-01    0.8443601860E-01    0.7863828190E-02    0.4617499306E+00
    0.3500000000E+03    0.4289969769E+00    0.2348222207E-01    0.8526119559E-01    0.7715511956E-02    0.4664277012E+00
    0.3700000000E+03    0.4376099985E+00    0.2305554205E-01    0.8601314389E-01    0.7568961074E-02    0.4707011923E+00
    0.3900000000E+03    0.4456692537E+00    0.2263774753E-01    0.8670134443E-01    0.7424959957E-02    0.4746222676E+00
    0.4100000000E+03    0.4532269389E+00    0.2223025438E-01    0.8733369506E-01    0.7284056811E-02    0.4782341714E+00
    0.4300000000E+03    0.4603287024E+00    0.2183397607E-01    0.8791682934E-01    0.7146623314E-02    0.4815732595E+00
    0.4500000000E+03    0.4670146751E+00    0.2144945449E-01    0.8845636106E-01    0.7012898916E-02    0.4846703273E+00
    0.4700000000E+03    0.4733203074E+00    0.2107695704E-01    0.8895707396E-01    0.6883023958E-02    0.4875516413E+00
    0.4900000000E+03    0.4792770528E+00    0.2071654904E-01    0.8942307048E-01    0.6757064606E-02    0.4902397476E+00
    0.1000000000E+03    0.2300846327E+00    0.2574870520E-01    0.6126143495E-01    0.8454988974E-02    0.3330710882E+00
    0.3000000000E+03    0.4046240197E+00    0.2457169315E-01    0.8303514288E-01    0.8087089250E-02    0.4538342333E+00
    0.5000000000E+03    0.4821334702E+00    0.2054085742E-01    0.8964417531E-01    0.6695558416E-02    0.4915175369E+00
    0.7000000000E+03    0.5263672474E+00    0.1760124144E-01    0.9289171419E-01    0.5657584051E-02    0.5105009133E+00
    0.9000000000E+03    0.5548638804E+00    0.1550925274E-01    0.9483385403E-01    0.4911103522E-02    0.5221235774E+00
    0.1100000000E+04    0.5746731011E+00    0.1396748030E-01    0.9612900244E-01    0.4359030486E-02    0.5300515532E+00
    0.1300000000E+04    0.5891974535E+00    0.1278759040E-01    0.9705500551E-01    0.3936883052E-02    0.5358457645E+00
    0.1500000000E+04    0.6002784594E+00    0.1185470483E-01    0.9774997127E-01    0.3604273978E-02    0.5402887338E+00
    0.1700000000E+04    0.6089969849E+00    0.1109686581E-01    0.9829051435E-01    0.3335463345E-02    0.5438181494E+00
    0.1900000000E+04    0.6160276032E+00    0.1046730741E-01    0.9872263826E-01    0.3113523244E-02    0.5466989367E+00
    0.2100000000E+04    0.6218122154E+00    0.9934521254E-02    0.9907567363E-01    0.2926955581E-02    0.5491013335E+00
    0.2300000000E+04    0.6266519166E+00    0.9476575855E-02    0.9936922275E-01    0.2767713575E-02    0.5511399912E+00
    0.2500000000E+04    0.6307586682E+00    0.9077760193E-02    0.9961689365E-01    0.2630013162E-02    0.5528951054E+00
    0.2700000000E+04    0.6342858496E+00    0.8726531554E-02    0.9982843374E-01    0.2509597010E-02    0.5544245499E+00
    0.2900000000E+04    0.6373470945E+00    0.8414219482E-02    0.1000110111E+00    0.2403265136E-02    0.5557711976E+00
    0.3100000000E+04    0.6400283240E+00    0.8134182577E-02    0.1001700163E+00    0.2308567177E-02    0.5569675252E+00
    0.3300000000E+04    0.6423956720E+00    0.7881244983E-02    0.1003095819E+00    0.2223595502E-02    0.5580386110E+00
    0.3500000000E+04    0.6445008481E+00    0.7651310550E-02    0.1004329302E+00    0.2146842904E-02    0.5590041467E+00
    0.3700000000E+04    0.6463848506E+00    0.7441092827E-02    0.1005426104E+00    0.2077102662E-02    0.5598798236E+00
    0.3900000000E+04    0.6480805930E+00    0.7247922359E-02    0.1006406664E+00    0.2013397033E-02    0.5606783091E+00
    0.4100000000E+04    0.6496147960E+00    0.7069606666E-02    0.1007287559E+00    0.1954925197E-02    0.5614099484E+00
    0.4300000000E+04    0.6510093734E+00    0.6904326858E-02    0.1008082372E+00    0.1901024774E-02    0.5620832792E+00
    0.4500000000E+04    0.6522824627E+00    0.6750560157E-02    0.1008802346E+00    0.1851142974E-02    0.5627054140E+00
    0.4700000000E+04    0.6534492026E+00    0.6607021047E-02    0.1009456861E+00    0.1804814666E-02    0.5632823284E+00
    0.4900000000E+04    0.6545223261E+00    0.6472616019E-02    0.1010053805E+00    0.1761645536E-02    0.5638190824E+00
    0.1000000000E+04    0.5655905506E+00    0.1468354575E-01    0.9554015066E-01    0.4615497613E-02    0.5264252458E+00
    0.3000000000E+04    0.6387306867E+00    0.8270519266E-02    0.1000931772E+00    0.2354591947E-02    0.5563864379E+00
    0.5000000000E+04    0.6550272178E+00    0.6408540743E-02    0.1010332817E+00    0.1741138516E-02    0.5640737729E+00
    0.7000000000E+04    0.6621275060E+00    0.5436624654E-02    0.1014078842E+00    0.1436182408E-02    0.5678358867E+00
    0.9000000000E+04    0.6660937559E+00    0.4813569351E-02    0.1015927639E+00    0.1247084863E-02    0.5701398004E+00
    0.1100000000E+05    0.6686238409E+00    0.4369652486E-02    0.1016930064E+00    0.1115579324E-02    0.5717263286E+00
    0.1300000000E+05    0.6703776433E+00    0.4032254489E-02    0.1017491624E+00    0.1017471230E-02    0.5729010147E+00
    0.1500000000E+05    0.6716647138E+00    0.3764356524E-02    0.1017800037E+00    0.9407235140E-03    0.5738147281E+00
    0.1700000000E+05    0.6726494138E+00    0.3544815866E-02    0.1017953141E+00    0.8785975919E-03    0.5745512776E+00
    0.1900000000E+05    0.6734270711E+00    0.3360549377E-02    0.1018006383E+00    0.8269928653E-03    0.5751612798E+00
    0.2100000000E+05    0.6740567663E+00    0.3202962916E-02    0.1017993208E+00    0.7832538059E-03    0.5756772810E+00
    0.2300000000E+05    0.6745770602E+00    0.3066143558E-02    0.1017934774E+00    0.7455756926E-03    0.5761212538E+00
    0.2500000000E+05    0.6750141884E+00    0.2945869808E-02    0.1017844986E+00    0.7126838351E-03    0.5765086232E+00
    0.2700000000E+05    0.6753866201E+00    0.2839035191E-02    0.1017733267E+00    0.6836490994E-03    0.5768505695E+00
    0.2900000000E+05    0.6757077334E+00    0.2743295377E-02    0.1017606159E+00    0.6577762277E-03    0.5771554163E+00
    0.3100000000E+05    0.6759874560E+00    0.2656843027E-02    0.1017468300E+00    0.6345332933E-03    0.5774295022E+00
    0.3300000000E+05    0.6762333100E+00    0.2578259037E-02    0.1017323032E+00    0.6135055144E-03    0.5776777486E+00
    0.3500000000E+05    0.6764510992E+00    0.2506411309E-02    0.1017172799E+00    0.5943640791E-03    0.5779040422E+00
    0.3700000000E+05    0.6766453725E+00    0.2440384049E-02    0.1017019405E+00    0.5768445377E-03    0.5781114977E+00
    0.3900000000E+05    0.6768197465E+00    0.2379427284E-02    0.1016864196E+00    0.5607314788E-03    0.5783026442E+00
    0.4100000000E+05    0.6769771320E+00    0.2322920084E-02    0.1016708181E+00    0.5458474375E-03    0.5784795592E+00
    0.4300000000E+05    0.6771198984E+00    0.2270343302E-02    0.1016552119E+00    0.5320447218E-03    0.5786439671E+00
    0.4500000000E+05    0.6772499941E+00    0.2221259042E-02    0.1016396586E+00    0.5191992910E-03    0.5787973130E+00
    0.4700000000E+05    0.6773690359E+00    0.2175294982E-02    0.1016242014E+00    0.5072061045E-03    0.5789408176E+00
    0.4900000000E+05    0.6774783767E+00    0.2132132246E-02    0.1016088729E+00    0.4959755409E-03    0.5790755206E+00
    0.1000000000E+05    0.6674847938E+00    0.4574972897E-02    0.1016501662E+00    0.1176063942E-02    0.5709983058E+00
    0.3000000000E+05    0.6758522514E+00    0.2699004694E-02    0.1017538340E+00    0.6458542654E-03    0.5772959688E+00
    0.5000000000E+05    0.6775297728E+00    0.2111513959E-02    0.1016012648E+00    0.4906217528E-03    0.5791398551E+00
    0.7000000000E+05    0.6782498399E+00    0.1795797319E-02    0.1014591203E+00    0.4095477991E-03    0.5801265754E+00
    0.9000000000E+05    0.6786505069E+00    0.1590966279E-02    0.1013365319E+00    0.3579021918E-03    0.5807729241E+00
    0.1100000000E+06    0.6789058707E+00    0.1444201831E-02    0.1012303216E+00    0.3213929677E-03    0.5812427040E+00
    0.1300000000E+06    0.6790829261E+00    0.1332335367E-02    0.1011370406E+00    0.2938606245E-03    0.5816065412E+00
    0.1500000000E+06    0.6792129550E+00    0.1243381538E-02    0.1010540207E+00    0.2721602655E-03    0.5819006538E+00
    0.1700000000E+06    0.6793125284E+00    0.1170431413E-02    0.1009792799E+00    0.2544978383E-03    0.5821458366E+00
    0.1900000000E+06    0.6793912455E+00    0.1109183547E-02    0.1009113368E+00    0.2397660247E-03    0.5823550228E+00
    0.2100000000E+06    0.6794550527E+00    0.1056800600E-02    0.1008490652E+00    0.2272398089E-03    0.5825367508E+00
    0.2300000000E+06    0.6795078302E+00    0.1011324756E-02    0.1007915930E+00    0.2164221518E-03    0.5826969253E+00
    0.2500000000E+06    0.6795522183E+00    0.9713553762E-03    0.1007382327E+00    0.2069595082E-03    0.5828397835E+00
    0.2700000000E+06    0.6795900760E+00    0.9358602586E-03    0.1006884337E+00    0.1985926789E-03    0.5829684598E+00
    0.2900000000E+06    0.6796227503E+00    0.9040596247E-03    0.1006417485E+00    0.1911267710E-03    0.5830853322E+00
    0.3100000000E+06    0.6796512412E+00    0.8753518613E-03    0.1005978089E+00    0.1844120680E-03    0.5831922435E+00
    0.3300000000E+06    0.6796763067E+00    0.8492643409E-03    0.1005563079E+00    0.1783314196E-03    0.5832906487E+00
    0.3500000000E+06    0.6796985319E+00    0.8254198855E-03    0.1005169876E+00    0.1727916794E-03    0.5833817143E+00
    0.3700000000E+06    0.6797183756E+00    0.8035133118E-03    0.1004796287E+00    0.1677177398E-03    0.5834663895E+00
    0.3900000000E+06    0.6797362028E+00    0.7832946600E-03    0.1004440436E+00    0.1630482825E-03    0.5835454554E+00
    0.4100000000E+06    0.6797523074E+00    0.7645569659E-03    0.1004100703E+00    0.1587326909E-03    0.5836195621E+00
    0.4300000000E+06    0.6797669286E+00    0.7471271889E-03    0.1003775681E+00    0.1547287659E-03    0.5836892563E+00
    0.4500000000E+06    0.6797802634E+00    0.7308593761E-03    0.1003464141E+00    0.1510010114E-03    0.5837550014E+00
    0.4700000000E+06    0.6797924752E+00    0.7156294392E-03    0.1003164999E+00    0.1475193262E-03    0.5838171934E+00
    0.4900000000E+06    0.6798037009E+00    0.7013311116E-03    0.1002877301E+00    0.1442579961E-03    0.5838761733E+00
    0.1000000000E+06    0.6787909092E+00    0.1512152763E-02    0.1012816121E+00    0.3382431836E-03    0.5810242986E+00
    0.3000000000E+06    0.6796374665E+00    0.8893512436E-03    0.1006194560E+00    0.1876834883E-03    0.5831399343E+00
    0.5000000000E+06    0.6798089808E+00    0.6945021733E-03    0.1002737474E+00    0.1427029304E-03    0.5839045525E+00
    0.7000000000E+06    0.6798832110E+00    0.5900367191E-03    0.1000377680E+00    0.1191317042E-03    0.5843582068E+00
    0.9000000000E+06    0.6799247970E+00    0.5223718970E-03    0.9985817800E-01    0.1041002937E-03    0.5846762537E+00
    0.1100000000E+07    0.6799514596E+00    0.4739460086E-03    0.9971306549E-01    0.9347006159E-04    0.5849192514E+00
    0.1300000000E+07    0.6799700449E+00    0.4370677802E-03    0.9959125448E-01    0.8545246787E-04    0.5851149431E+00
    0.1500000000E+07    0.6799837610E+00    0.4077635465E-03    0.9948626134E-01    0.7913303570E-04    0.5852782419E+00
    0.1700000000E+07    0.6799943123E+00    0.3837451099E-03    0.9939398540E-01    0.7398966848E-04    0.5854180461E+00
    0.1900000000E+07    0.6800026893E+00    0.3635891074E-03    0.9931166660E-01    0.6969996399E-04    0.5855400726E+00
    0.2100000000E+07    0.6800095070E+00    0.3463573496E-03    0.9923735755E-01    0.6605276669E-04    0.5856482025E+00
    0.2300000000E+07    0.6800151679E+00    0.3314028824E-03    0.9916963251E-01    0.6290329089E-04    0.5857451864E+00
    0.2500000000E+07    0.6800199464E+00    0.3182631242E-03    0.9910741611E-01    0.6014853876E-04    0.5858330419E+00
    0.2700000000E+07    0.6800240362E+00    0.3065973410E-03    0.9904987705E-01    0.5771299348E-04    0.5859132908E+00
    0.2900000000E+07    0.6800275780E+00    0.2961482357E-03    0.9899635935E-01    0.5553987189E-04    0.5859871084E+00
    0.3100000000E+07    0.6800306764E+00    0.2867173753E-03    0.9894633623E-01    0.5358555300E-04    0.5860554202E+00
    0.3300000000E+07    0.6800334109E+00    0.2781489247E-03    0.9889937823E-01    0.5181590455E-04    0.5861189681E+00
    0.3500000000E+07    0.6800358428E+00    0.2703185596E-03    0.9885513059E-01    0.5020378844E-04    0.5861783551E+00
    0.3700000000E+07    0.6800380207E+00    0.2631257150E-03    0.9881329687E-01    0.4872732280E-04    0.5862340780E+00
    0.3900000000E+07    0.6800399828E+00    0.2564880449E-03    0.9877362682E-01    0.4736864377E-04    0.5862865506E+00
    0.4100000000E+07    0.6800417603E+00    0.2503373842E-03    0.9873590724E-01    0.4611300569E-04    0.5863361212E+00
    0.4300000000E+07    0.6800433785E+00    0.2446167532E-03    0.9869995499E-01    0.4494811575E-04    0.5863830857E+00
    0.4500000000E+07    0.6800448583E+00    0.2392781019E-03    0.9866561161E-01    0.4386363404E-04    0.5864276974E+00
    0.4700000000E+07    0.6800462169E+00    0.2342805861E-03    0.9863273907E-01    0.4285079266E-04    0.5864701748E+00
    0.4900000000E+07    0.6800474690E+00    0.2295892342E-03    0.9860121639E-01    0.4190210181E-04    0.5865107077E+00
    0.1000000000E+07    0.6799394381E+00    0.4963608367E-03    0.9978216255E-01    0.9837656250E-04    0.5848049701E+00
    0.3000000000E+07    0.6800291772E+00    0.2913161132E-03    0.9897093979E-01    0.5453768404E-04    0.5860219025E+00
    0.5000000000E+07    0.6800480590E+00    0.2273487852E-03    0.9858592743E-01    0.4144976421E-04    0.5865302976E+00
    0.7000000000E+07    0.6800564453E+00    0.1930883171E-03    0.9833069451E-01    0.3459475805E-04    0.5868511504E+00
    0.9000000000E+07    0.6800612436E+00    0.1709095342E-03    0.9813943765E-01    0.3022477912E-04    0.5870847721E+00
    0.1100000000E+08    0.6800643763E+00    0.1550427153E-03    0.9798642260E-01    0.2713507472E-04    0.5872680676E+00
    0.1300000000E+08    0.6800665956E+00    0.1429627761E-03    0.9785887601E-01    0.2480517325E-04    0.5874186678E+00
    0.1500000000E+08    0.6800682574E+00    0.1333657874E-03    0.9774951907E-01    0.2296902709E-04    0.5875463497E+00
    0.1700000000E+08    0.6800695531E+00    0.1255011718E-03    0.9765380729E-01    0.2147477501E-04    0.5876570913E+00
    0.1900000000E+08    0.6800705946E+00    0.1189021714E-03    0.9756871193E-01    0.2022865675E-04    0.5877548113E+00
    0.2100000000E+08    0.6800714521E+00    0.1132612019E-03    0.9749211275E-01    0.1916927359E-04    0.5878422152E+00
    0.2300000000E+08    0.6800721719E+00    0.1083662019E-03    0.9742246744E-01    0.1825453082E-04    0.5879212484E+00
    0.2500000000E+08    0.6800727858E+00    0.1040655697E-03    0.9735861893E-01    0.1745448638E-04    0.5879933561E+00
    0.2700000000E+08    0.6800733163E+00    0.1002476529E-03    0.9729967687E-01    0.1674718925E-04    0.5880596405E+00
