  Pressure (Pa) 22mC5-400 (mol/kg) 2mC6-400 (mol/kg) 3mC6-400 (mol/kg) 33mC5-400 (mol/kg) C7-400 (mol/kg)
    0.1000000000E+01    0.4222156890E-02    0.3151824989E-02    0.5236385134E-03    0.1283173646E-03    0.8497358667E-02
    0.3000000000E+01    0.1243388915E-01    0.9096244096E-02    0.1518884305E-02    0.3703712269E-03    0.2465152960E-01
    0.5000000000E+01    0.2035193095E-01    0.1460059905E-01    0.2450489247E-02    0.5945626414E-03    0.3977747161E-01
    0.7000000000E+01    0.2799451685E-01    0.1970651288E-01    0.3324557881E-02    0.8025801695E-03    0.5397366883E-01
    0.9000000000E+01    0.3537836152E-01    0.2445060295E-01    0.4146432388E-02    0.9959091072E-03    0.6732631565E-01
    0.1100000000E+02    0.4251881475E-01    0.2886521403E-01    0.4920808263E-02    0.1175861287E-02    0.7991118049E-01
    0.1300000000E+02    0.4942999796E-01    0.3297902534E-01    0.5651829524E-02    0.1343599751E-02    0.9179514009E-01
    0.1500000000E+02    0.5612492473E-01    0.3681755624E-01    0.6343167571E-02    0.1500159298E-02    0.1030374503E+00
    0.1700000000E+02    0.6261560741E-01    0.4040358998E-01    0.6998086880E-02    0.1646463702E-02    0.1136908050E+00
    0.1900000000E+02    0.6891315176E-01    0.4375753055E-01    0.7619500026E-02    0.1783340210E-02    0.1238022226E+00
    0.2100000000E+02    0.7502784108E-01    0.4689770494E-01    0.8210014000E-02    0.1911531813E-02    0.1334137928E+00
    0.2300000000E+02    0.8096921110E-01    0.4984062010E-01    0.8771969391E-02    0.2031707686E-02    0.1425633084E+00
    0.2500000000E+02    0.8674611698E-01    0.5260118267E-01    0.9307473688E-02    0.2144472105E-02    0.1512848018E+00
    0.2700000000E+02    0.9236679315E-01    0.5519288733E-01    0.9818429693E-02    0.2250372095E-02    0.1596090033E+00
    0.2900000000E+02    0.9783890699E-01    0.5762797926E-01    0.1030655988E-01    0.2349904024E-02    0.1675637337E+00
    0.3100000000E+02    0.1031696071E+00    0.5991759448E-01    0.1077342735E-01    0.2443519297E-02    0.1751742423E+00
    0.3300000000E+02    0.1083655667E+00    0.6207188169E-01    0.1122045391E-01    0.2531629299E-02    0.1824634984E+00
    0.3500000000E+02    0.1134330225E+00    0.6410010842E-01    0.1164893577E-01    0.2614609704E-02    0.1894524445E+00
    0.3700000000E+02    0.1183778107E+00    0.6601075369E-01    0.1206005716E-01    0.2692804232E-02    0.1961602158E+00
    0.3900000000E+02    0.1232053980E+00    0.6781158926E-01    0.1245490225E-01    0.2766527941E-02    0.2026043321E+00
    0.4100000000E+02    0.1279209113E+00    0.6950975099E-01    0.1283446551E-01    0.2836070128E-02    0.2088008658E+00
    0.4300000000E+02    0.1325291638E+00    0.7111180183E-01    0.1319966087E-01    0.2901696876E-02    0.2147645891E+00
    0.4500000000E+02    0.1370346785E+00    0.7262378736E-01    0.1355132977E-01    0.2963653310E-02    0.2205091035E+00
    0.4700000000E+02    0.1414417105E+00    0.7405128507E-01    0.1389024820E-01    0.3022165593E-02    0.2260469541E+00
    0.4900000000E+02    0.1457542663E+00    0.7539944814E-01    0.1421713302E-01    0.3077442700E-02    0.2313897312E+00
    0.1000000000E+02    0.3897810217E-01    0.2669722137E-01    0.4539286724E-02    0.1087481373E-02    0.7371034866E-01
    0.3000000000E+02    0.1005215060E+00    0.5879031534E-01    0.1054255947E-01    0.2397424646E-02    0.1714105298E+00
    0.5000000000E+02    0.1478763043E+00    0.7604528319E-01    0.1437627205E-01    0.3103929059E-02    0.2339913502E+00
    0.7000000000E+02    0.1861682511E+00    0.8578311532E-01    0.1706462557E-01    0.3503816427E-02    0.2780035397E+00
    0.9000000000E+02    0.2182218336E+00    0.9131633584E-01    0.1907037346E-01    0.3731514167E-02    0.3109328252E+00
    0.1100000000E+03    0.2457316133E+00    0.9433970454E-01    0.2063417759E-01    0.3855926222E-02    0.3366761888E+00
    0.1300000000E+03    0.2697836073E+00    0.9579687403E-01    0.2189407857E-01    0.3915521848E-02    0.3574710851E+00
    0.1500000000E+03    0.2911116572E+00    0.9624676456E-01    0.2293519993E-01    0.3933164700E-02    0.3746985841E+00
    0.1700000000E+03    0.3102336666E+00    0.9603627257E-01    0.2381304532E-01    0.3923104209E-02    0.3892600495E+00
    0.1900000000E+03    0.3275286639E+00    0.9538863632E-01    0.2456544614E-01    0.3894554673E-02    0.4017704289E+00
    0.2100000000E+03    0.3432826951E+00    0.9445164337E-01    0.2521913642E-01    0.3853649697E-02    0.4126646855E+00
    0.2300000000E+03    0.3577173640E+00    0.9332532542E-01    0.2579358289E-01    0.3804566534E-02    0.4222598344E+00
    0.2500000000E+03    0.3710082512E+00    0.9207856078E-01    0.2630332342E-01    0.3750201302E-02    0.4307928385E+00
    0.2700000000E+03    0.3832971905E+00    0.9075938808E-01    0.2675945206E-01    0.3692589364E-02    0.4384446906E+00
    0.2900000000E+03    0.3947006856E+00    0.8940160971E-01    0.2717059444E-01    0.3633175178E-02    0.4453562374E+00
    0.3100000000E+03    0.4053158294E+00    0.8802913030E-01    0.2754356720E-01    0.3572990131E-02    0.4516388848E+00
    0.3300000000E+03    0.4152245610E+00    0.8665887129E-01    0.2788383521E-01    0.3512772416E-02    0.4573820241E+00
    0.3500000000E+03    0.4244967914E+00    0.8530276696E-01    0.2819583575E-01    0.3453049458E-02    0.4626583004E+00
    0.3700000000E+03    0.4331927415E+00    0.8396915460E-01    0.2848321289E-01    0.3394195558E-02    0.4675274239E+00
    0.3900000000E+03    0.4413647203E+00    0.8266375679E-01    0.2874899001E-01    0.3336472832E-02    0.4720389755E+00
    0.4100000000E+03    0.4490584999E+00    0.8139038455E-01    0.2899569867E-01    0.3280060652E-02    0.4762345059E+00
    0.4300000000E+03    0.4563143924E+00    0.8015144603E-01    0.2922547646E-01    0.3225077086E-02    0.4801491283E+00
    0.4500000000E+03    0.4631681060E+00    0.7894831820E-01    0.2944014211E-01    0.3171594638E-02    0.4838127422E+00
    0.4700000000E+03    0.4696514323E+00    0.7778162060E-01    0.2964125382E-01    0.3119651939E-02    0.4872509852E+00
    0.4900000000E+03    0.4757928061E+00    0.7665141827E-01    0.2983015522E-01    0.3069262461E-02    0.4904859819E+00
    0.1000000000E+03    0.2324663717E+00    0.9307082670E-01    0.1989725525E-01    0.3803742250E-02    0.3245364427E+00
    0.3000000000E+03    0.4001013662E+00    0.8871601334E-01    0.2736148311E-01    0.3603127115E-02    0.4485701409E+00
    0.5000000000E+03    0.4787433432E+00    0.7609990965E-01    0.2992039736E-01    0.3044649159E-02    0.4920333647E+00
    0.7000000000E+03    0.5248206572E+00    0.6679460788E-01    0.3129984368E-01    0.2627396401E-02    0.5158695061E+00
    0.9000000000E+03    0.5547354005E+00    0.6004359731E-01    0.3218767487E-01    0.2323461443E-02    0.5314389901E+00
    0.1100000000E+04    0.5755135787E+00    0.5496965312E-01    0.3281695928E-01    0.2095444616E-02    0.5426212679E+00
    0.1300000000E+04    0.5906779925E+00    0.5101413915E-01    0.3329105887E-01    0.1918624127E-02    0.5511486156E+00
    0.1500000000E+04    0.6021752780E+00    0.4783280272E-01    0.3366364674E-01    0.1777434357E-02    0.5579261490E+00
    0.1700000000E+04    0.6111600130E+00    0.4520766025E-01    0.3396567741E-01    0.1661883906E-02    0.5634788662E+00
    0.1900000000E+04    0.6183559199E+00    0.4299551205E-01    0.3421639792E-01    0.1565352588E-02    0.5681349571E+00
    0.2100000000E+04    0.6242374258E+00    0.4109885824E-01    0.3442847454E-01    0.1483310032E-02    0.5721114957E+00
    0.2300000000E+04    0.6291272981E+00    0.3944913458E-01    0.3461062118E-01    0.1412562310E-02    0.5755585423E+00
    0.2500000000E+04    0.6332521061E+00    0.3799673152E-01    0.3476905076E-01    0.1350796963E-02    0.5785835820E+00
    0.2700000000E+04    0.6367752024E+00    0.3670484674E-01    0.3490832518E-01    0.1296299813E-02    0.5812658867E+00
    0.2900000000E+04    0.6398171135E+00    0.3554557501E-01    0.3503187751E-01    0.1247773438E-02    0.5836653682E+00
    0.3100000000E+04    0.6424685774E+00    0.3449734658E-01    0.3514234601E-01    0.1204217584E-02    0.5858282581E+00
    0.3300000000E+04    0.6447991273E+00    0.3354320351E-01    0.3524179499E-01    0.1164848361E-02    0.5877908749E+00
    0.3500000000E+04    0.6468628896E+00    0.3266961155E-01    0.3533186518E-01    0.1129042405E-02    0.5895821978E+00
    0.3700000000E+04    0.6487025919E+00    0.3186562320E-01    0.3541387875E-01    0.1096297475E-02    0.5912256678E+00
    0.3900000000E+04    0.6503523898E+00    0.3112227648E-01    0.3548891423E-01    0.1066204128E-02    0.5927404769E+00
    0.4100000000E+04    0.6518398970E+00    0.3043215526E-01    0.3555786102E-01    0.1038425004E-02    0.5941425086E+00
    0.4300000000E+04    0.6531876690E+00    0.2978906260E-01    0.3562145972E-01    0.1012679443E-02    0.5954450362E+00
    0.4500000000E+04    0.6544143021E+00    0.2918777440E-01    0.3568033253E-01    0.9887318987E-03    0.5966592488E+00
    0.4700000000E+04    0.6555352600E+00    0.2862385117E-01    0.3573500633E-01    0.9663830913E-03    0.5977946539E+00
    0.4900000000E+04    0.6565635024E+00    0.2809349238E-01    0.3578593054E-01    0.9454631844E-03    0.5988593882E+00
    0.1000000000E+04    0.5659954132E+00    0.5733826705E-01    0.3252649717E-01    0.2201775210E-02    0.5374423792E+00
    0.3000000000E+04    0.6411868872E+00    0.3500873234E-01    0.3508860680E-01    0.1225427509E-02    0.5847739196E+00
    0.5000000000E+04    0.6570463419E+00    0.2783985817E-01    0.3581010932E-01    0.9354927086E-03    0.5993674828E+00
    0.7000000000E+04    0.6637691186E+00    0.2392877771E-01    0.3616708528E-01    0.7845977230E-03    0.6071027491E+00
    0.9000000000E+04    0.6674650380E+00    0.2135792804E-01    0.3638296379E-01    0.6883890851E-03    0.6120715635E+00
    0.1100000000E+05    0.6697981104E+00    0.1949610002E-01    0.3652819552E-01    0.6202117192E-03    0.6156052107E+00
    0.1300000000E+05    0.6714033784E+00    0.1806453975E-01    0.3663262284E-01    0.5686509141E-03    0.6182828888E+00
    0.1500000000E+05    0.6725749169E+00    0.1691792445E-01    0.3671121078E-01    0.5278954411E-03    0.6204021206E+00
    0.1700000000E+05    0.6734673642E+00    0.1597184641E-01    0.3677234515E-01    0.4946332481E-03    0.6221333761E+00
    0.1900000000E+05    0.6741697327E+00    0.1517338277E-01    0.3682111199E-01    0.4668196897E-03    0.6235822308E+00
    0.2100000000E+05    0.6747368542E+00    0.1448739908E-01    0.3686078508E-01    0.4431149330E-03    0.6248180040E+00
    0.2300000000E+05    0.6752043377E+00    0.1388951007E-01    0.3689357175E-01    0.4225993629E-03    0.6258883316E+00
    0.2500000000E+05    0.6755963088E+00    0.1336217764E-01    0.3692101682E-01    0.4046179556E-03    0.6268271686E+00
    0.2700000000E+05    0.6759296907E+00    0.1289241465E-01    0.3694423507E-01    0.3886897782E-03    0.6276594560E+00
    0.2900000000E+05    0.6762167038E+00    0.1247036681E-01    0.3696405182E-01    0.3744526687E-03    0.6284039798E+00
    0.3100000000E+05    0.6764663924E+00    0.1208840071E-01    0.3698109150E-01    0.3616279940E-03    0.6290751944E+00
    0.3300000000E+05    0.6766855931E+00    0.1174049738E-01    0.3699583549E-01    0.3499974043E-03    0.6296844271E+00
    0.3500000000E+05    0.6768795697E+00    0.1142183706E-01    0.3700866098E-01    0.3393870359E-03    0.6302406975E+00
    0.3700000000E+05    0.6770524401E+00    0.1112850765E-01    0.3701986771E-01    0.3296564975E-03    0.6307512878E+00
    0.3900000000E+05    0.6772074727E+00    0.1085729563E-01    0.3702969697E-01    0.3206910161E-03    0.6312221514E+00
    0.4100000000E+05    0.6773472941E+00    0.1060553298E-01    0.3703834514E-01    0.3123957244E-03    0.6316582085E+00
    0.4300000000E+05    0.6774740395E+00    0.1037098334E-01    0.3704597367E-01    0.3046914314E-03    0.6320635663E+00
    0.4500000000E+05    0.6775894622E+00    0.1015175595E-01    0.3705271654E-01    0.2975114430E-03    0.6324416833E+00
    0.4700000000E+05    0.6776950157E+00    0.9946239724E-02    0.3705868580E-01    0.2907991359E-03    0.6327954960E+00
    0.4900000000E+05    0.6777919148E+00    0.9753052067E-02    0.3706397591E-01    0.2845060836E-03    0.6331275154E+00
    0.1000000000E+05    0.6687502249E+00    0.2036032206E-01    0.3646203633E-01    0.6517011782E-03    0.6139720149E+00
    0.3000000000E+05    0.6763457433E+00    0.1227478196E-01    0.3697288588E-01    0.3678786232E-03    0.6287479806E+00
    0.5000000000E+05    0.6778374451E+00    0.9660701816E-02    0.3706639181E-01    0.2815035191E-03    0.6332860403E+00
    0.7000000000E+05    0.6784741351E+00    0.8241266878E-02    0.3709333541E-01    0.2358350183E-03    0.6357079592E+00
    0.9000000000E+05    0.6788274139E+00    0.7315136687E-02    0.3709879163E-01    0.2065519520E-03    0.6372751737E+00
    0.1100000000E+06    0.6790521880E+00    0.6649094086E-02    0.3709534924E-01    0.1857638751E-03    0.6383973827E+00
    0.1300000000E+06    0.6792078510E+00    0.6140076684E-02    0.3708776351E-01    0.1700403452E-03    0.6392530839E+00
    0.1500000000E+06    0.6793220705E+00    0.5734498883E-02    0.3707815686E-01    0.1576195430E-03    0.6399341921E+00
    0.1700000000E+06    0.6794094790E+00    0.5401355605E-02    0.3706758081E-01    0.1474920850E-03    0.6404935191E+00
    0.1900000000E+06    0.6794785423E+00    0.5121286994E-02    0.3705659320E-01    0.1390328936E-03    0.6409638672E+00
    0.2100000000E+06    0.6795344996E+00    0.4881492687E-02    0.3704550326E-01    0.1318316099E-03    0.6413668364E+00
    0.2300000000E+06    0.6795807669E+00    0.4673122944E-02    0.3703448671E-01    0.1256062927E-03    0.6417173119E+00
    0.2500000000E+06    0.6796196672E+00    0.4489836079E-02    0.3702364399E-01    0.1201560268E-03    0.6420259331E+00
    0.2700000000E+06    0.6796528352E+00    0.4326951922E-02    0.3701303151E-01    0.1153332796E-03    0.6423005354E+00
    0.2900000000E+06    0.6796814549E+00    0.4180930426E-02    0.3700267929E-01    0.1110269688E-03    0.6425470357E+00
    0.3100000000E+06    0.6797064049E+00    0.4049037384E-02    0.3699260118E-01    0.1071516581E-03    0.6427699974E+00
    0.3300000000E+06    0.6797283508E+00    0.3929122700E-02    0.3698280108E-01    0.1036404241E-03    0.6429730053E+00
    0.3500000000E+06    0.6797478065E+00    0.3819468994E-02    0.3697327673E-01    0.1004400049E-03    0.6431589201E+00
    0.3700000000E+06    0.6797651746E+00    0.3718685589E-02    0.3696402215E-01    0.9750741635E-04    0.6433300567E+00
    0.3900000000E+06    0.6797807753E+00    0.3625632633E-02    0.3695502912E-01    0.9480753873E-04    0.6434883112E+00
    0.4100000000E+06    0.6797948666E+00    0.3539365715E-02    0.3694628818E-01    0.9231136078E-04    0.6436352540E+00
    0.4300000000E+06    0.6798076583E+00    0.3459094742E-02    0.3693778929E-01    0.8999468029E-04    0.6437721986E+00
    0.4500000000E+06    0.6798193232E+00    0.3384152930E-02    0.3692952221E-01    0.8783712690E-04    0.6439002531E+00
    0.4700000000E+06    0.6798300045E+00    0.3313973087E-02    0.3692147678E-01    0.8582141691E-04    0.6440203599E+00
    0.4900000000E+06    0.6798398222E+00    0.3248069249E-02    0.3691364309E-01    0.8393277777E-04    0.6441333264E+00
    0.1000000000E+06    0.6789510356E+00    0.6957718904E-02    0.3709779285E-01    0.1953671339E-03    0.6378778075E+00
    0.3000000000E+06    0.6796943428E+00    0.4113363876E-02    0.3699760555E-01    0.1090399894E-03    0.6426612153E+00
    0.5000000000E+06    0.6798444394E+00    0.3216587573E-02    0.3690980264E-01    0.8303206727E-04    0.6441873534E+00
    0.7000000000E+06    0.6799093278E+00    0.2734542772E-02    0.3684201991E-01    0.6936607413E-04    0.6450208196E+00
    0.9000000000E+06    0.6799456555E+00    0.2421867189E-02    0.3678717233E-01    0.6063854665E-04    0.6455695565E+00
    0.1100000000E+07    0.6799689350E+00    0.2197888339E-02    0.3674113191E-01    0.5446067752E-04    0.6459680560E+00
    0.1300000000E+07    0.6799851557E+00    0.2027208811E-02    0.3670144522E-01    0.4979812209E-04    0.6462755891E+00
    0.1500000000E+07    0.6799971226E+00    0.1891517158E-02    0.3666655436E-01    0.4612132582E-04    0.6465229666E+00
    0.1700000000E+07    0.6800063257E+00    0.1780258858E-02    0.3663541193E-01    0.4312766088E-04    0.6467280365E+00
    0.1900000000E+07    0.6800136303E+00    0.1686863651E-02    0.3660728069E-01    0.4063011027E-04    0.6469019644E+00
    0.2100000000E+07    0.6800195740E+00    0.1606998250E-02    0.3658162222E-01    0.3850611477E-04    0.6470521505E+00
    0.2300000000E+07    0.6800245080E+00    0.1537673043E-02    0.3655803129E-01    0.3667159614E-04    0.6471837246E+00
    0.2500000000E+07    0.6800286722E+00    0.1476749525E-02    0.3653619524E-01    0.3506671785E-04    0.6473003733E+00
    0.2700000000E+07    0.6800322355E+00    0.1422651925E-02    0.3651586769E-01    0.3364759295E-04    0.6474048253E+00
    0.2900000000E+07    0.6800353209E+00    0.1374189970E-02    0.3649685104E-01    0.3238121151E-04    0.6474991508E+00
    0.3100000000E+07    0.6800380196E+00    0.1330445446E-02    0.3647898434E-01    0.3124220843E-04    0.6475849539E+00
    0.3300000000E+07    0.6800404009E+00    0.1290697079E-02    0.3646213473E-01    0.3021073148E-04    0.6476634996E+00
    0.3500000000E+07    0.6800425186E+00    0.1254369318E-02    0.3644619125E-01    0.2927099312E-04    0.6477358015E+00
    0.3700000000E+07    0.6800444147E+00    0.1220996516E-02    0.3643106025E-01    0.2841026118E-04    0.6478026831E+00
    0.3900000000E+07    0.6800461228E+00    0.1190197317E-02    0.3641666198E-01    0.2761813967E-04    0.6478648212E+00
    0.4100000000E+07    0.6800476700E+00    0.1161655989E-02    0.3640292793E-01    0.2688604592E-04    0.6479227784E+00
    0.4300000000E+07    0.6800490784E+00    0.1135108572E-02    0.3638979885E-01    0.2620682391E-04    0.6479770266E+00
    0.4500000000E+07    0.6800503661E+00    0.1110332442E-02    0.3637722309E-01    0.2557445372E-04    0.6480279654E+00
    0.4700000000E+07    0.6800515483E+00    0.1087138341E-02    0.3636515541E-01    0.2498383005E-04    0.6480759356E+00
    0.4900000000E+07    0.6800526378E+00    0.1065364199E-02    0.3635355590E-01    0.2443059130E-04    0.6481212302E+00
    0.1000000000E+07    0.6799584401E+00    0.2301581992E-02    0.3676323203E-01    0.5731272191E-04    0.6457829181E+00
    0.3000000000E+07    0.6800367138E+00    0.1351777033E-02    0.3648778283E-01    0.3179713807E-04    0.6475430318E+00
    0.5000000000E+07    0.6800531511E+00    0.1054965193E-02    0.3634792051E-01    0.2416679817E-04    0.6481429546E+00
    0.7000000000E+07    0.6800604446E+00    0.8959214356E-03    0.3625299515E-01    0.2016854660E-04    0.6484836939E+00
    0.9000000000E+07    0.6800646152E+00    0.7929423920E-03    0.3618092412E-01    0.1761924599E-04    0.6487146850E+00
    0.1100000000E+08    0.6800673370E+00    0.7192631695E-03    0.3612276243E-01    0.1581665926E-04    0.6488864439E+00
    0.1300000000E+08    0.6800692647E+00    0.6631657967E-03    0.3607397728E-01    0.1445730034E-04    0.6490216650E+00
    0.1500000000E+08    0.6800707080E+00    0.6185977619E-03    0.3603194884E-01    0.1338600263E-04    0.6491323351E+00
    0.1700000000E+08    0.6800718333E+00    0.5820744944E-03    0.3599502411E-01    0.1251418298E-04    0.6492254940E+00
    0.1900000000E+08    0.6800727378E+00    0.5514288042E-03    0.3596209233E-01    0.1178714365E-04    0.6493056000E+00
    0.2100000000E+08    0.6800734825E+00    0.5252324292E-03    0.3593237073E-01    0.1116906320E-04    0.6493756404E+00
    0.2300000000E+08    0.6800741077E+00    0.5025006008E-03    0.3590528675E-01    0.1063538119E-04    0.6494377072E+00
    0.2500000000E+08    0.6800746409E+00    0.4825292762E-03    0.3588040881E-01    0.1016862700E-04    0.6494933175E+00
    0.2700000000E+08    0.6800751019E+00    0.4647999177E-03    0.3585740351E-01    0.9755992193E-05    0.6495436040E+00
