  Pressure (Pa) 22mC5-400 (mol/kg) 2mC6-400 (mol/kg) 3mC6-400 (mol/kg) 33mC5-400 (mol/kg) C7-400 (mol/kg)
    0.1000000000E+01    0.4225399314E-02    0.2378492988E-02    0.3164119513E-02    0.1291032880E-03    0.1711470530E-02
    0.3000000000E+01    0.1246172763E-01    0.6946226672E-02    0.9303111205E-02    0.3770352006E-03    0.5032493931E-02
    0.5000000000E+01    0.2042576808E-01    0.1127572137E-01    0.1520262804E-01    0.6120312718E-03    0.8224540602E-02
    0.7000000000E+01    0.2813282412E-01    0.1538265642E-01    0.2087700721E-01    0.8349409505E-03    0.1129532161E-01
    0.9000000000E+01    0.3559704469E-01    0.1928142445E-01    0.2633945264E-01    0.1046544026E-02    0.1425193896E-01
    0.1100000000E+02    0.4283153082E-01    0.2298525817E-01    0.3160214515E-01    0.1247557488E-02    0.1710094473E-01
    0.1300000000E+02    0.4984843070E-01    0.2650634251E-01    0.3667633995E-01    0.1438641602E-02    0.1984839352E-01
    0.1500000000E+02    0.5665902467E-01    0.2985591420E-01    0.4157245324E-01    0.1620405299E-02    0.2249988889E-01
    0.1700000000E+02    0.6327380129E-01    0.3304435034E-01    0.4630013919E-01    0.1793410972E-02    0.2506062480E-01
    0.1900000000E+02    0.6970252558E-01    0.3608124735E-01    0.5086835862E-01    0.1958178746E-02    0.2753542246E-01
    0.2100000000E+02    0.7595430043E-01    0.3897549144E-01    0.5528544042E-01    0.2115190296E-02    0.2992876336E-01
    0.2300000000E+02    0.8203762178E-01    0.4173532170E-01    0.5955913643E-01    0.2264892263E-02    0.3224481874E-01
    0.2500000000E+02    0.8796042849E-01    0.4436838666E-01    0.6369667079E-01    0.2407699315E-02    0.3448747612E-01
    0.2700000000E+02    0.9373014738E-01    0.4688179512E-01    0.6770478431E-01    0.2543996894E-02    0.3666036313E-01
    0.2900000000E+02    0.9935373391E-01    0.4928216182E-01    0.7158977433E-01    0.2674143694E-02    0.3876686897E-01
    0.3100000000E+02    0.1048377092E+00    0.5157564867E-01    0.7535753079E-01    0.2798473891E-02    0.4081016373E-01
    0.3300000000E+02    0.1101881934E+00    0.5376800195E-01    0.7901356878E-01    0.2917299155E-02    0.4279321596E-01
    0.3500000000E+02    0.1154109365E+00    0.5586458595E-01    0.8256305806E-01    0.3030910470E-02    0.4471880846E-01
    0.3700000000E+02    0.1205113456E+00    0.5787041341E-01    0.8601084977E-01    0.3139579788E-02    0.4658955269E-01
    0.3900000000E+02    0.1254945106E+00    0.5979017321E-01    0.8936150072E-01    0.3243561516E-02    0.4840790182E-01
    0.4100000000E+02    0.1303652272E+00    0.6162825540E-01    0.9261929549E-01    0.3343093883E-02    0.5017616257E-01
    0.4300000000E+02    0.1351280179E+00    0.6338877411E-01    0.9578826660E-01    0.3438400173E-02    0.5189650611E-01
    0.4500000000E+02    0.1397871515E+00    0.6507558828E-01    0.9887221281E-01    0.3529689850E-02    0.5357097786E-01
    0.4700000000E+02    0.1443466606E+00    0.6669232071E-01    0.1018747160E+00    0.3617159584E-02    0.5520150653E-01
    0.4900000000E+02    0.1488103582E+00    0.6824237531E-01    0.1047991563E+00    0.3700994192E-02    0.5678991242E-01
    0.1000000000E+02    0.3924222401E-01    0.2115692321E-01    0.2899504393E-01    0.1148331929E-02    0.1568950379E-01
    0.3000000000E+02    0.1021127814E+00    0.5044189675E-01    0.7348795363E-01    0.2737015883E-02    0.3979622767E-01
    0.5000000000E+02    0.1510074128E+00    0.6899340624E-01    0.1062331076E+00    0.3741603050E-02    0.5756886037E-01
    0.7000000000E+02    0.1906996734E+00    0.8119711773E-01    0.1315024921E+00    0.4400074398E-02    0.7130728565E-01
    0.9000000000E+02    0.2239309717E+00    0.8941486105E-01    0.1517023161E+00    0.4840780076E-02    0.8230767762E-01
    0.1100000000E+03    0.2523960790E+00    0.9501507721E-01    0.1682945429E+00    0.5138217985E-02    0.9135801395E-01
    0.1300000000E+03    0.2772057093E+00    0.9883637160E-01    0.1822205990E+00    0.5338133429E-02    0.9896599391E-01
    0.1500000000E+03    0.2991232110E+00    0.1014158923E+00    0.1941153022E+00    0.5469891234E-02    0.1054741550E+00
    0.1700000000E+03    0.3186942880E+00    0.1031101725E+00    0.2044230557E+00    0.5553026917E-02    0.1111224203E+00
    0.1900000000E+03    0.3363222002E+00    0.1041628654E+00    0.2134647755E+00    0.5600922150E-02    0.1160841381E+00
    0.2100000000E+03    0.3523134540E+00    0.1047445603E+00    0.2214783487E+00    0.5622967611E-02    0.1204878757E+00
    0.2300000000E+03    0.3669066949E+00    0.1049771363E+00    0.2286441021E+00    0.5625887697E-02    0.1244311429E+00
    0.2500000000E+03    0.3802916192E+00    0.1049491730E+00    0.2351013964E+00    0.5614579968E-02    0.1279893370E+00
    0.2700000000E+03    0.3926217338E+00    0.1047259885E+00    0.2409597640E+00    0.5592662867E-02    0.1312217483E+00
    0.2900000000E+03    0.4040231988E+00    0.1043563455E+00    0.2463065813E+00    0.5562842276E-02    0.1341756982E+00
    0.3100000000E+03    0.4146011039E+00    0.1038770299E+00    0.2512124736E+00    0.5527162315E-02    0.1368894556E+00
    0.3300000000E+03    0.4244440206E+00    0.1033160394E+00    0.2557352019E+00    0.5487180336E-02    0.1393943347E+00
    0.3500000000E+03    0.4336273687E+00    0.1026948416E+00    0.2599225075E+00    0.5444091122E-02    0.1417162306E+00
    0.3700000000E+03    0.4422159501E+00    0.1020299980E+00    0.2638142283E+00    0.5398816423E-02    0.1438767624E+00
    0.3900000000E+03    0.4502658885E+00    0.1013343473E+00    0.2674438960E+00    0.5352070369E-02    0.1458941358E+00
    0.4100000000E+03    0.4578261334E+00    0.1006178796E+00    0.2708399576E+00    0.5304407865E-02    0.1477838036E+00
    0.4300000000E+03    0.4649396456E+00    0.9988838765E-01    0.2740267217E+00    0.5256260777E-02    0.1495589769E+00
    0.4500000000E+03    0.4716443407E+00    0.9915195819E-01    0.2770250981E+00    0.5207965272E-02    0.1512310252E+00
    0.4700000000E+03    0.4779738492E+00    0.9841334530E-01    0.2798531836E+00    0.5159782651E-02    0.1528097929E+00
    0.4900000000E+03    0.4839581360E+00    0.9767625660E-01    0.2825267287E+00    0.5111915354E-02    0.1543038525E+00
    0.1000000000E+03    0.2386796737E+00    0.9248072695E-01    0.1603814979E+00    0.5004058566E-02    0.8704000165E-01
    0.3000000000E+03    0.4094092177E+00    0.1041284711E+00    0.2488107690E+00    0.5545627631E-02    0.1355605011E+00
    0.5000000000E+03    0.4868293101E+00    0.9730921176E-01    0.2838099233E+00    0.5088150230E-02    0.1550214986E+00
    0.7000000000E+03    0.5313582633E+00    0.9046995452E-01    0.3039470640E+00    0.4651597683E-02    0.1663369453E+00
    0.9000000000E+03    0.5599968585E+00    0.8480786858E-01    0.3175028166E+00    0.4297290253E-02    0.1740221138E+00
    0.1100000000E+04    0.5797971379E+00    0.8016221950E-01    0.3274569257E+00    0.4011285130E-02    0.1797094455E+00
    0.1300000000E+04    0.5942188366E+00    0.7628987309E-01    0.3351817329E+00    0.3776448275E-02    0.1841539288E+00
    0.1500000000E+04    0.6051468737E+00    0.7300224654E-01    0.3414104079E+00    0.3579844518E-02    0.1877604602E+00
    0.1700000000E+04    0.6136889784E+00    0.7016431840E-01    0.3465757899E+00    0.3412316926E-02    0.1907689249E+00
    0.1900000000E+04    0.6205353539E+00    0.6767960399E-01    0.3509525004E+00    0.3267376716E-02    0.1933320256E+00
    0.2100000000E+04    0.6261366991E+00    0.6547798227E-01    0.3547245351E+00    0.3140345493E-02    0.1955523910E+00
    0.2300000000E+04    0.6307988836E+00    0.6350740088E-01    0.3580205481E+00    0.3027778306E-02    0.1975019928E+00
    0.2500000000E+04    0.6347362955E+00    0.6172839845E-01    0.3609336430E+00    0.2927084922E-02    0.1992330608E+00
    0.2700000000E+04    0.6381033794E+00    0.6011047003E-01    0.3635331296E+00    0.2836279572E-02    0.2007845800E+00
    0.2900000000E+04    0.6410140517E+00    0.5862961570E-01    0.3658718401E+00    0.2753812828E-02    0.2021863434E+00
    0.3100000000E+04    0.6435540742E+00    0.5726665422E-01    0.3679908659E+00    0.2678456425E-02    0.2034615795E+00
    0.3300000000E+04    0.6457891834E+00    0.5600603910E-01    0.3699227242E+00    0.2609222774E-02    0.2046287134E+00
    0.3500000000E+04    0.6477705720E+00    0.5483501135E-01    0.3716935378E+00    0.2545307631E-02    0.2057025806E+00
    0.3700000000E+04    0.6495386736E+00    0.5374298192E-01    0.3733245717E+00    0.2486048522E-02    0.2066952842E+00
    0.3900000000E+04    0.6511258306E+00    0.5272107396E-01    0.3748333398E+00    0.2430894101E-02    0.2076168135E+00
    0.4100000000E+04    0.6525582089E+00    0.5176177839E-01    0.3762344182E+00    0.2379381211E-02    0.2084754992E+00
    0.4300000000E+04    0.6538571969E+00    0.5085869098E-01    0.3775400513E+00    0.2331117472E-02    0.2092783538E+00
    0.4500000000E+04    0.6550404423E+00    0.5000630905E-01    0.3787606126E+00    0.2285767896E-02    0.2100313293E+00
    0.4700000000E+04    0.6561226311E+00    0.4919987246E-01    0.3799049573E+00    0.2243044472E-02    0.2107395166E+00
    0.4900000000E+04    0.6571160806E+00    0.4843523779E-01    0.3809806981E+00    0.2202697975E-02    0.2114073001E+00
    0.1000000000E+04    0.5707342181E+00    0.8237416920E-01    0.3228229525E+00    0.4146907372E-02    0.1770566405E+00
    0.3000000000E+04    0.6423258906E+00    0.5793444394E-01    0.3669566097E+00    0.2715312435E-02    0.2028385295E+00
    0.5000000000E+04    0.6575828444E+00    0.4806744487E-01    0.3814949352E+00    0.2183347168E-02    0.2117272479E+00
    0.7000000000E+04    0.6641009993E+00    0.4222369421E-01    0.3893925010E+00    0.1880698698E-02    0.2167080586E+00
    0.9000000000E+04    0.6677017814E+00    0.3820937993E-01    0.3945280750E+00    0.1677931112E-02    0.2200293911E+00
    0.1100000000E+05    0.6699821039E+00    0.3521915466E-01    0.3982043725E+00    0.1529550725E-02    0.2224589883E+00
    0.1300000000E+05    0.6715546230E+00    0.3287383922E-01    0.4009997205E+00    0.1414747878E-02    0.2243423114E+00
    0.1500000000E+05    0.6727041615E+00    0.3096707639E-01    0.4032154358E+00    0.1322433352E-02    0.2258614709E+00
    0.1700000000E+05    0.6735809452E+00    0.2937521078E-01    0.4050259865E+00    0.1246069516E-02    0.2271230241E+00
    0.1900000000E+05    0.6742716530E+00    0.2801883960E-01    0.4065402990E+00    0.1181513220E-02    0.2281941392E+00
    0.2100000000E+05    0.6748297825E+00    0.2684424013E-01    0.4078303470E+00    0.1125991820E-02    0.2291195935E+00
    0.2300000000E+05    0.6752901314E+00    0.2581354339E-01    0.4089458412E+00    0.1077569071E-02    0.2299305714E+00
    0.2500000000E+05    0.6756763071E+00    0.2489915837E-01    0.4099223606E+00    0.1034845652E-02    0.2306495674E+00
    0.2700000000E+05    0.6760048882E+00    0.2408042702E-01    0.4107861256E+00    0.9967813370E-03    0.2312932825E+00
    0.2900000000E+05    0.6762878575E+00    0.2334152433E-01    0.4115569395E+00    0.9625843451E-03    0.2318744195E+00
    0.3100000000E+05    0.6765340911E+00    0.2267008914E-01    0.4122500735E+00    0.9316397622E-03    0.2324028405E+00
    0.3300000000E+05    0.6767503032E+00    0.2205630243E-01    0.4128775166E+00    0.9034616924E-03    0.2328863383E+00
    0.3500000000E+05    0.6769416667E+00    0.2149224959E-01    0.4134488293E+00    0.8776603572E-03    0.2333311656E+00
    0.3700000000E+05    0.6771122307E+00    0.2097146839E-01    0.4139717398E+00    0.8539189150E-03    0.2337424078E+00
    0.3900000000E+05    0.6772652105E+00    0.2048862198E-01    0.4144525720E+00    0.8319767744E-03    0.2341242501E+00
    0.4100000000E+05    0.6774031912E+00    0.2003925780E-01    0.4148965565E+00    0.8116173550E-03    0.2344801737E+00
    0.4300000000E+05    0.6775282751E+00    0.1961962692E-01    0.4153080614E+00    0.7926589557E-03    0.2348131017E+00
    0.4500000000E+05    0.6776421891E+00    0.1922654673E-01    0.4156907672E+00    0.7749478411E-03    0.2351255102E+00
    0.4700000000E+05    0.6777463653E+00    0.1885729500E-01    0.4160477991E+00    0.7583529324E-03    0.2354195127E+00
    0.4900000000E+05    0.6778420009E+00    0.1850952736E-01    0.4163818304E+00    0.7427616832E-03    0.2356969259E+00
    0.1000000000E+05    0.6689571740E+00    0.3661568799E-01    0.3965031349E+00    0.1598568444E-02    0.2213285705E+00
    0.3000000000E+05    0.6764151044E+00    0.2299803800E-01    0.4119124017E+00    0.9467384519E-03    0.2321446911E+00
    0.5000000000E+05    0.6778869376E+00    0.1834305445E-01    0.4165409527E+00    0.7353115153E-03    0.2358299111E+00
    0.7000000000E+05    0.6785152327E+00    0.1576576898E-01    0.4189368554E+00    0.6211003320E-03    0.2379087644E+00
    0.9000000000E+05    0.6788636284E+00    0.1406530367E-01    0.4204414158E+00    0.5469764176E-03    0.2393087450E+00
    0.1100000000E+06    0.6790851003E+00    0.1283306683E-01    0.4214882518E+00    0.4939267201E-03    0.2403435556E+00
    0.1300000000E+06    0.6792383287E+00    0.1188601255E-01    0.4222648340E+00    0.4535605078E-03    0.2411539114E+00
    0.1500000000E+06    0.6793506510E+00    0.1112806092E-01    0.4228668568E+00    0.4215238476E-03    0.2418139751E+00
    0.1700000000E+06    0.6794365230E+00    0.1050321964E-01    0.4233488039E+00    0.3953030003E-03    0.2423671998E+00
    0.1900000000E+06    0.6795043064E+00    0.9976327329E-02    0.4237442047E+00    0.3733318164E-03    0.2428410375E+00
    0.2100000000E+06    0.6795591741E+00    0.9524027144E-02    0.4240749350E+00    0.3545770203E-03    0.2432538395E+00
    0.2300000000E+06    0.6796044982E+00    0.9130107243E-02    0.4243559329E+00    0.3383257298E-03    0.2436184260E+00
    0.2500000000E+06    0.6796425707E+00    0.8782910895E-02    0.4245977793E+00    0.3240681211E-03    0.2439440749E+00
    0.2700000000E+06    0.6796750038E+00    0.8473809952E-02    0.4248081976E+00    0.3114286670E-03    0.2442376980E+00
    0.2900000000E+06    0.6797029649E+00    0.8196261059E-02    0.4249929690E+00    0.3001238451E-03    0.2445045702E+00
    0.3100000000E+06    0.6797273198E+00    0.7945198528E-02    0.4251565140E+00    0.2899350592E-03    0.2447488013E+00
    0.3300000000E+06    0.6797487244E+00    0.7716630452E-02    0.4253022758E+00    0.2806907033E-03    0.2449736495E+00
    0.3500000000E+06    0.6797676846E+00    0.7507362198E-02    0.4254329788E+00    0.2722539306E-03    0.2451817384E+00
    0.3700000000E+06    0.6797845967E+00    0.7314802322E-02    0.4255508098E+00    0.2645141002E-03    0.2453752088E+00
    0.3900000000E+06    0.6797997760E+00    0.7136823347E-02    0.4256575454E+00    0.2573806629E-03    0.2455558284E+00
    0.4100000000E+06    0.6798134759E+00    0.6971659949E-02    0.4257546452E+00    0.2507787039E-03    0.2457250723E+00
    0.4300000000E+06    0.6798259028E+00    0.6817833215E-02    0.4258433203E+00    0.2446456373E-03    0.2458841833E+00
    0.4500000000E+06    0.6798372266E+00    0.6674093429E-02    0.4259245845E+00    0.2389287158E-03    0.2460342173E+00
    0.4700000000E+06    0.6798475879E+00    0.6539376248E-02    0.4259992936E+00    0.2335831292E-03    0.2461760784E+00
    0.4900000000E+06    0.6798571046E+00    0.6412768722E-02    0.4260681749E+00    0.2285705329E-03    0.2463105462E+00
    0.1000000000E+06    0.6789854596E+00    0.1340502597E-01    0.4210072100E+00    0.5184782616E-03    0.2398607605E+00
    0.3000000000E+06    0.6797155480E+00    0.8067689930E-02    0.4250771602E+00    0.2949016092E-03    0.2446292952E+00
    0.5000000000E+06    0.6798615779E+00    0.6352255497E-02    0.4261006284E+00    0.2261786029E-03    0.2463752226E+00
    0.7000000000E+06    0.6799242432E+00    0.5422864747E-02    0.4265564415E+00    0.1897746242E-03    0.2474061312E+00
    0.9000000000E+06    0.6799591048E+00    0.4817062740E-02    0.4268022820E+00    0.1664093483E-03    0.2481243725E+00
    0.1100000000E+07    0.6799813190E+00    0.4381582607E-02    0.4269474535E+00    0.1498106820E-03    0.2486698593E+00
    0.1300000000E+07    0.6799967176E+00    0.4048829311E-02    0.4270369735E+00    0.1372486368E-03    0.2491067742E+00
    0.1500000000E+07    0.6800080238E+00    0.3783704056E-02    0.4270928113E+00    0.1273202072E-03    0.2494695928E+00
    0.1700000000E+07    0.6800166798E+00    0.3565916725E-02    0.4271269483E+00    0.1192212146E-03    0.2497788519E+00
    0.1900000000E+07    0.6800235213E+00    0.3382806125E-02    0.4271464547E+00    0.1124534806E-03    0.2500477183E+00
    0.2100000000E+07    0.6800290656E+00    0.3226004821E-02    0.4271557560E+00    0.1066898574E-03    0.2502851107E+00
    0.2300000000E+07    0.6800336505E+00    0.3089729830E-02    0.4271577515E+00    0.1017055154E-03    0.2504973356E+00
    0.2500000000E+07    0.6800375058E+00    0.2969838132E-02    0.4271544114E+00    0.9734019925E-04    0.2506890074E+00
    0.2700000000E+07    0.6800407932E+00    0.2863272740E-02    0.4271471146E+00    0.9347620679E-04    0.2508635992E+00
    0.2900000000E+07    0.6800436299E+00    0.2767721679E-02    0.4271368503E+00    0.9002489716E-04    0.2510237869E+00
    0.3100000000E+07    0.6800461029E+00    0.2681399426E-02    0.4271243428E+00    0.8691808083E-04    0.2511716739E+00
    0.3300000000E+07    0.6800482782E+00    0.2602901988E-02    0.4271101318E+00    0.8410233351E-04    0.2513089418E+00
    0.3500000000E+07    0.6800502066E+00    0.2531107972E-02    0.4270946252E+00    0.8153512889E-04    0.2514369552E+00
    0.3700000000E+07    0.6800519280E+00    0.2465109328E-02    0.4270781356E+00    0.7918214066E-04    0.2515568359E+00
    0.3900000000E+07    0.6800534742E+00    0.2404161782E-02    0.4270609049E+00    0.7701531784E-04    0.2516695169E+00
    0.4100000000E+07    0.6800548708E+00    0.2347648667E-02    0.4270431222E+00    0.7501148463E-04    0.2517757818E+00
    0.4300000000E+07    0.6800561385E+00    0.2295054069E-02    0.4270249364E+00    0.7315130371E-04    0.2518762952E+00
    0.4500000000E+07    0.6800572945E+00    0.2245942576E-02    0.4270064655E+00    0.7141849675E-04    0.2519716249E+00
    0.4700000000E+07    0.6800583529E+00    0.2199943796E-02    0.4269878037E+00    0.6979924986E-04    0.2520622603E+00
    0.4900000000E+07    0.6800593257E+00    0.2156740365E-02    0.4269690264E+00    0.6828175436E-04    0.2521486255E+00
    0.1000000000E+07    0.6799713190E+00    0.4583356670E-02    0.4268838435E+00    0.1574798829E-03    0.2484137046E+00
    0.3000000000E+07    0.6800449074E+00    0.2723502307E-02    0.4271308396E+00    0.8843206014E-04    0.2510991544E+00
    0.5000000000E+07    0.6800597832E+00    0.2136099876E-02    0.4269596139E+00    0.6755793150E-04    0.2521903243E+00
    0.7000000000E+07    0.6800662104E+00    0.1819816372E-02    0.4267749646E+00    0.5656571209E-04    0.2528694312E+00
    0.9000000000E+07    0.6800698062E+00    0.1614374686E-02    0.4266058819E+00    0.4953423739E-04    0.2533594780E+00
    0.1100000000E+08    0.6800721089E+00    0.1467038311E-02    0.4264540165E+00    0.4455033077E-04    0.2537414836E+00
    0.1300000000E+08    0.6800737124E+00    0.1354649830E-02    0.4263172551E+00    0.4078467126E-04    0.2540538024E+00
    0.1500000000E+08    0.6800748947E+00    0.1265221056E-02    0.4261932215E+00    0.3781226930E-04    0.2543175521E+00
    0.1700000000E+08    0.6800758036E+00    0.1191837546E-02    0.4260798793E+00    0.3539005287E-04    0.2545455705E+00
    0.1900000000E+08    0.6800765247E+00    0.1130192378E-02    0.4259755791E+00    0.3336769860E-04    0.2547462319E+00
    0.2100000000E+08    0.6800771112E+00    0.1077443401E-02    0.4258789989E+00    0.3164662850E-04    0.2549252941E+00
    0.2300000000E+08    0.6800775979E+00    0.1031628734E-02    0.4257890745E+00    0.3015917492E-04    0.2550868825E+00
    0.2500000000E+08    0.6800780086E+00    0.9913443321E-03    0.4257049420E+00    0.2885715348E-04    0.2552340514E+00
    0.2700000000E+08    0.6800783599E+00    0.9555551425E-03    0.4256258924E+00    0.2770520513E-04    0.2553691242E+00
