  Pressure (Pa) 22mC5-400 (mol/kg) 2mC6-400 (mol/kg) 3mC6-400 (mol/kg) 33mC5-400 (mol/kg) C7-400 (mol/kg)
    0.1000000000E+01    0.4222424451E-02    0.3150128539E-02    0.1046551602E-02    0.6412466299E-04    0.8491502131E-02
    0.3000000000E+01    0.1243618402E-01    0.9082080246E-02    0.3031676326E-02    0.1849017806E-03    0.2460234037E-01
    0.5000000000E+01    0.2035801215E-01    0.1456400558E-01    0.4885148256E-02    0.2965485227E-03    0.3964964590E-01
    0.7000000000E+01    0.2800589841E-01    0.1963964206E-01    0.6620025599E-02    0.3999518903E-03    0.5373875045E-01
    0.9000000000E+01    0.3539634407E-01    0.2434730605E-01    0.8247682763E-02    0.4958888203E-03    0.6696141400E-01
    0.1100000000E+02    0.4254451278E-01    0.2872071243E-01    0.9778073840E-02    0.5850428463E-03    0.7939794752E-01
    0.1300000000E+02    0.4946436338E-01    0.3278964864E-01    0.1121994809E-01    0.6680177983E-03    0.9111894914E-01
    0.1500000000E+02    0.5616876726E-01    0.3658053271E-01    0.1258102733E-01    0.7453491404E-03    0.1021867333E+00
    0.1700000000E+02    0.6266961229E-01    0.4011687799E-01    0.1386815281E-01    0.8175134115E-03    0.1126565147E+00
    0.1900000000E+02    0.6897789513E-01    0.4341968250E-01    0.1508740765E-01    0.8849361338E-03    0.1225773944E+00
    0.2100000000E+02    0.7510380340E-01    0.4650775682E-01    0.1624421929E-01    0.9479984707E-03    0.1319931861E+00
    0.2300000000E+02    0.8105678883E-01    0.4939800168E-01    0.1734344581E-01    0.1007042863E-02    0.1409431113E+00
    0.2500000000E+02    0.8684563282E-01    0.5210564409E-01    0.1838944895E-01    0.1062377823E-02    0.1494623882E+00
    0.2700000000E+02    0.9247850498E-01    0.5464443907E-01    0.1938615610E-01    0.1114282025E-02    0.1575827314E+00
    0.2900000000E+02    0.9796301576E-01    0.5702684274E-01    0.2033711326E-01    0.1163007823E-02    0.1653327789E+00
    0.3100000000E+02    0.1033062637E+00    0.5926416145E-01    0.2124553045E-01    0.1208784270E-02    0.1727384578E+00
    0.3300000000E+02    0.1085148779E+00    0.6136668075E-01    0.2211432070E-01    0.1251819741E-02    0.1798232990E+00
    0.3500000000E+02    0.1135950568E+00    0.6334377731E-01    0.2294613376E-01    0.1292304197E-02    0.1866087094E+00
    0.3700000000E+02    0.1185526021E+00    0.6520401642E-01    0.2374338537E-01    0.1330411165E-02    0.1931142067E+00
    0.3900000000E+02    0.1233929511E+00    0.6695523712E-01    0.2450828259E-01    0.1366299461E-02    0.1993576250E+00
    0.4100000000E+02    0.1281212044E+00    0.6860462686E-01    0.2524284599E-01    0.1400114710E-02    0.2053552932E+00
    0.4300000000E+02    0.1327421524E+00    0.7015878714E-01    0.2594892905E-01    0.1431990668E-02    0.2111221913E+00
    0.4500000000E+02    0.1372602981E+00    0.7162379129E-01    0.2662823513E-01    0.1462050398E-02    0.2166720875E+00
    0.4700000000E+02    0.1416798790E+00    0.7300523565E-01    0.2728233249E-01    0.1490407308E-02    0.2220176594E+00
    0.4900000000E+02    0.1460048866E+00    0.7430828482E-01    0.2791266747E-01    0.1517166064E-02    0.2271706000E+00
    0.1000000000E+02    0.3899981382E-01    0.2657384472E-01    0.9024463739E-02    0.5412742320E-03    0.7327332506E-01
    0.3000000000E+02    0.1006518727E+00    0.5816297233E-01    0.2079645075E-01    0.1186251235E-02    0.1690771410E+00
    0.5000000000E+02    0.1481331099E+00    0.7493191709E-01    0.2821934561E-01    0.1529976654E-02    0.2296782420E+00
    0.7000000000E+02    0.1865413087E+00    0.8427406954E-01    0.3338119968E-01    0.1722259464E-02    0.2719485532E+00
    0.9000000000E+02    0.2186943803E+00    0.8949352996E-01    0.3720911396E-01    0.1830109015E-02    0.3033874417E+00
    0.1100000000E+03    0.2462867477E+00    0.9226762863E-01    0.4017964444E-01    0.1887608445E-02    0.3278538596E+00
    0.1300000000E+03    0.2704061561E+00    0.9352507311E-01    0.4256384444E-01    0.1913682839E-02    0.3475449442E+00
    0.1500000000E+03    0.2917885519E+00    0.9381343514E-01    0.4452779353E-01    0.1919531830E-02    0.3638082859E+00
    0.1700000000E+03    0.3109538361E+00    0.9347119919E-01    0.4617923512E-01    0.1912109675E-02    0.3775189995E+00
    0.1900000000E+03    0.3282827905E+00    0.9271535220E-01    0.4759130530E-01    0.1895897921E-02    0.3892716964E+00
    0.2100000000E+03    0.3440629547E+00    0.9168898348E-01    0.4881550907E-01    0.1873869715E-02    0.3994855307E+00
    0.2300000000E+03    0.3585171897E+00    0.9048854454E-01    0.4988924076E-01    0.1848042843E-02    0.4084651146E+00
    0.2500000000E+03    0.3718221306E+00    0.8918014669E-01    0.5084035585E-01    0.1819810995E-02    0.4164375737E+00
    0.2700000000E+03    0.3841204955E+00    0.8780966104E-01    0.5169006383E-01    0.1790149543E-02    0.4235760072E+00
    0.2900000000E+03    0.3955295311E+00    0.8640917080E-01    0.5245482236E-01    0.1759747365E-02    0.4300148577E+00
    0.3100000000E+03    0.4061469558E+00    0.8500120135E-01    0.5314761425E-01    0.1729093556E-02    0.4358602797E+00
    0.3300000000E+03    0.4160552367E+00    0.8360155610E-01    0.5377883088E-01    0.1698535770E-02    0.4411973167E+00
    0.3500000000E+03    0.4253247318E+00    0.8222125453E-01    0.5435689711E-01    0.1668320265E-02    0.4460949801E+00
    0.3700000000E+03    0.4340160407E+00    0.8086787906E-01    0.5488872227E-01    0.1638619860E-02    0.4506099175E+00
    0.3900000000E+03    0.4421817945E+00    0.7954652460E-01    0.5538003142E-01    0.1609553753E-02    0.4547891091E+00
    0.4100000000E+03    0.4498680392E+00    0.7826047660E-01    0.5583561270E-01    0.1581201743E-02    0.4586718805E+00
    0.4300000000E+03    0.4571153203E+00    0.7701170037E-01    0.5625950451E-01    0.1553614566E-02    0.4622914286E+00
    0.4500000000E+03    0.4639595451E+00    0.7580119760E-01    0.5665513919E-01    0.1526821476E-02    0.4656759925E+00
    0.4700000000E+03    0.4704326750E+00    0.7462926812E-01    0.5702545453E-01    0.1500835847E-02    0.4688497627E+00
    0.4900000000E+03    0.4765632898E+00    0.7349570335E-01    0.5737298129E-01    0.1475659349E-02    0.4718335957E+00
    0.1000000000E+03    0.2329822356E+00    0.9111634645E-01    0.3878135616E-01    0.1863729436E-02    0.3163285524E+00
    0.3000000000E+03    0.4009317245E+00    0.8570500192E-01    0.5280951227E-01    0.1744427412E-02    0.4330060050E+00
    0.5000000000E+03    0.4795082760E+00    0.7294313970E-01    0.5753889589E-01    0.1463372634E-02    0.4732600337E+00
    0.7000000000E+03    0.5254667175E+00    0.6367233568E-01    0.6006595938E-01    0.1256073494E-02    0.4951641344E+00
    0.9000000000E+03    0.5552728714E+00    0.5700367193E-01    0.6168241908E-01    0.1106160593E-02    0.5093970506E+00
    0.1100000000E+04    0.5759625801E+00    0.5202321744E-01    0.6282274171E-01    0.9942974102E-03    0.5195801691E+00
    0.1300000000E+04    0.5910567978E+00    0.4816035820E-01    0.6367857854E-01    0.9079321206E-03    0.5273225060E+00
    0.1500000000E+04    0.6024984290E+00    0.4506681586E-01    0.6434902336E-01    0.8392288690E-03    0.5334614696E+00
    0.1700000000E+04    0.6114386829E+00    0.4252345596E-01    0.6489102075E-01    0.7831857861E-03    0.5384812031E+00
    0.1900000000E+04    0.6185986462E+00    0.4038702395E-01    0.6533986842E-01    0.7365026221E-03    0.5426835178E+00
    0.2100000000E+04    0.6244507683E+00    0.3856037687E-01    0.6571873230E-01    0.6969287385E-03    0.5462675601E+00
    0.2300000000E+04    0.6293163466E+00    0.3697544107E-01    0.6604351119E-01    0.6628821651E-03    0.5493707061E+00
    0.2500000000E+04    0.6334208546E+00    0.3558311584E-01    0.6632551612E-01    0.6332205688E-03    0.5520911713E+00
    0.2700000000E+04    0.6369268211E+00    0.3434707945E-01    0.6657303593E-01    0.6070992007E-03    0.5545012694E+00
    0.2900000000E+04    0.6399541469E+00    0.3323986246E-01    0.6679229727E-01    0.5838801044E-03    0.5566555708E+00
    0.3100000000E+04    0.6425930896E+00    0.3224028271E-01    0.6698807722E-01    0.5630724501E-03    0.5585961270E+00
    0.3300000000E+04    0.6449128088E+00    0.3133172395E-01    0.6716410795E-01    0.5442923153E-03    0.5603559322E+00
    0.3500000000E+04    0.6469671381E+00    0.3050095197E-01    0.6732335160E-01    0.5272349441E-03    0.5619612822E+00
    0.3700000000E+04    0.6487985729E+00    0.2973728264E-01    0.6746819205E-01    0.5116552101E-03    0.5634334254E+00
    0.3900000000E+04    0.6504410823E+00    0.2903198536E-01    0.6760057146E-01    0.4973535961E-03    0.5647897414E+00
    0.4100000000E+04    0.6519221299E+00    0.2837784771E-01    0.6772208956E-01    0.4841659574E-03    0.5660446011E+00
    0.4300000000E+04    0.6532641485E+00    0.2776885256E-01    0.6783407701E-01    0.4719559315E-03    0.5672100034E+00
    0.4500000000E+04    0.6544856340E+00    0.2719993499E-01    0.6793765055E-01    0.4606092293E-03    0.5682960556E+00
    0.4700000000E+04    0.6556019667E+00    0.2666679688E-01    0.6803375492E-01    0.4500292840E-03    0.5693113394E+00
    0.4900000000E+04    0.6566260370E+00    0.2616576362E-01    0.6812319524E-01    0.4401338963E-03    0.5702631943E+00
    0.1000000000E+04    0.5664861529E+00    0.5434473053E-01    0.6229698858E-01    0.1046395770E-02    0.5148682228E+00
    0.3000000000E+04    0.6413174274E+00    0.3272774751E-01    0.6689286838E-01    0.5732009744E-03    0.5576503245E+00
    0.5000000000E+04    0.6571069417E+00    0.2592628046E-01    0.6816563614E-01    0.4354204970E-03    0.5707173454E+00
    0.7000000000E+04    0.6638046726E+00    0.2224344381E-01    0.6879014751E-01    0.3643049163E-03    0.5776262327E+00
    0.9000000000E+04    0.6674886755E+00    0.1983229899E-01    0.6916557806E-01    0.3191732794E-03    0.5820610307E+00
    0.1100000000E+05    0.6698150921E+00    0.1809051040E-01    0.6941691886E-01    0.2872871098E-03    0.5852149621E+00
    0.1300000000E+05    0.6714162390E+00    0.1675356896E-01    0.6959686445E-01    0.2632231688E-03    0.5876058256E+00
    0.1500000000E+05    0.6725850353E+00    0.1568410444E-01    0.6973174374E-01    0.2442319051E-03    0.5894991706E+00
    0.1700000000E+05    0.6734755584E+00    0.1480254990E-01    0.6983626667E-01    0.2287510966E-03    0.5910469810E+00
    0.1900000000E+05    0.6741765205E+00    0.1405912346E-01    0.6991933249E-01    0.2158186597E-03    0.5923433138E+00
    0.2100000000E+05    0.6747425801E+00    0.1342083139E-01    0.6998665673E-01    0.2048053759E-03    0.5934498942E+00
    0.2300000000E+05    0.6752092405E+00    0.1286480541E-01    0.7004208547E-01    0.1952800600E-03    0.5944091251E+00
    0.2500000000E+05    0.6756005596E+00    0.1237461704E-01    0.7008830557E-01    0.1869359975E-03    0.5952512251E+00
    0.2700000000E+05    0.6759334154E+00    0.1193811252E-01    0.7012725268E-01    0.1795482477E-03    0.5959983881E+00
    0.2900000000E+05    0.6762199972E+00    0.1154607741E-01    0.7016035759E-01    0.1729475870E-03    0.5966673300E+00
    0.3100000000E+05    0.6764693275E+00    0.1119137905E-01    0.7018870129E-01    0.1670039323E-03    0.5972709129E+00
    0.3300000000E+05    0.6766882271E+00    0.1086839680E-01    0.7021311592E-01    0.1616154208E-03    0.5978192169E+00
    0.3500000000E+05    0.6768819477E+00    0.1057263236E-01    0.7023425260E-01    0.1567009972E-03    0.5983202689E+00
    0.3700000000E+05    0.6770545988E+00    0.1030043637E-01    0.7025262819E-01    0.1521952495E-03    0.5987805510E+00
    0.3900000000E+05    0.6772094418E+00    0.1004881241E-01    0.7026865813E-01    0.1480447308E-03    0.5992053628E+00
    0.4100000000E+05    0.6773490981E+00    0.9815273741E-02    0.7028268020E-01    0.1442052848E-03    0.5995990854E+00
    0.4300000000E+05    0.6774756986E+00    0.9597736690E-02    0.7029497175E-01    0.1406400684E-03    0.5999653761E+00
    0.4500000000E+05    0.6775909936E+00    0.9394440181E-02    0.7030576265E-01    0.1373180646E-03    0.6003073157E+00
    0.4700000000E+05    0.6776964338E+00    0.9203884076E-02    0.7031524498E-01    0.1342129497E-03    0.6006275204E+00
    0.4900000000E+05    0.6777932319E+00    0.9024781364E-02    0.7032358042E-01    0.1313022185E-03    0.6009282277E+00
    0.1000000000E+05    0.6687701041E+00    0.1889857496E-01    0.6930256296E-01    0.3020048816E-03    0.5837571669E+00
    0.3000000000E+05    0.6763488496E+00    0.1136444261E-01    0.7017506767E-01    0.1699005615E-03    0.5969766060E+00
    0.5000000000E+05    0.6778387158E+00    0.8939171717E-02    0.7032736172E-01    0.1299135866E-03    0.6010718827E+00
    0.7000000000E+05    0.6784748267E+00    0.7623925952E-02    0.7036715006E-01    0.1088039363E-03    0.6032741210E+00
    0.9000000000E+05    0.6788278447E+00    0.6766327415E-02    0.7037131418E-01    0.9527856121E-04    0.6047085234E+00
    0.1100000000E+06    0.6790524773E+00    0.6149814302E-02    0.7036107305E-01    0.8568131965E-04    0.6057415763E+00
    0.1300000000E+06    0.6792080541E+00    0.5678775916E-02    0.7034434559E-01    0.7842448164E-04    0.6065333961E+00
    0.1500000000E+06    0.6793222169E+00    0.5303532187E-02    0.7032461864E-01    0.7269321698E-04    0.6071666508E+00
    0.1700000000E+06    0.6794095857E+00    0.4995350699E-02    0.7030359211E-01    0.6802093664E-04    0.6076889584E+00
    0.1900000000E+06    0.6794786202E+00    0.4736296767E-02    0.7028214985E-01    0.6411881093E-04    0.6081299656E+00
    0.2100000000E+06    0.6795345555E+00    0.4514515485E-02    0.7026076918E-01    0.6079728356E-04    0.6085092381E+00
    0.2300000000E+06    0.6795808059E+00    0.4321812548E-02    0.7023971169E-01    0.5792615010E-04    0.6088402886E+00
    0.2500000000E+06    0.6796196927E+00    0.4152316999E-02    0.7021911904E-01    0.5541264374E-04    0.6091327948E+00
    0.2700000000E+06    0.6796528497E+00    0.4001696720E-02    0.7019906403E-01    0.5318865725E-04    0.6093938983E+00
    0.2900000000E+06    0.6796814604E+00    0.3866675351E-02    0.7017957895E-01    0.5120291766E-04    0.6096290018E+00
    0.3100000000E+06    0.6797064028E+00    0.3744722628E-02    0.7016067201E-01    0.4941599461E-04    0.6098422801E+00
    0.3300000000E+06    0.6797283423E+00    0.3633849022E-02    0.7014233713E-01    0.4779700498E-04    0.6100370182E+00
    0.3500000000E+06    0.6797477925E+00    0.3532465541E-02    0.7012455979E-01    0.4632137241E-04    0.6102158420E+00
    0.3700000000E+06    0.6797651558E+00    0.3439285570E-02    0.7010732077E-01    0.4496926458E-04    0.6103808798E+00
    0.3900000000E+06    0.6797807524E+00    0.3353254620E-02    0.7009059837E-01    0.4372447889E-04    0.6105338780E+00
    0.4100000000E+06    0.6797948401E+00    0.3273499062E-02    0.7007436988E-01    0.4257363182E-04    0.6106762848E+00
    0.4300000000E+06    0.6798076286E+00    0.3199288058E-02    0.7005861244E-01    0.4150555902E-04    0.6108093135E+00
    0.4500000000E+06    0.6798192905E+00    0.3130004861E-02    0.7004330363E-01    0.4051086427E-04    0.6109339890E+00
    0.4700000000E+06    0.6798299692E+00    0.3065124867E-02    0.7002842174E-01    0.3958157550E-04    0.6110511844E+00
    0.4900000000E+06    0.6798397845E+00    0.3004198619E-02    0.7001394604E-01    0.3871087923E-04    0.6111616487E+00
    0.1000000000E+06    0.6789513861E+00    0.6435464443E-02    0.7036734284E-01    0.9011442489E-04    0.6052625831E+00
    0.3000000000E+06    0.6796943444E+00    0.3804200536E-02    0.7017005334E-01    0.5028670430E-04    0.6097381460E+00
    0.5000000000E+06    0.6798444007E+00    0.2975094906E-02    0.7000685430E-01    0.3829563884E-04    0.6112145623E+00
    0.7000000000E+06    0.6799092745E+00    0.2529474762E-02    0.6988212398E-01    0.3199561771E-04    0.6120384324E+00
    0.9000000000E+06    0.6799455945E+00    0.2240433366E-02    0.6978165061E-01    0.2797233169E-04    0.6125899543E+00
    0.1100000000E+07    0.6799688690E+00    0.2033383800E-02    0.6969753284E-01    0.2512439341E-04    0.6129960229E+00
    0.1300000000E+07    0.6799850861E+00    0.1875602596E-02    0.6962515065E-01    0.2297496233E-04    0.6133131161E+00
    0.1500000000E+07    0.6799970502E+00    0.1750162642E-02    0.6956159553E-01    0.2127992543E-04    0.6135708421E+00
    0.1700000000E+07    0.6800062510E+00    0.1647307691E-02    0.6950492256E-01    0.1989978298E-04    0.6137864801E+00
    0.1900000000E+07    0.6800135537E+00    0.1560964546E-02    0.6945376789E-01    0.1874832912E-04    0.6139709129E+00
    0.2100000000E+07    0.6800194956E+00    0.1487127803E-02    0.6940713825E-01    0.1776907050E-04    0.6141313972E+00
    0.2300000000E+07    0.6800244282E+00    0.1423034075E-02    0.6936428767E-01    0.1692325165E-04    0.6142729922E+00
    0.2500000000E+07    0.6800285910E+00    0.1366706682E-02    0.6932464154E-01    0.1618329120E-04    0.6143993527E+00
    0.2700000000E+07    0.6800321531E+00    0.1316689093E-02    0.6928774777E-01    0.1552895958E-04    0.6145131971E+00
    0.2900000000E+07    0.6800352373E+00    0.1271881099E-02    0.6925324415E-01    0.1494504087E-04    0.6146165975E+00
    0.3100000000E+07    0.6800379349E+00    0.1231433961E-02    0.6922083597E-01    0.1441984296E-04    0.6147111664E+00
    0.3300000000E+07    0.6800403153E+00    0.1194680975E-02    0.6919028015E-01    0.1394421482E-04    0.6147981808E+00
    0.3500000000E+07    0.6800424320E+00    0.1161090129E-02    0.6916137384E-01    0.1351087901E-04    0.6148786680E+00
    0.3700000000E+07    0.6800443273E+00    0.1130230999E-02    0.6913394596E-01    0.1311396646E-04    0.6149534654E+00
    0.3900000000E+07    0.6800460345E+00    0.1101751072E-02    0.6910785089E-01    0.1274868490E-04    0.6150232642E+00
    0.4100000000E+07    0.6800475809E+00    0.1075358494E-02    0.6908296363E-01    0.1241107795E-04    0.6150886406E+00
    0.4300000000E+07    0.6800489885E+00    0.1050809265E-02    0.6905917607E-01    0.1209784684E-04    0.6151500797E+00
    0.4500000000E+07    0.6800502756E+00    0.1027897593E-02    0.6903639407E-01    0.1180621646E-04    0.6152079936E+00
    0.4700000000E+07    0.6800514571E+00    0.1006448528E-02    0.6901453517E-01    0.1153383333E-04    0.6152627347E+00
    0.4900000000E+07    0.6800525459E+00    0.9863122520E-03    0.6899352667E-01    0.1127868677E-04    0.6153146070E+00
    0.1000000000E+07    0.6799583764E+00    0.2129240121E-02    0.6973788884E-01    0.2643916319E-04    0.6128067333E+00
    0.3000000000E+07    0.6800366297E+00    0.1251157719E-02    0.6923679438E-01    0.1467572429E-04    0.6146648994E+00
    0.5000000000E+07    0.6800530589E+00    0.9766953468E-03    0.6898332092E-01    0.1115702719E-04    0.6153395510E+00
    0.7000000000E+07    0.6800603469E+00    0.8296024938E-03    0.6881148064E-01    0.9312919849E-05    0.6157366737E+00
    0.9000000000E+07    0.6800645133E+00    0.7343491054E-03    0.6868108621E-01    0.8136947711E-05    0.6160128407E+00
    0.1100000000E+08    0.6800672317E+00    0.6661901641E-03    0.6857589275E-01    0.7305335478E-05    0.6162223104E+00
    0.1300000000E+08    0.6800691564E+00    0.6142911106E-03    0.6848767781E-01    0.6678144258E-05    0.6163899206E+00
    0.1500000000E+08    0.6800705971E+00    0.5730553188E-03    0.6841169251E-01    0.6183820332E-05    0.6165289931E+00
    0.1700000000E+08    0.6800717200E+00    0.5392604723E-03    0.6834494216E-01    0.5781511502E-05    0.6166474549E+00
    0.1900000000E+08    0.6800726225E+00    0.5109023706E-03    0.6828541519E-01    0.5445991065E-05    0.6167503834E+00
    0.2100000000E+08    0.6800733653E+00    0.4866600982E-03    0.6823169450E-01    0.5160737161E-05    0.6168412157E+00
    0.2300000000E+08    0.6800739887E+00    0.4656228559E-03    0.6818274378E-01    0.4914421244E-05    0.6169223804E+00
    0.2500000000E+08    0.6800745203E+00    0.4471394555E-03    0.6813778207E-01    0.4698984568E-05    0.6169956537E+00
    0.2700000000E+08    0.6800749797E+00    0.4307302672E-03    0.6809620613E-01    0.4508518686E-05    0.6170623716E+00
