  Pressure (Pa) 22mC5-400 (mol/kg) 2mC6-400 (mol/kg) 3mC6-400 (mol/kg) 33mC5-400 (mol/kg) C7-400 (mol/kg)
    0.1000000000E+01    0.4748985305E-02    0.2379297732E-02    0.5279556950E-03    0.3228598750E-03    0.3426831017E-02
    0.3000000000E+01    0.1397978883E-01    0.6953281098E-02    0.1555735511E-02    0.9434781668E-03    0.1009867544E-01
    0.5000000000E+01    0.2287313053E-01    0.1129481271E-01    0.2547726068E-02    0.1532484702E-02    0.1653919555E-01
    0.7000000000E+01    0.3144985915E-01    0.1541912220E-01    0.3505859247E-02    0.2091944271E-02    0.2276086191E-01
    0.9000000000E+01    0.3972909781E-01    0.1934018486E-01    0.4431928756E-02    0.2623751882E-02    0.2877525371E-01
    0.1100000000E+02    0.4772841854E-01    0.2307084612E-01    0.5327602307E-02    0.3129649616E-02    0.3459313731E-01
    0.1300000000E+02    0.5546399618E-01    0.2662293177E-01    0.6194432531E-02    0.3611241524E-02    0.4022453666E-01
    0.1500000000E+02    0.6295074438E-01    0.3000734556E-01    0.7033866772E-02    0.4070006826E-02    0.4567879640E-01
    0.1700000000E+02    0.7020243613E-01    0.3323415587E-01    0.7847255903E-02    0.4507311646E-02    0.5096463874E-01
    0.1900000000E+02    0.7723181080E-01    0.3631267294E-01    0.8635862257E-02    0.4924419451E-02    0.5609021463E-01
    0.2100000000E+02    0.8405066938E-01    0.3925151772E-01    0.9400866802E-02    0.5322500364E-02    0.6106315002E-01
    0.2300000000E+02    0.9066995944E-01    0.4205868340E-01    0.1014337562E-01    0.5702639498E-02    0.6589058761E-01
    0.2500000000E+02    0.9709985111E-01    0.4474159058E-01    0.1086442577E-01    0.6065844406E-02    0.7057922474E-01
    0.2700000000E+02    0.1033498050E+00    0.4730713672E-01    0.1156499061E-01    0.6413051782E-02    0.7513534774E-01
    0.2900000000E+02    0.1094286335E+00    0.4976174064E-01    0.1224598468E-01    0.6745133480E-02    0.7956486312E-01
    0.3100000000E+02    0.1153445550E+00    0.5211138258E-01    0.1290826802E-01    0.7062901926E-02    0.8387332600E-01
    0.3300000000E+02    0.1211052442E+00    0.5436164031E-01    0.1355265028E-01    0.7367115020E-02    0.8806596598E-01
    0.3500000000E+02    0.1267178758E+00    0.5651772183E-01    0.1417989429E-01    0.7658480546E-02    0.9214771079E-01
    0.3700000000E+02    0.1321891654E+00    0.5858449491E-01    0.1479071950E-01    0.7937660179E-02    0.9612320784E-01
    0.3900000000E+02    0.1375254056E+00    0.6056651389E-01    0.1538580497E-01    0.8205273108E-02    0.9999684404E-01
    0.4100000000E+02    0.1427324990E+00    0.6246804401E-01    0.1596579220E-01    0.8461899331E-02    0.1037727639E+00
    0.4300000000E+02    0.1478159888E+00    0.6429308352E-01    0.1653128772E-01    0.8708082648E-02    0.1074548860E+00
    0.4500000000E+02    0.1527810850E+00    0.6604538385E-01    0.1708286545E-01    0.8944333389E-02    0.1110469186E+00
    0.4700000000E+02    0.1576326905E+00    0.6772846793E-01    0.1762106886E-01    0.9171130898E-02    0.1145523732E+00
    0.4900000000E+02    0.1623754226E+00    0.6934564699E-01    0.1814641299E-01    0.9388925804E-02    0.1179745781E+00
    0.1000000000E+02    0.4376270591E-01    0.2122855385E-01    0.4883465410E-02    0.2879836158E-02    0.3170811591E-01
    0.3000000000E+02    0.1124064658E+00    0.5094932421E-01    0.1257941345E-01    0.6905758267E-02    0.8173389193E-01
    0.5000000000E+02    0.1647073313E+00    0.7013050281E-01    0.1840441645E-01    0.9494580764E-02    0.1196554546E+00
    0.7000000000E+02    0.2065651880E+00    0.8303345701E-01    0.2299561769E-01    0.1122571909E-01    0.1495889998E+00
    0.9000000000E+02    0.2412392003E+00    0.9196090525E-01    0.2672734858E-01    0.1241291911E-01    0.1739540456E+00
    0.1100000000E+03    0.2706890422E+00    0.9825320135E-01    0.2983446012E-01    0.1323919951E-01    0.1942693032E+00
    0.1300000000E+03    0.2961734933E+00    0.1027360553E+00    0.3247205377E-01    0.1381755315E-01    0.2115382458E+00
    0.1500000000E+03    0.3185451356E+00    0.1059413347E+00    0.3474687656E-01    0.1422091755E-01    0.2264518296E+00
    0.1700000000E+03    0.3384070452E+00    0.1082241568E+00    0.3673492982E-01    0.1449808926E-01    0.2395022279E+00
    0.1900000000E+03    0.3562014621E+00    0.1098287138E+00    0.3849188187E-01    0.1468268328E-01    0.2510501070E+00
    0.2100000000E+03    0.3722626287E+00    0.1109270912E+00    0.4005950217E-01    0.1479842519E-01    0.2613662083E+00
    0.2300000000E+03    0.3868496867E+00    0.1116430965E+00    0.4146978756E-01    0.1486240520E-01    0.2706580226E+00
    0.2500000000E+03    0.4001679454E+00    0.1120673888E+00    0.4274769397E-01    0.1488714811E-01    0.2790874552E+00
    0.2700000000E+03    0.4123830913E+00    0.1122673690E+00    0.4391299557E-01    0.1488196897E-01    0.2867828510E+00
    0.2900000000E+03    0.4236309628E+00    0.1122938096E+00    0.4498158097E-01    0.1485388375E-01    0.2938473811E+00
    0.3100000000E+03    0.4340244495E+00    0.1121853971E+00    0.4596637640E-01    0.1480823443E-01    0.3003650172E+00
    0.3300000000E+03    0.4436584756E+00    0.1119719059E+00    0.4687801577E-01    0.1474912673E-01    0.3064048696E+00
    0.3500000000E+03    0.4526136763E+00    0.1116764529E+00    0.4772533542E-01    0.1467974162E-01    0.3120243910E+00
    0.3700000000E+03    0.4609591599E+00    0.1113171249E+00    0.4851574504E-01    0.1460256073E-01    0.3172717784E+00
    0.3900000000E+03    0.4687546195E+00    0.1109081688E+00    0.4925550950E-01    0.1451953132E-01    0.3221877998E+00
    0.4100000000E+03    0.4760519719E+00    0.1104608727E+00    0.4994996594E-01    0.1443218886E-01    0.3268072005E+00
    0.4300000000E+03    0.4828966479E+00    0.1099842261E+00    0.5060369270E-01    0.1434174885E-01    0.3311597983E+00
    0.4500000000E+03    0.4893286196E+00    0.1094854193E+00    0.5122064231E-01    0.1424917641E-01    0.3352713458E+00
    0.4700000000E+03    0.4953832296E+00    0.1089702240E+00    0.5180424717E-01    0.1415523951E-01    0.3391642160E+00
    0.4900000000E+03    0.5010918659E+00    0.1084432871E+00    0.5235750422E-01    0.1406054994E-01    0.3428579513E+00
    0.1000000000E+03    0.2565264222E+00    0.9537606167E-01    0.2834787726E-01    0.1286291646E-01    0.1845460650E+00
    0.3000000000E+03    0.4289281988E+00    0.1122544203E+00    0.4548374059E-01    0.1483297317E-01    0.2971699353E+00
    0.5000000000E+03    0.5038253099E+00    0.1081766173E+00    0.5262358693E-01    0.1401307937E-01    0.3446355877E+00
    0.7000000000E+03    0.5457535925E+00    0.1028267502E+00    0.5684820194E-01    0.1309972785E-01    0.3729732713E+00
    0.9000000000E+03    0.5722517457E+00    0.9799464098E-01    0.5974929453E-01    0.1231342728E-01    0.3925791540E+00
    0.1100000000E+04    0.5903609480E+00    0.9380865577E-01    0.6191289068E-01    0.1165286647E-01    0.4072961558E+00
    0.1300000000E+04    0.6034468524E+00    0.9017712100E-01    0.6361328793E-01    0.1109326813E-01    0.4189294381E+00
    0.1500000000E+04    0.6133075756E+00    0.8699573831E-01    0.6499895111E-01    0.1061255935E-01    0.4284592377E+00
    0.1700000000E+04    0.6209844443E+00    0.8417881593E-01    0.6615851239E-01    0.1019394801E-01    0.4364725080E+00
    0.1900000000E+04    0.6271191078E+00    0.8165997838E-01    0.6714876291E-01    0.9824974324E-02    0.4433463932E+00
    0.2100000000E+04    0.6321269840E+00    0.7938813274E-01    0.6800809161E-01    0.9496335389E-02    0.4493364996E+00
    0.2300000000E+04    0.6362881148E+00    0.7732360222E-01    0.6876355855E-01    0.9200980499E-02    0.4546234479E+00
    0.2500000000E+04    0.6397977440E+00    0.7543516628E-01    0.6943489206E-01    0.8933474725E-02    0.4593392291E+00
    0.2700000000E+04    0.6427959246E+00    0.7369791349E-01    0.7003687931E-01    0.8689558814E-02    0.4635829964E+00
    0.2900000000E+04    0.6453855990E+00    0.7209169871E-01    0.7058086386E-01    0.8465843237E-02    0.4674309735E+00
    0.3100000000E+04    0.6476440467E+00    0.7060002804E-01    0.7107572054E-01    0.8259592652E-02    0.4709429168E+00
    0.3300000000E+04    0.6496303622E+00    0.6920924371E-01    0.7152851129E-01    0.8068571625E-02    0.4741664686E+00
    0.3500000000E+04    0.6513904748E+00    0.6790792000E-01    0.7194493867E-01    0.7890932395E-02    0.4771401728E+00
    0.3700000000E+04    0.6529606008E+00    0.6668640957E-01    0.7232966739E-01    0.7725131921E-02    0.4798956153E+00
    0.3900000000E+04    0.6543696682E+00    0.6553649791E-01    0.7268655696E-01    0.7569869652E-02    0.4824589753E+00
    0.4100000000E+04    0.6556410527E+00    0.6445113701E-01    0.7301883327E-01    0.7424040187E-02    0.4848521715E+00
    0.4300000000E+04    0.6567938424E+00    0.6342423752E-01    0.7332921735E-01    0.7286696811E-02    0.4870937222E+00
    0.4500000000E+04    0.6578437729E+00    0.6245050491E-01    0.7362002325E-01    0.7157023057E-02    0.4891994013E+00
    0.4700000000E+04    0.6588039291E+00    0.6152530879E-01    0.7389323369E-01    0.7034310297E-02    0.4911827450E+00
    0.4900000000E+04    0.6596852785E+00    0.6064457786E-01    0.7415055901E-01    0.6917939893E-02    0.4930554473E+00
    0.1000000000E+04    0.5820930479E+00    0.9582546527E-01    0.6090195194E-01    0.1196895007E-01    0.4004085395E+00
    0.3000000000E+04    0.6465521748E+00    0.7133245751E-01    0.7083395542E-01    0.8360684768E-02    0.4692257283E+00
    0.5000000000E+04    0.6600993518E+00    0.6021974615E-01    0.7427373643E-01    0.6861960772E-02    0.4939535372E+00
    0.7000000000E+04    0.6658810780E+00    0.5337010045E-01    0.7617864761E-01    0.5972769533E-02    0.5079969979E+00
    0.9000000000E+04    0.6690754821E+00    0.4856326674E-01    0.7742949244E-01    0.5363223208E-02    0.5174106322E+00
    0.1100000000E+05    0.6710990940E+00    0.4493342858E-01    0.7832964464E-01    0.4910547017E-02    0.5243077990E+00
    0.1300000000E+05    0.6724950362E+00    0.4205882860E-01    0.7901599391E-01    0.4556643397E-02    0.5296525050E+00
    0.1500000000E+05    0.6735157942E+00    0.3970473174E-01    0.7956068988E-01    0.4269834505E-02    0.5339576522E+00
    0.1700000000E+05    0.6742945565E+00    0.3772818745E-01    0.8000587009E-01    0.4031129369E-02    0.5375253327E+00
    0.1900000000E+05    0.6749081869E+00    0.3603626553E-01    0.8037801800E-01    0.3828336864E-02    0.5405468864E+00
    0.2100000000E+05    0.6754041349E+00    0.3456547342E-01    0.8069472473E-01    0.3653214501E-02    0.5431503235E+00
    0.2300000000E+05    0.6758132710E+00    0.3327069657E-01    0.8096819130E-01    0.3499957712E-02    0.5454250308E+00
    0.2500000000E+05    0.6761565422E+00    0.3211884469E-01    0.8120717997E-01    0.3364341981E-02    0.5474356122E+00
    0.2700000000E+05    0.6764486612E+00    0.3108500107E-01    0.8141816630E-01    0.3243208055E-02    0.5492301020E+00
    0.2900000000E+05    0.6767002645E+00    0.3014998440E-01    0.8160605214E-01    0.3134138786E-02    0.5508450720E+00
    0.3100000000E+05    0.6769192317E+00    0.2929874740E-01    0.8177462459E-01    0.3035248478E-02    0.5523089346E+00
    0.3300000000E+05    0.6771115245E+00    0.2851929195E-01    0.8192686144E-01    0.2945041137E-02    0.5536441498E+00
    0.3500000000E+05    0.6772817361E+00    0.2780191417E-01    0.8206514017E-01    0.2862312441E-02    0.5548687429E+00
    0.3700000000E+05    0.6774334628E+00    0.2713866684E-01    0.8219138469E-01    0.2786080310E-02    0.5559973735E+00
    0.3900000000E+05    0.6775695605E+00    0.2652296868E-01    0.8230717050E-01    0.2715534694E-02    0.5570421045E+00
    0.4100000000E+05    0.6776923255E+00    0.2594931516E-01    0.8241380159E-01    0.2650000595E-02    0.5580129671E+00
    0.4300000000E+05    0.6778036255E+00    0.2541306107E-01    0.8251236750E-01    0.2588910376E-02    0.5589183818E+00
    0.4500000000E+05    0.6779049949E+00    0.2491025459E-01    0.8260378654E-01    0.2531782711E-02    0.5597654770E+00
    0.4700000000E+05    0.6779977061E+00    0.2443750907E-01    0.8268883868E-01    0.2478206390E-02    0.5605603342E+00
    0.4900000000E+05    0.6780828230E+00    0.2399190266E-01    0.8276819118E-01    0.2427827682E-02    0.5613081781E+00
    0.1000000000E+05    0.6701894642E+00    0.4663372082E-01    0.7791267437E-01    0.5121782397E-02    0.5210984132E+00
    0.3000000000E+05    0.6768134176E+00    0.2971470466E-01    0.8169255028E-01    0.3083522578E-02    0.5515943689E+00
    0.5000000000E+05    0.6781228194E+00    0.2377847081E-01    0.8280591278E-01    0.2403740117E-02    0.5616659061E+00
    0.7000000000E+05    0.6786822096E+00    0.2046429565E-01    0.8336618168E-01    0.2033350163E-02    0.5671846982E+00
    0.9000000000E+05    0.6789925667E+00    0.1826811068E-01    0.8370785250E-01    0.1791899792E-02    0.5708091785E+00
    0.1100000000E+06    0.6791899455E+00    0.1667235932E-01    0.8393863985E-01    0.1618628321E-02    0.5734298816E+00
    0.1300000000E+06    0.6793265575E+00    0.1544367396E-01    0.8410480430E-01    0.1486543759E-02    0.5754421738E+00
    0.1500000000E+06    0.6794267342E+00    0.1445902961E-01    0.8422977839E-01    0.1381578725E-02    0.5770523392E+00
    0.1700000000E+06    0.6795033451E+00    0.1364650586E-01    0.8432679461E-01    0.1295585880E-02    0.5783800803E+00
    0.1900000000E+06    0.6795638363E+00    0.1296083073E-01    0.8440392795E-01    0.1223477041E-02    0.5795003279E+00
    0.2100000000E+06    0.6796128153E+00    0.1237187415E-01    0.8446640196E-01    0.1161888962E-02    0.5804627357E+00
    0.2300000000E+06    0.6796532857E+00    0.1185869088E-01    0.8451775304E-01    0.1108497751E-02    0.5813017028E+00
    0.2500000000E+06    0.6796872898E+00    0.1140620154E-01    0.8456046457E-01    0.1061639381E-02    0.5820419262E+00
    0.2700000000E+06    0.6797162644E+00    0.1100323263E-01    0.8459633363E-01    0.1020086881E-02    0.5827016648E+00
    0.2900000000E+06    0.6797412498E+00    0.1064130272E-01    0.8462669379E-01    0.9829130678E-03    0.5832947525E+00
    0.3100000000E+06    0.6797630179E+00    0.1031384052E-01    0.8465255603E-01    0.9494025351E-03    0.5838318914E+00
    0.3300000000E+06    0.6797821534E+00    0.1001566411E-01    0.8467470097E-01    0.9189932923E-03    0.5843215100E+00
    0.3500000000E+06    0.6797991073E+00    0.9742624017E-02    0.8469374101E-01    0.8912369220E-03    0.5847703503E+00
    0.3700000000E+06    0.6798142331E+00    0.9491352433E-02    0.8471016343E-01    0.8657706939E-03    0.5851838795E+00
    0.3900000000E+06    0.6798278119E+00    0.9259083221E-02    0.8472436074E-01    0.8422976131E-03    0.5855665849E+00
    0.4100000000E+06    0.6798400699E+00    0.9043520131E-02    0.8473665260E-01    0.8205718660E-03    0.5859221893E+00
    0.4300000000E+06    0.6798511911E+00    0.8842738736E-02    0.8474730198E-01    0.8003880188E-03    0.5862538109E+00
    0.4500000000E+06    0.6798613271E+00    0.8655112287E-02    0.8475652710E-01    0.7815728772E-03    0.5865640848E+00
    0.4700000000E+06    0.6798706033E+00    0.8479254908E-02    0.8476451055E-01    0.7639792648E-03    0.5868552552E+00
    0.4900000000E+06    0.6798791251E+00    0.8313977510E-02    0.8477140621E-01    0.7474812084E-03    0.5871292470E+00
    0.1000000000E+06    0.6791011344E+00    0.1741347524E-01    0.8383343741E-01    0.1698865022E-02    0.5722139064E+00
    0.3000000000E+06    0.6797524959E+00    0.1047361478E-01    0.8464013381E-01    0.9657380736E-03    0.5835697434E+00
    0.5000000000E+06    0.6798831312E+00    0.8234979855E-02    0.8477448771E-01    0.7396085001E-03    0.5872603294E+00
    0.7000000000E+06    0.6799392998E+00    0.7021646736E-02    0.8480225504E-01    0.6197916316E-03    0.5892857074E+00
    0.9000000000E+06    0.6799705995E+00    0.6230874501E-02    0.8479670572E-01    0.5429073818E-03    0.5906217566E+00
    0.1100000000E+07    0.6799905742E+00    0.5662598452E-02    0.8477809484E-01    0.4883092167E-03    0.5915927714E+00
    0.1300000000E+07    0.6800044398E+00    0.5228526769E-02    0.8475393032E-01    0.4470056503E-03    0.5923422961E+00
    0.1500000000E+07    0.6800146338E+00    0.4882800083E-02    0.8472747357E-01    0.4143747561E-03    0.5929451575E+00
    0.1700000000E+07    0.6800224480E+00    0.4598904507E-02    0.8470028155E-01    0.3877671862E-03    0.5934447825E+00
    0.1900000000E+07    0.6800286315E+00    0.4360294802E-02    0.8467313904E-01    0.3655417644E-03    0.5938683761E+00
    0.2100000000E+07    0.6800336484E+00    0.4156037094E-02    0.8464645064E-01    0.3466208455E-03    0.5942339862E+00
    0.2300000000E+07    0.6800378018E+00    0.3978575235E-02    0.8462042230E-01    0.3302639169E-03    0.5945541330E+00
    0.2500000000E+07    0.6800412979E+00    0.3822496431E-02    0.8459515190E-01    0.3159432251E-03    0.5948378187E+00
    0.2700000000E+07    0.6800442822E+00    0.3683807237E-02    0.8457067693E-01    0.3032712128E-03    0.5950917096E+00
    0.2900000000E+07    0.6800468599E+00    0.3559487829E-02    0.8454700074E-01    0.2919560585E-03    0.5953208647E+00
    0.3100000000E+07    0.6800491094E+00    0.3447206329E-02    0.8452410742E-01    0.2817733073E-03    0.5955292040E+00
    0.3300000000E+07    0.6800510900E+00    0.3345129387E-02    0.8450197054E-01    0.2725471347E-03    0.5957198204E+00
    0.3500000000E+07    0.6800528474E+00    0.3251792881E-02    0.8448055828E-01    0.2641376060E-03    0.5958951917E+00
    0.3700000000E+07    0.6800544178E+00    0.3166011402E-02    0.8445983649E-01    0.2564317872E-03    0.5960573311E+00
    0.3900000000E+07    0.6800558295E+00    0.3086813480E-02    0.8443977054E-01    0.2493374056E-03    0.5962078932E+00
    0.4100000000E+07    0.6800571058E+00    0.3013394317E-02    0.8442032642E-01    0.2427782371E-03    0.5963482534E+00
    0.4300000000E+07    0.6800582653E+00    0.2945080701E-02    0.8440147134E-01    0.2366906927E-03    0.5964795657E+00
    0.4500000000E+07    0.6800593236E+00    0.2881304544E-02    0.8438317408E-01    0.2310212506E-03    0.5966028065E+00
    0.4700000000E+07    0.6800602934E+00    0.2821582657E-02    0.8436540513E-01    0.2257244992E-03    0.5967188092E+00
    0.4900000000E+07    0.6800611855E+00    0.2765501083E-02    0.8434813677E-01    0.2207616243E-03    0.5968282894E+00
    0.1000000000E+07    0.6799815788E+00    0.5925878139E-02    0.8478841364E-01    0.5135328887E-03    0.5911415987E+00
    0.3000000000E+07    0.6800480216E+00    0.3501966864E-02    0.8453545770E-01    0.2867350891E-03    0.5954274265E+00
    0.5000000000E+07    0.6800616053E+00    0.2738711910E-02    0.8433968212E-01    0.2183947691E-03    0.5968807803E+00
    0.7000000000E+07    0.6800675253E+00    0.2328552064E-02    0.8419141717E-01    0.1824826095E-03    0.5977023247E+00
    0.9000000000E+07    0.6800708627E+00    0.2062528249E-02    0.8407240061E-01    0.1595464250E-03    0.5982570677E+00
    0.1100000000E+08    0.6800730150E+00    0.1871972225E-02    0.8397293521E-01    0.1433097218E-03    0.5986681879E+00
    0.1300000000E+08    0.6800745236E+00    0.1726761500E-02    0.8388743701E-01    0.1310547836E-03    0.5989909214E+00
    0.1500000000E+08    0.6800756429E+00    0.1611315709E-02    0.8381241706E-01    0.1213901993E-03    0.5992543917E+00
    0.1700000000E+08    0.6800765084E+00    0.1516655322E-02    0.8374555272E-01    0.1135207961E-03    0.5994756745E+00
    0.1900000000E+08    0.6800771990E+00    0.1437190849E-02    0.8368521996E-01    0.1069551649E-03    0.5996655669E+00
    0.2100000000E+08    0.6800777639E+00    0.1369235997E-02    0.8363023841E-01    0.1013712597E-03    0.5998312930E+00
    0.2300000000E+08    0.6800782352E+00    0.1310247585E-02    0.8357972293E-01    0.9654814457E-04    0.5999779043E+00
    0.2500000000E+08    0.6800786349E+00    0.1258406473E-02    0.8353299250E-01    0.9232858063E-04    0.6001090599E+00
    0.2700000000E+08    0.6800789786E+00    0.1212372227E-02    0.8348951175E-01    0.8859723854E-04    0.6002274885E+00
