  Pressure (Pa) 22mC5-400 (mol/kg) 2mC6-400 (mol/kg) 3mC6-400 (mol/kg) 33mC5-400 (mol/kg) C7-400 (mol/kg)
    0.1000000000E+01    0.5273894467E-02    0.2367697122E-02    0.1050156803E-02    0.6426035158E-04    0.6816493176E-02
    0.3000000000E+01    0.1550921731E-01    0.6853979279E-02    0.3062059966E-02    0.1860288066E-03    0.1987818470E-01
    0.5000000000E+01    0.2535065640E-01    0.1103213964E-01    0.4964349996E-02    0.2994444431E-03    0.3223149574E-01
    0.7000000000E+01    0.3482341122E-01    0.1492828989E-01    0.6765994085E-02    0.4052138193E-03    0.4393429188E-01
    0.9000000000E+01    0.4395052592E-01    0.1856579431E-01    0.8475000784E-02    0.5039691446E-03    0.5503825726E-01
    0.1100000000E+02    0.5275311425E-01    0.2196561715E-01    0.1009854502E-01    0.5962776859E-03    0.6558970033E-01
    0.1300000000E+02    0.6125055713E-01    0.2514661868E-01    0.1164307405E-01    0.6826497865E-03    0.7563023668E-01
    0.1500000000E+02    0.6946067654E-01    0.2812580871E-01    0.1311439759E-01    0.7635457293E-03    0.8519737025E-01
    0.1700000000E+02    0.7739988900E-01    0.3091856449E-01    0.1451776496E-01    0.8393816349E-03    0.9432499022E-01
    0.1900000000E+02    0.8508334141E-01    0.3353881865E-01    0.1585793118E-01    0.9105345496E-03    0.1030437975E+00
    0.2100000000E+02    0.9252503154E-01    0.3599922191E-01    0.1713921398E-01    0.9773468490E-03    0.1113816720E+00
    0.2300000000E+02    0.9973791507E-01    0.3831128447E-01    0.1836554310E-01    0.1040130063E-02    0.1193639906E+00
    0.2500000000E+02    0.1067340010E+00    0.4048549915E-01    0.1954050299E-01    0.1099168211E-02    0.1270139026E+00
    0.2700000000E+02    0.1135244368E+00    0.4253144912E-01    0.2066737007E-01    0.1154720709E-02    0.1343525696E+00
    0.2900000000E+02    0.1201195845E+00    0.4445790221E-01    0.2174914523E-01    0.1207024931E-02    0.1413993753E+00
    0.3100000000E+02    0.1265290892E+00    0.4627289396E-01    0.2278858227E-01    0.1256298446E-02    0.1481721092E+00
    0.3300000000E+02    0.1327619400E+00    0.4798380073E-01    0.2378821290E-01    0.1302741002E-02    0.1546871271E+00
    0.3500000000E+02    0.1388265256E+00    0.4959740429E-01    0.2475036879E-01    0.1346536269E-02    0.1609594943E+00
    0.3700000000E+02    0.1447306835E+00    0.5111994914E-01    0.2567720103E-01    0.1387853391E-02    0.1670031099E+00
    0.3900000000E+02    0.1504817451E+00    0.5255719325E-01    0.2657069728E-01    0.1426848355E-02    0.1728308187E+00
    0.4100000000E+02    0.1560865765E+00    0.5391445335E-01    0.2743269714E-01    0.1463665219E-02    0.1784545093E+00
    0.4300000000E+02    0.1615516147E+00    0.5519664523E-01    0.2826490569E-01    0.1498437200E-02    0.1838852022E+00
    0.4500000000E+02    0.1668829014E+00    0.5640831978E-01    0.2906890565E-01    0.1531287648E-02    0.1891331276E+00
    0.4700000000E+02    0.1720861130E+00    0.5755369526E-01    0.2984616818E-01    0.1562330919E-02    0.1942077958E+00
    0.4900000000E+02    0.1771665882E+00    0.5863668627E-01    0.3059806260E-01    0.1591673156E-02    0.1991180592E+00
    0.1000000000E+02    0.4839113610E-01    0.2029419101E-01    0.9297036830E-02    0.5508961182E-03    0.6038034038E-01
    0.3000000000E+02    0.1233469657E+00    0.4537885508E-01    0.2227399285E-01    0.1232027646E-02    0.1448189471E+00
    0.5000000000E+02    0.1796623818E+00    0.5915593432E-01    0.3096489901E-01    0.1605737486E-02    0.2015141396E+00
    0.7000000000E+02    0.2242118090E+00    0.6702374826E-01    0.3723778991E-01    0.1818287951E-02    0.2425374748E+00
    0.9000000000E+02    0.2607386646E+00    0.7154194351E-01    0.4200618066E-01    0.1939171489E-02    0.2737974134E+00
    0.1100000000E+03    0.2914719743E+00    0.7405292791E-01    0.4577107698E-01    0.2004935435E-02    0.2985371341E+00
    0.1300000000E+03    0.3178341885E+00    0.7531355833E-01    0.4883095102E-01    0.2036255026E-02    0.3186903607E+00
    0.1500000000E+03    0.3407845264E+00    0.7577428224E-01    0.5137512031E-01    0.2045482016E-02    0.3354846419E+00
    0.1700000000E+03    0.3609994411E+00    0.7571455854E-01    0.5352972342E-01    0.2040310734E-02    0.3497385347E+00
    0.1900000000E+03    0.3789738416E+00    0.7531347480E-01    0.5538220580E-01    0.2025692839E-02    0.3620199602E+00
    0.2100000000E+03    0.3950810171E+00    0.7468875400E-01    0.5699520303E-01    0.2004897159E-02    0.3727360347E+00
    0.2300000000E+03    0.4096097752E+00    0.7391933574E-01    0.5841482582E-01    0.1980124784E-02    0.3821867039E+00
    0.2500000000E+03    0.4227883828E+00    0.7305896672E-01    0.5967581964E-01    0.1952880333E-02    0.3905981612E+00
    0.2700000000E+03    0.4348005412E+00    0.7214465166E-01    0.6080489607E-01    0.1924203576E-02    0.3981444348E+00
    0.2900000000E+03    0.4457963709E+00    0.7120205569E-01    0.6182295156E-01    0.1894818032E-02    0.4049617717E+00
    0.3100000000E+03    0.4559001705E+00    0.7024904060E-01    0.6274658533E-01    0.1865228609E-02    0.4111584838E+00
    0.3300000000E+03    0.4652160284E+00    0.6929802721E-01    0.6358916272E-01    0.1835787097E-02    0.4168218473E+00
    0.3500000000E+03    0.4738319685E+00    0.6835760153E-01    0.6436157563E-01    0.1806736886E-02    0.4220230407E+00
    0.3700000000E+03    0.4818230704E+00    0.6743362352E-01    0.6507279667E-01    0.1778243965E-02    0.4268207436E+00
    0.3900000000E+03    0.4892538584E+00    0.6653000271E-01    0.6573028966E-01    0.1750418713E-02    0.4312638044E+00
    0.4100000000E+03    0.4961801584E+00    0.6564924696E-01    0.6634031827E-01    0.1723331372E-02    0.4353932472E+00
    0.4300000000E+03    0.5026505598E+00    0.6479285462E-01    0.6690818139E-01    0.1697023172E-02    0.4392438021E+00
    0.4500000000E+03    0.5087075818E+00    0.6396159707E-01    0.6743839463E-01    0.1671514366E-02    0.4428450872E+00
    0.4700000000E+03    0.5143886133E+00    0.6315572382E-01    0.6793483214E-01    0.1646810101E-02    0.4462225311E+00
    0.4900000000E+03    0.5197266776E+00    0.6237511213E-01    0.6840083827E-01    0.1622904717E-02    0.4493981008E+00
    0.1000000000E+03    0.2767268289E+00    0.7299157935E-01    0.4399208757E-01    0.1977394639E-02    0.2868399471E+00
    0.3000000000E+03    0.4509528497E+00    0.7072596847E-01    0.6229567014E-01    0.1880023834E-02    0.4081318237E+00
    0.5000000000E+03    0.5222763801E+00    0.6199416687E-01    0.6862335212E-01    0.1611247680E-02    0.4509162462E+00
    0.7000000000E+03    0.5608801101E+00    0.5554288193E-01    0.7201390035E-01    0.1414920161E-02    0.4742211502E+00
    0.9000000000E+03    0.5848062275E+00    0.5078930066E-01    0.7418213520E-01    0.1272080278E-02    0.4893406393E+00
    0.1100000000E+04    0.6009682438E+00    0.4713891004E-01    0.7571034230E-01    0.1163916561E-02    0.5001369874E+00
    0.1300000000E+04    0.6125636154E+00    0.4422830482E-01    0.7685616613E-01    0.1078875683E-02    0.5083300252E+00
    0.1500000000E+04    0.6212619311E+00    0.4183679671E-01    0.7775294378E-01    0.1009930561E-02    0.5148150330E+00
    0.1700000000E+04    0.6280146176E+00    0.3982471016E-01    0.7847730064E-01    0.9526419888E-03    0.5201093333E+00
    0.1900000000E+04    0.6334011798E+00    0.3809959850E-01    0.7907671725E-01    0.9040843347E-03    0.5245351477E+00
    0.2100000000E+04    0.6377936388E+00    0.3659776575E-01    0.7958233872E-01    0.8622535211E-03    0.5283048846E+00
    0.2300000000E+04    0.6414412102E+00    0.3527378143E-01    0.8001552718E-01    0.8257297621E-03    0.5315649221E+00
    0.2500000000E+04    0.6445168277E+00    0.3409427355E-01    0.8039147102E-01    0.7934776475E-03    0.5344198080E+00
    0.2700000000E+04    0.6471440971E+00    0.3303410323E-01    0.8072129352E-01    0.7647230062E-03    0.5369464440E+00
    0.2900000000E+04    0.6494136244E+00    0.3207391972E-01    0.8101334548E-01    0.7388743661E-03    0.5392028091E+00
    0.3100000000E+04    0.6513932858E+00    0.3119854663E-01    0.8127402994E-01    0.7154712691E-03    0.5412335420E+00
    0.3300000000E+04    0.6531349026E+00    0.3039588596E-01    0.8150834649E-01    0.6941493033E-03    0.5430736368E+00
    0.3500000000E+04    0.6546787025E+00    0.2965615483E-01    0.8172026115E-01    0.6746158529E-03    0.5447509611E+00
    0.3700000000E+04    0.6560563763E+00    0.2897134188E-01    0.8191296404E-01    0.6566329089E-03    0.5462880155E+00
    0.3900000000E+04    0.6572932204E+00    0.2833481237E-01    0.8208905291E-01    0.6400046418E-03    0.5477031909E+00
    0.4100000000E+04    0.6584096653E+00    0.2774101617E-01    0.8225066652E-01    0.6245682571E-03    0.5490116831E+00
    0.4300000000E+04    0.6594223887E+00    0.2718526829E-01    0.8239958312E-01    0.6101871592E-03    0.5502261718E+00
    0.4500000000E+04    0.6603451356E+00    0.2666358162E-01    0.8253729443E-01    0.5967457659E-03    0.5513573303E+00
    0.4700000000E+04    0.6611893345E+00    0.2617253769E-01    0.8266506197E-01    0.5841455244E-03    0.5524142156E+00
    0.4900000000E+04    0.6619645636E+00    0.2570918573E-01    0.8278396037E-01    0.5723018118E-03    0.5534045693E+00
    0.1000000000E+04    0.5936070797E+00    0.4885324505E-01    0.7500593866E-01    0.1214522646E-02    0.4951439001E+00
    0.3000000000E+04    0.6504361339E+00    0.3162644991E-01    0.8114726828E-01    0.7268918258E-03    0.5402440004E+00
    0.5000000000E+04    0.6623288919E+00    0.2548708001E-01    0.8284037689E-01    0.5666404078E-03    0.5538769151E+00
    0.7000000000E+04    0.6674250542E+00    0.2202289770E-01    0.8367050420E-01    0.4796690962E-03    0.5610481912E+00
    0.9000000000E+04    0.6702498472E+00    0.1971048040E-01    0.8416987564E-01    0.4230091356E-03    0.5656364273E+00
    0.1100000000E+05    0.6720437327E+00    0.1802148442E-01    0.8450468269E-01    0.3823366650E-03    0.5688919693E+00
    0.1300000000E+05    0.6732835785E+00    0.1671592457E-01    0.8474486878E-01    0.3513150919E-03    0.5713556054E+00
    0.1500000000E+05    0.6741915878E+00    0.1566650940E-01    0.8492534137E-01    0.3266479625E-03    0.5733039654E+00
    0.1700000000E+05    0.6748852072E+00    0.1479844688E-01    0.8506558842E-01    0.3064274752E-03    0.5748950486E+00
    0.1900000000E+05    0.6754323292E+00    0.1406445893E-01    0.8517739395E-01    0.2894623946E-03    0.5762264661E+00
    0.2100000000E+05    0.6758749260E+00    0.1343296876E-01    0.8526832402E-01    0.2749652535E-03    0.5773621819E+00
    0.2300000000E+05    0.6762403379E+00    0.1288195912E-01    0.8534346929E-01    0.2623918078E-03    0.5783460813E+00
    0.2500000000E+05    0.6765471368E+00    0.1239553766E-01    0.8540638605E-01    0.2513522276E-03    0.5792094046E+00
    0.2700000000E+05    0.6768083799E+00    0.1196190182E-01    0.8545963651E-01    0.2415589697E-03    0.5799750738E+00
    0.2900000000E+05    0.6770335146E+00    0.1157207486E-01    0.8550511501E-01    0.2327946666E-03    0.5806603381E+00
    0.3100000000E+05    0.6772295450E+00    0.1121908954E-01    0.8554425307E-01    0.2248915376E-03    0.5812784592E+00
    0.3300000000E+05    0.6774017740E+00    0.1089744306E-01    0.8557815306E-01    0.2177177338E-03    0.5818398235E+00
    0.3500000000E+05    0.6775542900E+00    0.1060272282E-01    0.8560767788E-01    0.2111680143E-03    0.5823526960E+00
    0.3700000000E+05    0.6776902957E+00    0.1033134292E-01    0.8563351278E-01    0.2051572199E-03    0.5828237474E+00
    0.3900000000E+05    0.6778123357E+00    0.1008035470E-01    0.8565620885E-01    0.1996156012E-03    0.5832584287E+00
    0.4100000000E+05    0.6779224572E+00    0.9847307803E-02    0.8567621435E-01    0.1944854110E-03    0.5836612434E+00
    0.4300000000E+05    0.6780223259E+00    0.9630146700E-02    0.8569389761E-01    0.1897183738E-03    0.5840359499E+00
    0.4500000000E+05    0.6781133108E+00    0.9427132281E-02    0.8570956405E-01    0.1852737786E-03    0.5843857125E+00
    0.4700000000E+05    0.6781965477E+00    0.9236781737E-02    0.8572346904E-01    0.1811170209E-03    0.5847132170E+00
    0.4900000000E+05    0.6782729865E+00    0.9057821857E-02    0.8573582773E-01    0.1772184740E-03    0.5850207603E+00
    0.1000000000E+05    0.6712368940E+00    0.1880683341E-01    0.8435227725E-01    0.4011732678E-03    0.5673879969E+00
    0.3000000000E+05    0.6771348031E+00    0.1139135020E-01    0.8552540120E-01    0.2287444122E-03    0.5809770852E+00
    0.5000000000E+05    0.6783089118E+00    0.8972263654E-02    0.8574148534E-01    0.1753579108E-03    0.5851676751E+00
    0.7000000000E+05    0.6788118696E+00    0.7656551332E-02    0.8580595427E-01    0.1470243319E-03    0.5874197183E+00
    0.9000000000E+05    0.6790913945E+00    0.6797528225E-02    0.8582139816E-01    0.1288263792E-03    0.5888869386E+00
    0.1100000000E+06    0.6792693909E+00    0.6179527986E-02    0.8581642260E-01    0.1158955730E-03    0.5899442530E+00
    0.1300000000E+06    0.6793927144E+00    0.5707121694E-02    0.8580184171E-01    0.1061092029E-03    0.5907552650E+00
    0.1500000000E+06    0.6794832259E+00    0.5330657076E-02    0.8578249401E-01    0.9837521826E-04    0.5914043856E+00
    0.1700000000E+06    0.6795524988E+00    0.5021391903E-02    0.8576078627E-01    0.9206725289E-04    0.5919402183E+00
    0.1900000000E+06    0.6796072339E+00    0.4761373709E-02    0.8573800261E-01    0.8679710709E-04    0.5923930173E+00
    0.2100000000E+06    0.6796515803E+00    0.4538730005E-02    0.8571486065E-01    0.8230977767E-04    0.5927827479E+00
    0.2300000000E+06    0.6796882447E+00    0.4345251161E-02    0.8569177278E-01    0.7842998058E-04    0.5931231986E+00
    0.2500000000E+06    0.6797190677E+00    0.4175053408E-02    0.8566897862E-01    0.7503275930E-04    0.5934242460E+00
    0.2700000000E+06    0.6797453455E+00    0.4023794058E-02    0.8564661627E-01    0.7202633025E-04    0.5936931787E+00
    0.2900000000E+06    0.6797680166E+00    0.3888188043E-02    0.8562476251E-01    0.6934156876E-04    0.5939355118E+00
    0.3100000000E+06    0.6797877776E+00    0.3765697905E-02    0.8560345631E-01    0.6692529804E-04    0.5941555078E+00
    0.3300000000E+06    0.6798051566E+00    0.3654328139E-02    0.8558271309E-01    0.6473585619E-04    0.5943565213E+00
    0.3500000000E+06    0.6798205609E+00    0.3552484757E-02    0.8556253348E-01    0.6274008077E-04    0.5945412343E+00
    0.3700000000E+06    0.6798343100E+00    0.3458876938E-02    0.8554290891E-01    0.6091120484E-04    0.5947118212E+00
    0.3900000000E+06    0.6798466579E+00    0.3372446631E-02    0.8552382521E-01    0.5922735596E-04    0.5948700667E+00
    0.4100000000E+06    0.6798578090E+00    0.3292317167E-02    0.8550526488E-01    0.5767046412E-04    0.5950174509E+00
    0.4300000000E+06    0.6798679299E+00    0.3217755100E-02    0.8548720865E-01    0.5622545312E-04    0.5951552144E+00
    0.4500000000E+06    0.6798771575E+00    0.3148141432E-02    0.8546963644E-01    0.5487963260E-04    0.5952844053E+00
    0.4700000000E+06    0.6798856055E+00    0.3082949605E-02    0.8545252804E-01    0.5362223423E-04    0.5954059167E+00
    0.4900000000E+06    0.6798933691E+00    0.3021728456E-02    0.8543586351E-01    0.5244405354E-04    0.5955205149E+00
    0.1000000000E+06    0.6791892764E+00    0.6465911914E-02    0.8582057653E-01    0.1218702393E-03    0.5894539206E+00
    0.3000000000E+06    0.6797782246E+00    0.3825439015E-02    0.8561403957E-01    0.6810270505E-04    0.5940480742E+00
    0.5000000000E+06    0.6798970198E+00    0.2992483169E-02    0.8542769161E-01    0.5188215087E-04    0.5955754319E+00
    0.7000000000E+06    0.6799482814E+00    0.2544639115E-02    0.8528327460E-01    0.4335534897E-04    0.5964326627E+00
    0.9000000000E+06    0.6799769296E+00    0.2254099316E-02    0.8516623071E-01    0.3790847096E-04    0.5970091689E+00
    0.1100000000E+07    0.6799952581E+00    0.2045949255E-02    0.8506789298E-01    0.3405212320E-04    0.5974352716E+00
    0.1300000000E+07    0.6800080097E+00    0.1887313959E-02    0.8498307609E-01    0.3114123273E-04    0.5977691148E+00
    0.1500000000E+07    0.6800174039E+00    0.1761185222E-02    0.8490847681E-01    0.2884547975E-04    0.5980412468E+00
    0.1700000000E+07    0.6800246188E+00    0.1657758896E-02    0.8484187005E-01    0.2697606746E-04    0.5982695310E+00
    0.1900000000E+07    0.6800303383E+00    0.1570931392E-02    0.8478168766E-01    0.2541631021E-04    0.5984652388E+00
    0.2100000000E+07    0.6800349865E+00    0.1496676952E-02    0.8472678331E-01    0.2408973199E-04    0.5986358988E+00
    0.2300000000E+07    0.6800388408E+00    0.1432217967E-02    0.8467629367E-01    0.2294386408E-04    0.5987867680E+00
    0.2500000000E+07    0.6800420901E+00    0.1375567474E-02    0.8462955223E-01    0.2194136290E-04    0.5989216496E+00
    0.2700000000E+07    0.6800448677E+00    0.1325261292E-02    0.8458603361E-01    0.2105483696E-04    0.5990433765E+00
    0.2900000000E+07    0.6800472703E+00    0.1280193389E-02    0.8454531623E-01    0.2026368225E-04    0.5991541109E+00
    0.3100000000E+07    0.6800493698E+00    0.1239510495E-02    0.8450705663E-01    0.1955206555E-04    0.5992555373E+00
    0.3300000000E+07    0.6800512207E+00    0.1202542328E-02    0.8447097122E-01    0.1890759419E-04    0.5993489914E+00
    0.3500000000E+07    0.6800528651E+00    0.1168754002E-02    0.8443682307E-01    0.1832041237E-04    0.5994355490E+00
    0.3700000000E+07    0.6800543362E+00    0.1137712754E-02    0.8440441223E-01    0.1778257131E-04    0.5995160880E+00
    0.3900000000E+07    0.6800556603E+00    0.1109064146E-02    0.8437356833E-01    0.1728758041E-04    0.5995913336E+00
    0.4100000000E+07    0.6800568587E+00    0.1082514724E-02    0.8434414506E-01    0.1683008101E-04    0.5996618911E+00
    0.4300000000E+07    0.6800579487E+00    0.1057819143E-02    0.8431601578E-01    0.1640560499E-04    0.5997282705E+00
    0.4500000000E+07    0.6800589445E+00    0.1034770473E-02    0.8428907016E-01    0.1601039345E-04    0.5997909055E+00
    0.4700000000E+07    0.6800598581E+00    0.1013192792E-02    0.8426321149E-01    0.1564125846E-04    0.5998501672E+00
    0.4900000000E+07    0.6800606993E+00    0.9929354476E-03    0.8423835451E-01    0.1529547644E-04    0.5999063761E+00
    0.1000000000E+07    0.6799869988E+00    0.2142317903E-02    0.8511510522E-01    0.3583250347E-04    0.5972364558E+00
    0.3000000000E+07    0.6800483542E+00    0.1259349355E-02    0.8452589816E-01    0.1989877461E-04    0.5992058971E+00
    0.5000000000E+07    0.6800610954E+00    0.9832606089E-03    0.8422627770E-01    0.1513059772E-04    0.5999334240E+00
    0.7000000000E+07    0.6800667064E+00    0.8352721633E-03    0.8402279912E-01    0.1263120261E-04    0.6003657281E+00
    0.9000000000E+07    0.6800698958E+00    0.7394285739E-03    0.8386824886E-01    0.1103717408E-04    0.6006683340E+00
    0.1100000000E+08    0.6800719668E+00    0.6708418278E-03    0.8374348898E-01    0.9909828354E-05    0.6008990036E+00
    0.1300000000E+08    0.6800734273E+00    0.6186136872E-03    0.8363881742E-01    0.9059540983E-05    0.6010843170E+00
    0.1500000000E+08    0.6800745166E+00    0.5771142131E-03    0.8354862488E-01    0.8389344967E-05    0.6012385908E+00
    0.1700000000E+08    0.6800753629E+00    0.5431017137E-03    0.8346937129E-01    0.7843875247E-05    0.6013703740E+00
    0.1900000000E+08    0.6800760411E+00    0.5145598349E-03    0.8339867739E-01    0.7388941384E-05    0.6014851592E+00
    0.2100000000E+08    0.6800765979E+00    0.4901595932E-03    0.8333486617E-01    0.7002149793E-05    0.6015866745E+00
    0.2300000000E+08    0.6800770642E+00    0.4689845913E-03    0.8327671080E-01    0.6668145233E-05    0.6016775605E+00
    0.2500000000E+08    0.6800774609E+00    0.4503796155E-03    0.8322328644E-01    0.6376004099E-05    0.6017597526E+00
    0.2700000000E+08    0.6800778031E+00    0.4338620564E-03    0.8317387847E-01    0.6117717248E-05    0.6018347096E+00
