  Pressure (Pa) 22mC5-400 (mol/kg) 2mC6-400 (mol/kg) 3mC6-400 (mol/kg) 33mC5-400 (mol/kg) C7-400 (mol/kg)
    0.1000000000E+01    0.5273901032E-02    0.2374425731E-02    0.2107566648E-02    0.6444071234E-04    0.3419958687E-02
    0.3000000000E+01    0.1550927380E-01    0.6911310427E-02    0.6186147222E-02    0.1875649498E-03    0.1003926014E-01
    0.5000000000E+01    0.2535080661E-01    0.1118311897E-01    0.1009264164E-01    0.3034881907E-03    0.1638051546E-01
    0.7000000000E+01    0.3482369332E-01    0.1520920717E-01    0.1383812302E-01    0.4127347515E-03    0.2246159103E-01
    0.9000000000E+01    0.4395097319E-01    0.1900718095E-01    0.1743272610E-01    0.5157816025E-03    0.2829884027E-01
    0.1100000000E+02    0.5275375570E-01    0.2259308535E-01    0.2088574486E-01    0.6130634799E-03    0.3390726092E-01
    0.1300000000E+02    0.6125141802E-01    0.2598156977E-01    0.2420571818E-01    0.7049773573E-03    0.3930063310E-01
    0.1500000000E+02    0.6946177884E-01    0.2918603303E-01    0.2740050519E-01    0.7918863687E-03    0.4449164081E-01
    0.1700000000E+02    0.7740125179E-01    0.3221875088E-01    0.3047735184E-01    0.8741232590E-03    0.4949197912E-01
    0.1900000000E+02    0.8508498125E-01    0.3509098848E-01    0.3344294970E-01    0.9519934254E-03    0.5431244908E-01
    0.2100000000E+02    0.9252696273E-01    0.3781309978E-01    0.3630348818E-01    0.1025777606E-02    0.5896304180E-01
    0.2300000000E+02    0.9974014994E-01    0.4039461559E-01    0.3906470093E-01    0.1095734263E-02    0.6345301328E-01
    0.2500000000E+02    0.1067365501E+00    0.4284432171E-01    0.4173190717E-01    0.1162101695E-02    0.6779095106E-01
    0.2700000000E+02    0.1135273093E+00    0.4517032857E-01    0.4431004860E-01    0.1225099919E-02    0.7198483370E-01
    0.2900000000E+02    0.1201227880E+00    0.4738013317E-01    0.4680372245E-01    0.1284932349E-02    0.7604208407E-01
    0.3100000000E+02    0.1265326303E+00    0.4948067454E-01    0.4921721108E-01    0.1341787295E-02    0.7996961710E-01
    0.3300000000E+02    0.1327658241E+00    0.5147838330E-01    0.5155450863E-01    0.1395839302E-02    0.8377388267E-01
    0.3500000000E+02    0.1388307571E+00    0.5337922616E-01    0.5381934492E-01    0.1447250356E-02    0.8746090426E-01
    0.3700000000E+02    0.1447352660E+00    0.5518874588E-01    0.5601520707E-01    0.1496170962E-02    0.9103631373E-01
    0.3900000000E+02    0.1504866816E+00    0.5691209719E-01    0.5814535903E-01    0.1542741120E-02    0.9450538286E-01
    0.4100000000E+02    0.1560918692E+00    0.5855407926E-01    0.6021285921E-01    0.1587091197E-02    0.9787305173E-01
    0.4300000000E+02    0.1615572653E+00    0.6011916491E-01    0.6222057649E-01    0.1629342724E-02    0.1011439546E+00
    0.4500000000E+02    0.1668889109E+00    0.6161152713E-01    0.6417120477E-01    0.1669609108E-02    0.1043224434E+00
    0.4700000000E+02    0.1720924821E+00    0.6303506303E-01    0.6606727614E-01    0.1707996283E-02    0.1074126087E+00
    0.4900000000E+02    0.1771733171E+00    0.6439341557E-01    0.6791117293E-01    0.1744603297E-02    0.1104182997E+00
    0.1000000000E+02    0.4839167708E-01    0.2082569532E-01    0.1917638307E-01    0.5651175155E-03    0.3113076587E-01
    0.3000000000E+02    0.1233503373E+00    0.4844364848E-01    0.4802023382E-01    0.1313720790E-02    0.7802165171E-01
    0.5000000000E+02    0.1796692907E+00    0.6504922192E-01    0.6881426211E-01    0.1762268446E-02    0.1118906084E+00
    0.7000000000E+02    0.2242222598E+00    0.7546380732E-01    0.8461790463E-01    0.2041719455E-02    0.1376791996E+00
    0.9000000000E+02    0.2607524526E+00    0.8215196577E-01    0.9710216199E-01    0.2219172117E-02    0.1580881197E+00
    0.1100000000E+03    0.2914888417E+00    0.8648257088E-01    0.1072592242E+00    0.2331992235E-02    0.1747219566E+00
    0.1300000000E+03    0.3178538763E+00    0.8926483856E-01    0.1157166997E+00    0.2402330150E-02    0.1885963102E+00
    0.1500000000E+03    0.3408067917E+00    0.9100082467E-01    0.1228917886E+00    0.2443966846E-02    0.2003867035E+00
    0.1700000000E+03    0.3610240611E+00    0.9201419442E-01    0.1290731509E+00    0.2465810497E-02    0.2105608087E+00
    0.1900000000E+03    0.3790006139E+00    0.9252017750E-01    0.1344672073E+00    0.2473799374E-02    0.2194532552E+00
    0.2100000000E+03    0.3951097580E+00    0.9266557894E-01    0.1392257070E+00    0.2471992446E-02    0.2273101888E+00
    0.2300000000E+03    0.4096403178E+00    0.9255266059E-01    0.1434628624E+00    0.2463221816E-02    0.2343169754E+00
    0.2500000000E+03    0.4228205757E+00    0.9225391588E-01    0.1472663915E+00    0.2449497366E-02    0.2406160635E+00
    0.2700000000E+03    0.4348342466E+00    0.9182149373E-01    0.1507048614E+00    0.2432265533E-02    0.2463188646E+00
    0.2900000000E+03    0.4458314630E+00    0.9129336929E-01    0.1538327035E+00    0.2412579210E-02    0.2515138726E+00
    0.3100000000E+03    0.4559365346E+00    0.9069747745E-01    0.1566937232E+00    0.2391211878E-02    0.2562723452E+00
    0.3300000000E+03    0.4652535596E+00    0.9005453726E-01    0.1593236057E+00    0.2368735805E-02    0.2606523641E+00
    0.3500000000E+03    0.4738705707E+00    0.8938001595E-01    0.1617517411E+00    0.2345576566E-02    0.2647017909E+00
    0.3700000000E+03    0.4818626558E+00    0.8868551585E-01    0.1640025736E+00    0.2322051657E-02    0.2684604552E+00
    0.3900000000E+03    0.4892943464E+00    0.8797976744E-01    0.1660966164E+00    0.2298398200E-02    0.2719617992E+00
    0.4100000000E+03    0.4962214749E+00    0.8726934911E-01    0.1680512237E+00    0.2274793077E-02    0.2752341308E+00
    0.4300000000E+03    0.5026926370E+00    0.8655921457E-01    0.1698811867E+00    0.2251367712E-02    0.2783015898E+00
    0.4500000000E+03    0.5087503572E+00    0.8585308332E-01    0.1715991981E+00    0.2228219039E-02    0.2811849019E+00
    0.4700000000E+03    0.5144320294E+00    0.8515373208E-01    0.1732162178E+00    0.2205417695E-02    0.2839019737E+00
    0.4900000000E+03    0.5197706815E+00    0.8446321427E-01    0.1747417650E+00    0.2183014205E-02    0.2864683649E+00
    0.1000000000E+03    0.2767421895E+00    0.8455207091E-01    0.1024261151E+00    0.2282023263E-02    0.1668033458E+00
    0.3000000000E+03    0.4509885915E+00    0.9100245663E-01    0.1552941696E+00    0.2402065919E-02    0.2539437759E+00
    0.5000000000E+03    0.5223206593E+00    0.8412175362E-01    0.1754728755E+00    0.2171973122E-02    0.2876993713E+00
    0.7000000000E+03    0.5609279542E+00    0.7794173095E-01    0.1868474940E+00    0.1975695497E-02    0.3069539839E+00
    0.9000000000E+03    0.5848553752E+00    0.7295658004E-01    0.1943890028E+00    0.1821658393E-02    0.3198500663E+00
    0.1100000000E+04    0.6010176049E+00    0.6889514319E-01    0.1998588758E+00    0.1698894562E-02    0.3292879551E+00
    0.1300000000E+04    0.6126126440E+00    0.6551323476E-01    0.2040595425E+00    0.1598574618E-02    0.3365950608E+00
    0.1500000000E+04    0.6213103511E+00    0.6263929512E-01    0.2074159045E+00    0.1514702133E-02    0.3424772881E+00
    0.1700000000E+04    0.6280622935E+00    0.6015491802E-01    0.2101768919E+00    0.1443225209E-02    0.3473498439E+00
    0.1900000000E+04    0.6334480522E+00    0.5797675146E-01    0.2124993664E+00    0.1381340152E-02    0.3514753468E+00
    0.2100000000E+04    0.6378396900E+00    0.5604454403E-01    0.2144877748E+00    0.1327051083E-02    0.3550292798E+00
    0.2300000000E+04    0.6414864466E+00    0.5431360281E-01    0.2162147339E+00    0.1278898164E-02    0.3581340570E+00
    0.2500000000E+04    0.6445612682E+00    0.5274999349E-01    0.2177325180E+00    0.1235787297E-02    0.3608780817E+00
    0.2700000000E+04    0.6471877679E+00    0.5132741534E-01    0.2190798506E+00    0.1196880695E-02    0.3633270415E+00
    0.2900000000E+04    0.6494565548E+00    0.5002511362E-01    0.2202861139E+00    0.1161524629E-02    0.3655309243E+00
    0.3100000000E+04    0.6514355066E+00    0.4882644944E-01    0.2213740614E+00    0.1129200465E-02    0.3675285501E+00
    0.3300000000E+04    0.6531764445E+00    0.4771789689E-01    0.2223616253E+00    0.1099490694E-02    0.3693505970E+00
    0.3500000000E+04    0.6547195953E+00    0.4668832458E-01    0.2232631558E+00    0.1072054833E-02    0.3710216796E+00
    0.3700000000E+04    0.6560966490E+00    0.4572847108E-01    0.2240902915E+00    0.1046611992E-02    0.3725618125E+00
    0.3900000000E+04    0.6573329003E+00    0.4483055503E-01    0.2248525845E+00    0.1022928039E-02    0.3739874634E+00
    0.4100000000E+04    0.6584487785E+00    0.4398798092E-01    0.2255579581E+00    0.1000805996E-02    0.3753123242E+00
    0.4300000000E+04    0.6594609596E+00    0.4319511378E-01    0.2262130470E+00    0.9800787429E-03    0.3765478875E+00
    0.4500000000E+04    0.6603831875E+00    0.4244710450E-01    0.2268234547E+00    0.9606034095E-03    0.3777038818E+00
    0.4700000000E+04    0.6612268889E+00    0.4173975270E-01    0.2273939507E+00    0.9422570029E-03    0.3787886064E+00
    0.4900000000E+04    0.6620016410E+00    0.4106939804E-01    0.2279286237E+00    0.9249329672E-03    0.3798091911E+00
    0.1000000000E+04    0.5936564273E+00    0.7082751048E-01    0.1973200904E+00    0.1756995225E-02    0.3248975207E+00
    0.3000000000E+04    0.6504787056E+00    0.4941373563E-01    0.2208436601E+00    0.1145011702E-02    0.3665534391E+00
    0.5000000000E+04    0.6623657381E+00    0.4074707665E-01    0.2281836481E+00    0.9166248488E-03    0.3802973904E+00
    0.7000000000E+04    0.6674580888E+00    0.3563868739E-01    0.2320508935E+00    0.7868059790E-03    0.3878299016E+00
    0.9000000000E+04    0.6702801404E+00    0.3214672082E-01    0.2345098561E+00    0.7000458977E-03    0.3927785521E+00
    0.1100000000E+05    0.6720719334E+00    0.2955647955E-01    0.2362383308E+00    0.6367223586E-03    0.3963583298E+00
    0.1300000000E+05    0.6733101127E+00    0.2753201814E-01    0.2375322565E+00    0.5878467189E-03    0.3991085631E+00
    0.1500000000E+05    0.6742167526E+00    0.2589100099E-01    0.2385437842E+00    0.5486302855E-03    0.4013105921E+00
    0.1700000000E+05    0.6749092195E+00    0.2452447961E-01    0.2393600323E+00    0.5162526382E-03    0.4031276372E+00
    0.1900000000E+05    0.6754553534E+00    0.2336268721E-01    0.2400348668E+00    0.4889286276E-03    0.4046618485E+00
    0.2100000000E+05    0.6758970899E+00    0.2235854125E-01    0.2406035748E+00    0.4654652431E-03    0.4059809045E+00
    0.2300000000E+05    0.6762617436E+00    0.2147893127E-01    0.2410903399E+00    0.4450305058E-03    0.4071316841E+00
    0.2500000000E+05    0.6765678673E+00    0.2069978517E-01    0.2415123479E+00    0.4270239549E-03    0.4081478398E+00
    0.2700000000E+05    0.6768285037E+00    0.2000311508E-01    0.2418821817E+00    0.4109997972E-03    0.4090542492E+00
    0.2900000000E+05    0.6770530892E+00    0.1937516641E-01    0.2422092867E+00    0.3966191295E-03    0.4098697596E+00
    0.3100000000E+05    0.6772486191E+00    0.1880521314E-01    0.2425009050E+00    0.3836190602E-03    0.4106089506E+00
    0.3300000000E+05    0.6774203895E+00    0.1828474825E-01    0.2427626915E+00    0.3717920861E-03    0.4112833046E+00
    0.3500000000E+05    0.6775724830E+00    0.1780692443E-01    0.2429991325E+00    0.3609719258E-03    0.4119020066E+00
    0.3700000000E+05    0.6777080977E+00    0.1736615834E-01    0.2432138371E+00    0.3510235470E-03    0.4124725049E+00
    0.3900000000E+05    0.6778297744E+00    0.1695784469E-01    0.2434097445E+00    0.3418359950E-03    0.4130009131E+00
    0.4100000000E+05    0.6779395572E+00    0.1657814568E-01    0.2435892750E+00    0.3333171360E-03    0.4134923035E+00
    0.4300000000E+05    0.6780391089E+00    0.1622383355E-01    0.2437544412E+00    0.3253897396E-03    0.4139509255E+00
    0.4500000000E+05    0.6781297964E+00    0.1589217090E-01    0.2439069318E+00    0.3179885144E-03    0.4143803700E+00
    0.4700000000E+05    0.6782127534E+00    0.1558081859E-01    0.2440481750E+00    0.3110578341E-03    0.4147836955E+00
    0.4900000000E+05    0.6782889281E+00    0.1528776397E-01    0.2441793875E+00    0.3045499718E-03    0.4151635262E+00
    0.1000000000E+05    0.6712660768E+00    0.3076497908E-01    0.2354420301E+00    0.6661568367E-03    0.3946971292E+00
    0.3000000000E+05    0.6771541219E+00    0.1908351653E-01    0.2423591467E+00    0.3899605964E-03    0.4102481156E+00
    0.5000000000E+05    0.6783247270E+00    0.1514754447E-01    0.2442415644E+00    0.3014414953E-03    0.4153453512E+00
    0.7000000000E+05    0.6788257121E+00    0.1298196223E-01    0.2451481375E+00    0.2538935481E-03    0.4181651242E+00
    0.9000000000E+05    0.6791039198E+00    0.1155864935E-01    0.2456816994E+00    0.2231449258E-03    0.4200385704E+00
    0.1100000000E+06    0.6792809525E+00    0.1053006853E-01    0.2460305512E+00    0.2011950240E-03    0.4214089645E+00
    0.1300000000E+06    0.6794035294E+00    0.9741185866E-02    0.2462738614E+00    0.1845261469E-03    0.4224729853E+00
    0.1500000000E+06    0.6794934391E+00    0.9110877534E-02    0.2464510598E+00    0.1713180302E-03    0.4233334110E+00
    0.1700000000E+06    0.6795622128E+00    0.8591981831E-02    0.2465840951E+00    0.1605220545E-03    0.4240500382E+00
    0.1900000000E+06    0.6796165246E+00    0.8154941181E-02    0.2466861915E+00    0.1514860726E-03    0.4246604173E+00
    0.2100000000E+06    0.6796605058E+00    0.7780153695E-02    0.2467658048E+00    0.1437804842E-03    0.4251895182E+00
    0.2300000000E+06    0.6796968505E+00    0.7454033112E-02    0.2468285977E+00    0.1371092873E-03    0.4256547030E+00
    0.2500000000E+06    0.6797273907E+00    0.7166822623E-02    0.2468785064E+00    0.1312610379E-03    0.4260684831E+00
    0.2700000000E+06    0.6797534156E+00    0.6911308248E-02    0.2469183513E+00    0.1260801493E-03    0.4264401432E+00
    0.2900000000E+06    0.6797758587E+00    0.6682024429E-02    0.2469502055E+00    0.1214492617E-03    0.4267767442E+00
    0.3100000000E+06    0.6797954128E+00    0.6474743593E-02    0.2469756262E+00    0.1172779654E-03    0.4270837688E+00
    0.3300000000E+06    0.6798126028E+00    0.6286136949E-02    0.2469958049E+00    0.1134953393E-03    0.4273655507E+00
    0.3500000000E+06    0.6798278335E+00    0.6113542480E-02    0.2470116680E+00    0.1100448666E-03    0.4276255691E+00
    0.3700000000E+06    0.6798414224E+00    0.5954802247E-02    0.2470239461E+00    0.1068808828E-03    0.4278666553E+00
    0.3900000000E+06    0.6798536217E+00    0.5808145760E-02    0.2470332225E+00    0.1039660378E-03    0.4280911413E+00
    0.4100000000E+06    0.6798646346E+00    0.5672104763E-02    0.2470399681E+00    0.1012694475E-03    0.4283009683E+00
    0.4300000000E+06    0.6798746264E+00    0.5545449874E-02    0.2470445668E+00    0.9876532383E-04    0.4284977681E+00
    0.4500000000E+06    0.6798837331E+00    0.5427142761E-02    0.2470473345E+00    0.9643194310E-04    0.4286829240E+00
    0.4700000000E+06    0.6798920675E+00    0.5316299530E-02    0.2470485332E+00    0.9425085890E-04    0.4288576178E+00
    0.4900000000E+06    0.6798997241E+00    0.5212162346E-02    0.2470483815E+00    0.9220629325E-04    0.4290228667E+00
    0.1000000000E+06    0.6792012864E+00    0.1100719939E-01    0.2458729038E+00    0.2113474708E-03    0.4207711841E+00
    0.3000000000E+06    0.6797859608E+00    0.6575859623E-02    0.2469636383E+00    0.1193109853E-03    0.4269336597E+00
    0.5000000000E+06    0.6799033236E+00    0.5162400593E-02    0.2470478580E+00    0.9123088458E-04    0.4291022292E+00
    0.7000000000E+06    0.6799537906E+00    0.4399102643E-02    0.2469986928E+00    0.7640427413E-04    0.4303565268E+00
    0.9000000000E+06    0.6799819121E+00    0.3902586724E-02    0.2469169651E+00    0.6690759196E-04    0.4312180666E+00
    0.1100000000E+07    0.6799998569E+00    0.3546198306E-02    0.2468275093E+00    0.6017122788E-04    0.4318653332E+00
    0.1300000000E+07    0.6800123122E+00    0.3274195597E-02    0.2467382687E+00    0.5507902188E-04    0.4323792649E+00
    0.1500000000E+07    0.6800214680E+00    0.3057679333E-02    0.2466520280E+00    0.5105822634E-04    0.4328029416E+00
    0.1700000000E+07    0.6800284856E+00    0.2879963690E-02    0.2465697079E+00    0.4778094898E-04    0.4331618308E+00
    0.1900000000E+07    0.6800340380E+00    0.2730647085E-02    0.2464914915E+00    0.4504426782E-04    0.4334721536E+00
    0.2100000000E+07    0.6800385421E+00    0.2602861283E-02    0.2464172610E+00    0.4271503964E-04    0.4337448353E+00
    0.2300000000E+07    0.6800422705E+00    0.2491862965E-02    0.2463467808E+00    0.4070183051E-04    0.4339875614E+00
    0.2500000000E+07    0.6800454085E+00    0.2394256164E-02    0.2462797781E+00    0.3893950997E-04    0.4342059298E+00
    0.2700000000E+07    0.6800480866E+00    0.2307536577E-02    0.2462159790E+00    0.3738026982E-04    0.4344041360E+00
    0.2900000000E+07    0.6800503997E+00    0.2229811219E-02    0.2461551240E+00    0.3598812482E-04    0.4345854004E+00
    0.3100000000E+07    0.6800524178E+00    0.2159618845E-02    0.2460969741E+00    0.3473540553E-04    0.4347522450E+00
    0.3300000000E+07    0.6800541945E+00    0.2095810956E-02    0.2460413121E+00    0.3360044337E-04    0.4349066799E+00
    0.3500000000E+07    0.6800557708E+00    0.2037470596E-02    0.2459879421E+00    0.3256599690E-04    0.4350503311E+00
    0.3700000000E+07    0.6800571790E+00    0.1983855536E-02    0.2459366880E+00    0.3161815442E-04    0.4351845314E+00
    0.3900000000E+07    0.6800584449E+00    0.1934357627E-02    0.2458873916E+00    0.3074555147E-04    0.4353103862E+00
    0.4100000000E+07    0.6800595891E+00    0.1888473156E-02    0.2458399105E+00    0.2993880179E-04    0.4354288220E+00
    0.4300000000E+07    0.6800606285E+00    0.1845780835E-02    0.2457941167E+00    0.2919007612E-04    0.4355406220E+00
    0.4500000000E+07    0.6800615770E+00    0.1805925215E-02    0.2457498945E+00    0.2849278563E-04    0.4356464545E+00
    0.4700000000E+07    0.6800624461E+00    0.1768604010E-02    0.2457071396E+00    0.2784134054E-04    0.4357468938E+00
    0.4900000000E+07    0.6800632455E+00    0.1733558280E-02    0.2456657572E+00    0.2723096371E-04    0.4358424367E+00
    0.1000000000E+07    0.6799917759E+00    0.3711269234E-02    0.2468725186E+00    0.6328259754E-04    0.4315621542E+00
    0.3000000000E+07    0.6800514419E+00    0.2193851424E-02    0.2461257250E+00    0.3534581062E-04    0.4346704893E+00
    0.5000000000E+07    0.6800636216E+00    0.1716817724E-02    0.2456455536E+00    0.2693986875E-04    0.4358885094E+00
    0.7000000000E+07    0.6800689221E+00    0.1460513184E-02    0.2452963299E+00    0.2252302899E-04    0.4366336639E+00
    0.9000000000E+07    0.6800719062E+00    0.1294266748E-02    0.2450213197E+00    0.1970176519E-04    0.4371654270E+00
    0.1100000000E+08    0.6800738279E+00    0.1175166113E-02    0.2447941112E+00    0.1770421699E-04    0.4375766078E+00
    0.1300000000E+08    0.6800751732E+00    0.1084392494E-02    0.2446003178E+00    0.1619624363E-04    0.4379106688E+00
    0.1500000000E+08    0.6800761701E+00    0.1012213468E-02    0.2444312315E+00    0.1500678651E-04    0.4381913413E+00
    0.1700000000E+08    0.6800769399E+00    0.9530201815E-03    0.2442811754E+00    0.1403808929E-04    0.4384329559E+00
    0.1900000000E+08    0.6800775534E+00    0.9033213211E-03    0.2441462390E+00    0.1322973809E-04    0.4386448075E+00
    0.2100000000E+08    0.6800780546E+00    0.8608143053E-03    0.2440236123E+00    0.1254213870E-04    0.4388332565E+00
    0.2300000000E+08    0.6800784722E+00    0.8239105243E-03    0.2439112067E+00    0.1194812639E-04    0.4390028407E+00
    0.2500000000E+08    0.6800788260E+00    0.7914735886E-03    0.2438074268E+00    0.1142836686E-04    0.4391569073E+00
    0.2700000000E+08    0.6800791298E+00    0.7626661060E-03    0.2437110259E+00    0.1096867808E-04    0.4392979938E+00
