  Pressure (Pa) 22mC5-400 (mol/kg) 2mC6-400 (mol/kg) 3mC6-400 (mol/kg) 33mC5-400 (mol/kg) C7-400 (mol/kg)
    0.1000000000E+01    0.5269547120E-02    0.3170549161E-02    0.1584225924E-02    0.1290662477E-03    0.1713800088E-02
    0.3000000000E+01    0.1547218086E-01    0.9255522898E-02    0.4670344925E-02    0.3767375290E-03    0.5052701465E-02
    0.5000000000E+01    0.2525315662E-01    0.1501948071E-01    0.7651654636E-02    0.6112943645E-03    0.8278683461E-02
    0.7000000000E+01    0.3464209863E-01    0.2048501993E-01    0.1053374036E-01    0.8336568173E-03    0.1139775640E-01
    0.9000000000E+01    0.4366584740E-01    0.2567270116E-01    0.1332179198E-01    0.1044662208E-02    0.1441550530E-01
    0.1100000000E+02    0.5234877860E-01    0.3060127225E-01    0.1602063846E-01    0.1245074204E-02    0.1733712706E-01
    0.1300000000E+02    0.6071307938E-01    0.3528786338E-01    0.1863477891E-01    0.1435590737E-02    0.2016746370E-01
    0.1500000000E+02    0.6877898856E-01    0.3974815734E-01    0.2116841032E-01    0.1616850911E-02    0.2291103237E-01
    0.1700000000E+02    0.7656500592E-01    0.4399653888E-01    0.2362545270E-01    0.1789441068E-02    0.2557205225E-01
    0.1900000000E+02    0.8408807527E-01    0.4804622576E-01    0.2600957163E-01    0.1953900104E-02    0.2815446884E-01
    0.2100000000E+02    0.9136374495E-01    0.5190938433E-01    0.2832419873E-01    0.2110724166E-02    0.3066197597E-01
    0.2300000000E+02    0.9840630899E-01    0.5559723158E-01    0.3057255006E-01    0.2260370787E-02    0.3309803561E-01
    0.2500000000E+02    0.1052289314E+00    0.5912012554E-01    0.3275764297E-01    0.2403262568E-02    0.3546589594E-01
    0.2700000000E+02    0.1118437563E+00    0.6248764556E-01    0.3488231121E-01    0.2539790427E-02    0.3776860765E-01
    0.2900000000E+02    0.1182620051E+00    0.6570866371E-01    0.3694921883E-01    0.2670316506E-02    0.4000903886E-01
    0.3100000000E+02    0.1244940630E+00    0.6879140847E-01    0.3896087276E-01    0.2795176755E-02    0.4218988863E-01
    0.3300000000E+02    0.1305495563E+00    0.7174352171E-01    0.4091963427E-01    0.2914683248E-02    0.4431369934E-01
    0.3500000000E+02    0.1364374204E+00    0.7457210964E-01    0.4282772949E-01    0.3029126253E-02    0.4638286794E-01
    0.3700000000E+02    0.1421659618E+00    0.7728378864E-01    0.4468725899E-01    0.3138776092E-02    0.4839965630E-01
    0.3900000000E+02    0.1477429125E+00    0.7988472638E-01    0.4650020658E-01    0.3243884814E-02    0.5036620066E-01
    0.4100000000E+02    0.1531754797E+00    0.8238067893E-01    0.4826844735E-01    0.3344687704E-02    0.5228452028E-01
    0.4300000000E+02    0.1584703897E+00    0.8477702419E-01    0.4999375508E-01    0.3441404641E-02    0.5415652540E-01
    0.4500000000E+02    0.1636339283E+00    0.8707879223E-01    0.5167780903E-01    0.3534241330E-02    0.5598402453E-01
    0.4700000000E+02    0.1686719762E+00    0.8929069259E-01    0.5332220021E-01    0.3623390415E-02    0.5776873125E-01
    0.4900000000E+02    0.1735900420E+00    0.9141713924E-01    0.5492843714E-01    0.3709032489E-02    0.5951227032E-01
    0.1000000000E+02    0.4804848018E-01    0.2816826903E-01    0.1468207728E-01    0.1146147305E-02    0.1588802150E-01
    0.3000000000E+02    0.1214006893E+00    0.6726682952E-01    0.3796180164E-01    0.2733434820E-02    0.4110674900E-01
    0.5000000000E+02    0.1760057086E+00    0.9244962155E-01    0.5571769793E-01    0.3750591767E-02    0.6036908688E-01
    0.7000000000E+02    0.2191185202E+00    0.1094935359E+00    0.6981146963E-01    0.4433714815E-02    0.7567983935E-01
    0.9000000000E+02    0.2545296353E+00    0.1214307326E+00    0.8134238313E-01    0.4907022837E-02    0.8822330108E-01
    0.1100000000E+03    0.2844322077E+00    0.1299954065E+00    0.9100302189E-01    0.5241724682E-02    0.9874596116E-01
    0.1300000000E+03    0.3101975973E+00    0.1362444221E+00    0.9925246670E-01    0.5481310256E-02    0.1077428515E+00
    0.1500000000E+03    0.3327373633E+00    0.1408541255E+00    0.1064077085E+00    0.5653664788E-02    0.1155559370E+00
    0.1700000000E+03    0.3526880180E+00    0.1442744635E+00    0.1126951060E+00    0.5777369569E-02    0.1224295158E+00
    0.1900000000E+03    0.3705122741E+00    0.1468143498E+00    0.1182809103E+00    0.5865197969E-02    0.1285430919E+00
    0.2100000000E+03    0.3865578633E+00    0.1486914789E+00    0.1232901805E+00    0.5926159156E-02    0.1340317509E+00
    0.2300000000E+03    0.4010934220E+00    0.1500626688E+00    0.1278189440E+00    0.5966745327E-02    0.1389992624E+00
    0.2500000000E+03    0.4143313227E+00    0.1510430219E+00    0.1319422663E+00    0.5991720783E-02    0.1435267780E+00
    0.2700000000E+03    0.4264427398E+00    0.1517183984E+00    0.1357197547E+00    0.6004636662E-02    0.1476787639E+00
    0.2900000000E+03    0.4375679134E+00    0.1521537546E+00    0.1391994027E+00    0.6008175650E-02    0.1515071472E+00
    0.3100000000E+03    0.4478233431E+00    0.1523988446E+00    0.1424203330E+00    0.6004388164E-02    0.1550542742E+00
    0.3300000000E+03    0.4573069591E+00    0.1524921981E+00    0.1454147929E+00    0.5994857423E-02    0.1583550626E+00
    0.3500000000E+03    0.4661019225E+00    0.1524639451E+00    0.1482096284E+00    0.5980816878E-02    0.1614385936E+00
    0.3700000000E+03    0.4742794777E+00    0.1523378540E+00    0.1508273926E+00    0.5963235048E-02    0.1643293071E+00
    0.3900000000E+03    0.4819011289E+00    0.1521328224E+00    0.1532871880E+00    0.5942877690E-02    0.1670479120E+00
    0.4100000000E+03    0.4890203310E+00    0.1518639816E+00    0.1556053168E+00    0.5920353911E-02    0.1696120880E+00
    0.4300000000E+03    0.4956838205E+00    0.1515435251E+00    0.1577957876E+00    0.5896150773E-02    0.1720370332E+00
    0.4500000000E+03    0.5019326772E+00    0.1511813354E+00    0.1598707147E+00    0.5870659521E-02    0.1743358952E+00
    0.4700000000E+03    0.5078031812E+00    0.1507854640E+00    0.1618406356E+00    0.5844195656E-02    0.1765201149E+00
    0.4900000000E+03    0.5133275116E+00    0.1503625015E+00    0.1637147662E+00    0.5817014415E-02    0.1785997017E+00
    0.1000000000E+03    0.2700699727E+00    0.1260571515E+00    0.8637365489E-01    0.5088513107E-02    0.9370183326E-01
    0.3000000000E+03    0.4427978404E+00    0.1522974494E+00    0.1408400503E+00    0.6007089380E-02    0.1533135322E+00
    0.5000000000E+03    0.5159689401E+00    0.1501425933E+00    0.1646184803E+00    0.5803221085E-02    0.1796030502E+00
    0.7000000000E+03    0.5561578236E+00    0.1452251288E+00    0.1791968966E+00    0.5523161033E-02    0.1958436865E+00
    0.9000000000E+03    0.5812101206E+00    0.1402966335E+00    0.1895022290E+00    0.5267018553E-02    0.2073945078E+00
    0.1100000000E+04    0.5981629422E+00    0.1357841857E+00    0.1973779352E+00    0.5043705265E-02    0.2162677741E+00
    0.1300000000E+04    0.6103246765E+00    0.1317188283E+00    0.2036995991E+00    0.4849213636E-02    0.2234222280E+00
    0.1500000000E+04    0.6194390264E+00    0.1280545079E+00    0.2089476483E+00    0.4678378690E-02    0.2293854024E+00
    0.1700000000E+04    0.6265049247E+00    0.1247355553E+00    0.2134125977E+00    0.4526820081E-02    0.2344771131E+00
    0.1900000000E+04    0.6321325819E+00    0.1217118260E+00    0.2172828619E+00    0.4391092912E-02    0.2389052663E+00
    0.2100000000E+04    0.6367142977E+00    0.1189412020E+00    0.2206872684E+00    0.4268521632E-02    0.2428123272E+00
    0.2300000000E+04    0.6405130123E+00    0.1163889612E+00    0.2237176156E+00    0.4157016396E-02    0.2463000183E+00
    0.2500000000E+04    0.6437111731E+00    0.1140265264E+00    0.2264415208E+00    0.4054926150E-02    0.2494434099E+00
    0.2700000000E+04    0.6464391304E+00    0.1118302674E+00    0.2289101623E+00    0.3960929666E-02    0.2522994237E+00
    0.2900000000E+04    0.6487923697E+00    0.1097805053E+00    0.2311631661E+00    0.3873956189E-02    0.2549122072E+00
    0.3100000000E+04    0.6508423641E+00    0.1078607228E+00    0.2332318091E+00    0.3793127570E-02    0.2573166628E+00
    0.3300000000E+04    0.6526436308E+00    0.1060569467E+00    0.2351411898E+00    0.3717715688E-02    0.2595408412E+00
    0.3500000000E+04    0.6542384487E+00    0.1043572669E+00    0.2369117395E+00    0.3647110755E-02    0.2616076102E+00
    0.3700000000E+04    0.6556600918E+00    0.1027514592E+00    0.2385602996E+00    0.3580797419E-02    0.2635358466E+00
    0.3900000000E+04    0.6569350930E+00    0.1012306880E+00    0.2401009081E+00    0.3518336523E-02    0.2653413057E+00
    0.4100000000E+04    0.6580848604E+00    0.9978727084E-01    0.2415453814E+00    0.3459351006E-02    0.2670372670E+00
    0.4300000000E+04    0.6591268518E+00    0.9841448951E-01    0.2429037545E+00    0.3403514892E-02    0.2686350220E+00
    0.4500000000E+04    0.6600754418E+00    0.9710643773E-01    0.2441846175E+00    0.3350544584E-02    0.2701442481E+00
    0.4700000000E+04    0.6609425704E+00    0.9585789751E-01    0.2453953770E+00    0.3300191929E-02    0.2715732991E+00
    0.4900000000E+04    0.6617382360E+00    0.9466423777E-01    0.2465424607E+00    0.3252238623E-02    0.2729294330E+00
    0.1000000000E+04    0.5904404308E+00    0.1379831075E+00    0.1936759737E+00    0.5151431048E-02    0.2120916446E+00
    0.3000000000E+04    0.6498515320E+00    0.1088052934E+00    0.2322188395E+00    0.3832822380E-02    0.2561385846E+00
    0.5000000000E+04    0.6621119582E+00    0.9408668051E-01    0.2470939061E+00    0.3229100536E-02    0.2735821701E+00
    0.7000000000E+04    0.6673241849E+00    0.8461637037E-01    0.2558315296E+00    0.2855393680E-02    0.2839999732E+00
    0.9000000000E+04    0.6701994338E+00    0.7779425180E-01    0.2618105427E+00    0.2592430380E-02    0.2912226828E+00
    0.1100000000E+05    0.6720193907E+00    0.7254664761E-01    0.2662528920E+00    0.2393501141E-02    0.2966490607E+00
    0.1300000000E+05    0.6732742392E+00    0.6833205937E-01    0.2697300332E+00    0.2235774311E-02    0.3009382454E+00
    0.1500000000E+05    0.6741915334E+00    0.6484161281E-01    0.2725518257E+00    0.2106505846E-02    0.3044499554E+00
    0.1700000000E+05    0.6748912036E+00    0.6188363632E-01    0.2749035421E+00    0.1997915892E-02    0.3074005033E+00
    0.1900000000E+05    0.6754424201E+00    0.5933162876E-01    0.2769039878E+00    0.1904936457E-02    0.3099293133E+00
    0.2100000000E+05    0.6758878657E+00    0.5709806844E-01    0.2786334716E+00    0.1824098892E-02    0.3121310764E+00
    0.2300000000E+05    0.6762553000E+00    0.5512009847E-01    0.2801485665E+00    0.1752934872E-02    0.3140727895E+00
    0.2500000000E+05    0.6765635552E+00    0.5335118584E-01    0.2814904722E+00    0.1689631630E-02    0.3158034432E+00
    0.2700000000E+05    0.6768258557E+00    0.5175600485E-01    0.2826900242E+00    0.1632822664E-02    0.3173598457E+00
    0.2900000000E+05    0.6770517607E+00    0.5030716326E-01    0.2837708369E+00    0.1581455018E-02    0.3187702886E+00
    0.3100000000E+05    0.6772483510E+00    0.4898303211E-01    0.2847513510E+00    0.1534701988E-02    0.3200569416E+00
    0.3300000000E+05    0.6774209830E+00    0.4776626322E-01    0.2856462109E+00    0.1491903923E-02    0.3212374695E+00
    0.3500000000E+05    0.6775737835E+00    0.4664275001E-01    0.2864672180E+00    0.1452526977E-02    0.3223261530E+00
    0.3700000000E+05    0.6777099833E+00    0.4560088239E-01    0.2872240056E+00    0.1416133708E-02    0.3233346849E+00
    0.3900000000E+05    0.6778321478E+00    0.4463100190E-01    0.2879245276E+00    0.1382361689E-02    0.3242727484E+00
    0.4100000000E+05    0.6779423396E+00    0.4372499612E-01    0.2885754182E+00    0.1350907667E-02    0.3251484429E+00
    0.4300000000E+05    0.6780422364E+00    0.4287599217E-01    0.2891822616E+00    0.1321515640E-02    0.3259686051E+00
    0.4500000000E+05    0.6781332164E+00    0.4207812159E-01    0.2897497974E+00    0.1293967752E-02    0.3267390531E+00
    0.4700000000E+05    0.6782164222E+00    0.4132633791E-01    0.2902820785E+00    0.1268077255E-02    0.3274647749E+00
    0.4900000000E+05    0.6782928094E+00    0.4061627321E-01    0.2907825939E+00    0.1243682999E-02    0.3281500757E+00
    0.1000000000E+05    0.6712014389E+00    0.7501502907E-01    0.2641793876E+00    0.2486719190E-02    0.2941092845E+00
    0.3000000000E+05    0.6771533518E+00    0.4963067957E-01    0.2842726399E+00    0.1557546266E-02    0.3194278942E+00
    0.5000000000E+05    0.6783287027E+00    0.4027567757E-01    0.2910219001E+00    0.1232002508E-02    0.3284787561E+00
    0.7000000000E+05    0.6788306230E+00    0.3494511138E-01    0.2946990371E+00    0.1050992744E-02    0.3336244515E+00
    0.9000000000E+05    0.6791090026E+00    0.3136859966E-01    0.2970889043E+00    0.9315356363E-03    0.3370869686E+00
    0.1100000000E+06    0.6792859908E+00    0.2874721316E-01    0.2987963467E+00    0.8450695013E-03    0.3396364206E+00
    0.1300000000E+06    0.6794084547E+00    0.2671551260E-01    0.3000911326E+00    0.7787269297E-03    0.3416226287E+00
    0.1500000000E+06    0.6794982322E+00    0.2507883526E-01    0.3011142132E+00    0.7257333052E-03    0.3432312942E+00
    0.1700000000E+06    0.6795668724E+00    0.2372246017E-01    0.3019473503E+00    0.6821339711E-03    0.3445716803E+00
    0.1900000000E+06    0.6796210564E+00    0.2257370086E-01    0.3026416508E+00    0.6454433718E-03    0.3457129789E+00
    0.2100000000E+06    0.6796649178E+00    0.2158391810E-01    0.3032309090E+00    0.6140098261E-03    0.3467014981E+00
    0.2300000000E+06    0.6797011513E+00    0.2071914266E-01    0.3037384755E+00    0.5866868968E-03    0.3475695988E+00
    0.2500000000E+06    0.6797315884E+00    0.1995482011E-01    0.3041810655E+00    0.5626504471E-03    0.3483406951E+00
    0.2700000000E+06    0.6797575179E+00    0.1927269166E-01    0.3045709976E+00    0.5412906972E-03    0.3490322176E+00
    0.2900000000E+06    0.6797798727E+00    0.1865885400E-01    0.3049175737E+00    0.5221454385E-03    0.3496574565E+00
    0.3100000000E+06    0.6797993448E+00    0.1810250464E-01    0.3052279647E+00    0.5048570516E-03    0.3502267528E+00
    0.3300000000E+06    0.6798164585E+00    0.1759510323E-01    0.3055077981E+00    0.4891439046E-03    0.3507482943E+00
    0.3500000000E+06    0.6798316180E+00    0.1712979509E-01    0.3057615592E+00    0.4747807697E-03    0.3512286631E+00
    0.3700000000E+06    0.6798451403E+00    0.1670100490E-01    0.3059928717E+00    0.4615850772E-03    0.3516732214E+00
    0.3900000000E+06    0.6798572772E+00    0.1630414439E-01    0.3062046987E+00    0.4494070559E-03    0.3520863895E+00
    0.4100000000E+06    0.6798682315E+00    0.1593539775E-01    0.3063994895E+00    0.4381225243E-03    0.3524718494E+00
    0.4300000000E+06    0.6798781682E+00    0.1559156163E-01    0.3065792880E+00    0.4276275283E-03    0.3528326976E+00
    0.4500000000E+06    0.6798872228E+00    0.1526992392E-01    0.3067458150E+00    0.4178342923E-03    0.3531715601E+00
    0.4700000000E+06    0.6798955080E+00    0.1496817065E-01    0.3069005305E+00    0.4086681188E-03    0.3534906811E+00
    0.4900000000E+06    0.6799031180E+00    0.1468431369E-01    0.3070446821E+00    0.4000649850E-03    0.3537919920E+00
    0.1000000000E+06    0.6792063609E+00    0.2996707146E-01    0.2980067249E+00    0.8851877445E-03    0.3384484586E+00
    0.3000000000E+06    0.6797899331E+00    0.1837407231E-01    0.3050769098E+00    0.5132882549E-03    0.3499485426E+00
    0.5000000000E+06    0.6799066951E+00    0.1454854986E-01    0.3071131378E+00    0.3959569974E-03    0.3539365004E+00
    0.7000000000E+06    0.6799568090E+00    0.1245600188E-01    0.3081236279E+00    0.3332190789E-03    0.3562009451E+00
    0.9000000000E+06    0.6799846923E+00    0.1108458268E-01    0.3087320859E+00    0.2927377807E-03    0.3577312971E+00
    0.1100000000E+07    0.6800024627E+00    0.1009516155E-01    0.3091379073E+00    0.2638784415E-03    0.3588649231E+00
    0.1300000000E+07    0.6800147830E+00    0.9337147311E-02    0.3094262957E+00    0.2419815699E-03    0.3597539249E+00
    0.1500000000E+07    0.6800238305E+00    0.8731970833E-02    0.3096402304E+00    0.2246414862E-03    0.3604787542E+00
    0.1700000000E+07    0.6800307585E+00    0.8234048613E-02    0.3098038917E+00    0.2104745091E-03    0.3610866757E+00
    0.1900000000E+07    0.6800362353E+00    0.7814855188E-02    0.3099319842E+00    0.1986211197E-03    0.3616076122E+00
    0.2100000000E+07    0.6800406745E+00    0.7455495064E-02    0.3100339882E+00    0.1885156222E-03    0.3620616003E+00
    0.2300000000E+07    0.6800443463E+00    0.7142883631E-02    0.3101163009E+00    0.1797685230E-03    0.3624626568E+00
    0.2500000000E+07    0.6800474345E+00    0.6867631353E-02    0.3101834003E+00    0.1721017553E-03    0.3628209373E+00
    0.2700000000E+07    0.6800500683E+00    0.6622800095E-02    0.3102385163E+00    0.1653108087E-03    0.3631440144E+00
    0.2900000000E+07    0.6800523415E+00    0.6403136017E-02    0.3102840383E+00    0.1592414821E-03    0.3634376727E+00
    0.3100000000E+07    0.6800543238E+00    0.6204577105E-02    0.3103217715E+00    0.1537750258E-03    0.3637064216E+00
    0.3300000000E+07    0.6800560677E+00    0.6023926144E-02    0.3103531056E+00    0.1488183153E-03    0.3639538390E+00
    0.3500000000E+07    0.6800576141E+00    0.5858627187E-02    0.3103791271E+00    0.1442971590E-03    0.3641828068E+00
    0.3700000000E+07    0.6800589949E+00    0.5706608875E-02    0.3104006975E+00    0.1401516248E-03    0.3643956779E+00
    0.3900000000E+07    0.6800602354E+00    0.5566172188E-02    0.3104185086E+00    0.1363327027E-03    0.3645943960E+00
    0.4100000000E+07    0.6800613561E+00    0.5435908458E-02    0.3104331219E+00    0.1327998745E-03    0.3647805838E+00
    0.4300000000E+07    0.6800623737E+00    0.5314638436E-02    0.3104449975E+00    0.1295193125E-03    0.3649556085E+00
    0.4500000000E+07    0.6800633018E+00    0.5201366312E-02    0.3104545162E+00    0.1264625249E-03    0.3651206323E+00
    0.4700000000E+07    0.6800641518E+00    0.5095244526E-02    0.3104619953E+00    0.1236053212E-03    0.3652766504E+00
    0.4900000000E+07    0.6800649333E+00    0.4995546505E-02    0.3104677010E+00    0.1209270124E-03    0.3654245214E+00
    0.1000000000E+07    0.6799944628E+00    0.1055396632E-01    0.3089535601E+00    0.2772229846E-03    0.3583357851E+00
    0.3000000000E+07    0.6800533654E+00    0.6301435494E-02    0.3103037834E+00    0.1564392256E-03    0.3635749186E+00
    0.5000000000E+07    0.6800653008E+00    0.4947907080E-02    0.3104699608E+00    0.1196492791E-03    0.3654956384E+00
    0.7000000000E+07    0.6800704713E+00    0.4217230494E-02    0.3104618780E+00    0.1002281224E-03    0.3666285369E+00
    0.9000000000E+07    0.6800733721E+00    0.3741969702E-02    0.3104046386E+00    0.8778868977E-04    0.3674168521E+00
    0.1100000000E+08    0.6800752353E+00    0.3400833656E-02    0.3103311820E+00    0.7896446460E-04    0.3680148524E+00
    0.1300000000E+08    0.6800765368E+00    0.3140460043E-02    0.3102529917E+00    0.7229350049E-04    0.3684933132E+00
    0.1500000000E+08    0.6800774994E+00    0.2933188355E-02    0.3101746613E+00    0.6702570112E-04    0.3688902437E+00
    0.1700000000E+08    0.6800782418E+00    0.2763049622E-02    0.3100981366E+00    0.6273166716E-04    0.3692282786E+00
    0.1900000000E+08    0.6800788327E+00    0.2620089678E-02    0.3100242268E+00    0.5914566238E-04    0.3695219237E+00
    0.2100000000E+08    0.6800793149E+00    0.2497735898E-02    0.3099532184E+00    0.5609332911E-04    0.3697810012E+00
    0.2300000000E+08    0.6800797164E+00    0.2391449156E-02    0.3098851485E+00    0.5345492845E-04    0.3700124528E+00
    0.2500000000E+08    0.6800800563E+00    0.2297979669E-02    0.3098199353E+00    0.5114516590E-04    0.3702213560E+00
    0.2700000000E+08    0.6800803481E+00    0.2214930912E-02    0.3097574421E+00    0.4910143039E-04    0.3704115308E+00
