  Pressure (Pa) 22mC5-400 (mol/kg) 2mC6-400 (mol/kg) 3mC6-400 (mol/kg) 33mC5-400 (mol/kg) C7-400 (mol/kg)
    0.1000000000E+01    0.5276926756E-02    0.1584079225E-02    0.5271805972E-03    0.2579472359E-03    0.5132741699E-02
    0.3000000000E+01    0.1553513285E-01    0.4617131454E-02    0.1549016221E-02    0.7518266923E-03    0.1508295099E-01
    0.5000000000E+01    0.2541908363E-01    0.7480594287E-02    0.2529733774E-02    0.1218066914E-02    0.2463456748E-01
    0.7000000000E+01    0.3495101466E-01    0.1018617130E-01    0.3471839131E-02    0.1658569223E-02    0.3381184817E-01
    0.9000000000E+01    0.4415139768E-01    0.1274457175E-01    0.4377637174E-02    0.2075073611E-02    0.4263710583E-01
    0.1100000000E+02    0.5303911142E-01    0.1516561126E-01    0.5249251584E-02    0.2469175074E-02    0.5113090040E-01
    0.1300000000E+02    0.6163159323E-01    0.1745830074E-01    0.6088642347E-02    0.2842338043E-02    0.5931220824E-01
    0.1500000000E+02    0.6994497370E-01    0.1963092504E-01    0.6897621258E-02    0.3195909138E-02    0.6719857205E-01
    0.1700000000E+02    0.7799419668E-01    0.2169111261E-01    0.7677865704E-02    0.3531128480E-02    0.7480623411E-01
    0.1900000000E+02    0.8579312630E-01    0.2364589758E-01    0.8430930926E-02    0.3849139744E-02    0.8215025493E-01
    0.2100000000E+02    0.9335464277E-01    0.2550177483E-01    0.9158260971E-02    0.4150999115E-02    0.8924461908E-01
    0.2300000000E+02    0.1006907282E+00    0.2726474934E-01    0.9861198475E-02    0.4437683269E-02    0.9610232988E-01
    0.2500000000E+02    0.1078125436E+00    0.2894038012E-01    0.1054099344E-01    0.4710096517E-02    0.1027354943E+00
    0.2700000000E+02    0.1147304981E+00    0.3053381973E-01    0.1119881112E-01    0.4969077202E-02    0.1091553989E+00
    0.2900000000E+02    0.1214543117E+00    0.3204984963E-01    0.1183573908E-01    0.5215403440E-02    0.1153725788E+00
    0.3100000000E+02    0.1279930711E+00    0.3349291201E-01    0.1245279361E-01    0.5449798279E-02    0.1213968789E+00
    0.3300000000E+02    0.1343552810E+00    0.3486713845E-01    0.1305092546E-01    0.5672934346E-02    0.1272375103E+00
    0.3500000000E+02    0.1405489101E+00    0.3617637575E-01    0.1363102509E-01    0.5885438039E-02    0.1329030999E+00
    0.3700000000E+02    0.1465814330E+00    0.3742420929E-01    0.1419392737E-01    0.6087893315E-02    0.1384017369E+00
    0.3900000000E+02    0.1524598681E+00    0.3861398419E-01    0.1474041587E-01    0.6280845116E-02    0.1437410139E+00
    0.4100000000E+02    0.1581908121E+00    0.3974882439E-01    0.1527122674E-01    0.6464802474E-02    0.1489280643E+00
    0.4300000000E+02    0.1637804716E+00    0.4083165009E-01    0.1578705230E-01    0.6640241330E-02    0.1539695973E+00
    0.4500000000E+02    0.1692346916E+00    0.4186519353E-01    0.1628854421E-01    0.6807607096E-02    0.1588719285E+00
    0.4700000000E+02    0.1745589820E+00    0.4285201334E-01    0.1677631648E-01    0.6967316984E-02    0.1636410087E+00
    0.4900000000E+02    0.1797585414E+00    0.4379450767E-01    0.1725094810E-01    0.7119762134E-02    0.1682824499E+00
    0.1000000000E+02    0.4863321625E-01    0.1397168054E-01    0.4817591188E-02    0.2274830278E-02    0.4692421471E-01
    0.3000000000E+02    0.1247462785E+00    0.3278023657E-01    0.1214668963E-01    0.5334049115E-02    0.1184082489E+00
    0.5000000000E+02    0.1823130917E+00    0.4424984127E-01    0.1748350815E-01    0.7193376014E-02    0.1705569731E+00
    0.7000000000E+02    0.2279143914E+00    0.5150740154E-01    0.2156252296E-01    0.8362276763E-02    0.2104874081E+00
    0.9000000000E+02    0.2652504867E+00    0.5619495871E-01    0.2479433809E-01    0.9108964247E-02    0.2421807324E+00
    0.1100000000E+03    0.2965751271E+00    0.5924162482E-01    0.2742689109E-01    0.9585632917E-02    0.2680423813E+00
    0.1300000000E+03    0.3233497715E+00    0.6120386433E-01    0.2961899599E-01    0.9883707436E-02    0.2896140537E+00
    0.1500000000E+03    0.3465710092E+00    0.6243014169E-01    0.3147724207E-01    0.1006060869E-01    0.3079310843E+00
    0.1700000000E+03    0.3669469041E+00    0.6314660267E-01    0.3307593055E-01    0.1015370588E-01    0.3237156070E+00
    0.1900000000E+03    0.3849978638E+00    0.6350434628E-01    0.3446850662E-01    0.1018802978E-01    0.3374873576E+00
    0.2100000000E+03    0.4011173204E+00    0.6360678599E-01    0.3569444297E-01    0.1018074756E-01    0.3496304158E+00
    0.2300000000E+03    0.4156098406E+00    0.6352613214E-01    0.3678355776E-01    0.1014386542E-01    0.3604350870E+00
    0.2500000000E+03    0.4287159658E+00    0.6331366214E-01    0.3775881904E-01    0.1008591714E-01    0.3701251123E+00
    0.2700000000E+03    0.4406289364E+00    0.6300630722E-01    0.3863822162E-01    0.1001305019E-01    0.3788758858E+00
    0.2900000000E+03    0.4515062775E+00    0.6263098359E-01    0.3943607627E-01    0.9929741956E-02    0.3868269720E+00
    0.3100000000E+03    0.4614780297E+00    0.6220750297E-01    0.4016391578E-01    0.9839282479E-02    0.3940909068E+00
    0.3300000000E+03    0.4706527282E+00    0.6175056609E-01    0.4083114488E-01    0.9744105999E-02    0.4007595113E+00
    0.3500000000E+03    0.4791218330E+00    0.6127115128E-01    0.4144551477E-01    0.9646022581E-02    0.4069085049E+00
    0.3700000000E+03    0.4869630712E+00    0.6077749631E-01    0.4201347547E-01    0.9546382296E-02    0.4126009308E+00
    0.3900000000E+03    0.4942429975E+00    0.6027580200E-01    0.4254044113E-01    0.9446193169E-02    0.4178897364E+00
    0.4100000000E+03    0.5010189847E+00    0.5977074245E-01    0.4303099258E-01    0.9346206904E-02    0.4228197440E+00
    0.4300000000E+03    0.5073407907E+00    0.5926583908E-01    0.4348903383E-01    0.9246981849E-02    0.4274291739E+00
    0.4500000000E+03    0.5132518062E+00    0.5876373755E-01    0.4391791427E-01    0.9148929687E-02    0.4317508346E+00
    0.4700000000E+03    0.5187900583E+00    0.5826641456E-01    0.4432052521E-01    0.9052350344E-02    0.4358130623E+00
    0.4900000000E+03    0.5239890263E+00    0.5777533342E-01    0.4469937669E-01    0.8957458297E-02    0.4396404699E+00
    0.1000000000E+03    0.2815591748E+00    0.5788235246E-01    0.2617405328E-01    0.9374312698E-02    0.2557292002E+00
    0.3000000000E+03    0.4565981229E+00    0.6242424297E-01    0.3980811651E-01    0.9885237033E-02    0.3905386699E+00
    0.5000000000E+03    0.5264706643E+00    0.5753248012E-01    0.4488058822E-01    0.8910693682E-02    0.4414729401E+00
    0.7000000000E+03    0.5639360456E+00    0.5313604225E-01    0.4766665973E-01    0.8079513953E-02    0.4698130638E+00
    0.9000000000E+03    0.5870904630E+00    0.4958995172E-01    0.4947287757E-01    0.7427591716E-02    0.4883976631E+00
    0.1100000000E+04    0.6027274283E+00    0.4670346331E-01    0.5075779989E-01    0.6908513323E-02    0.5017569700E+00
    0.1300000000E+04    0.6139554751E+00    0.4430334764E-01    0.5172798686E-01    0.6484862931E-02    0.5119417018E+00
    0.1500000000E+04    0.6223888883E+00    0.4226729690E-01    0.5249159355E-01    0.6131187180E-02    0.5200305482E+00
    0.1700000000E+04    0.6289451179E+00    0.4051059158E-01    0.5311130386E-01    0.5830258875E-02    0.5266513994E+00
    0.1900000000E+04    0.6341823497E+00    0.3897343916E-01    0.5362621736E-01    0.5570141777E-02    0.5321975195E+00
    0.2100000000E+04    0.6384588394E+00    0.3761254317E-01    0.5406212054E-01    0.5342330394E-02    0.5369292898E+00
    0.2300000000E+04    0.6420146539E+00    0.3639575345E-01    0.5443678092E-01    0.5140599533E-02    0.5410267967E+00
    0.2500000000E+04    0.6450164795E+00    0.3529864630E-01    0.5476288101E-01    0.4960282013E-02    0.5446190534E+00
    0.2700000000E+04    0.6475835503E+00    0.3430228999E-01    0.5504974116E-01    0.4797803666E-02    0.5478012048E+00
    0.2900000000E+04    0.6498033442E+00    0.3339174783E-01    0.5530438033E-01    0.4650375852E-02    0.5506451458E+00
    0.3100000000E+04    0.6517414550E+00    0.3255505044E-01    0.5553219544E-01    0.4515786838E-02    0.5532063390E+00
    0.3300000000E+04    0.6534480083E+00    0.3178247373E-01    0.5573741124E-01    0.4392256867E-02    0.5555283406E+00
    0.3500000000E+04    0.6549619515E+00    0.3106602108E-01    0.5592338695E-01    0.4278335275E-02    0.5576458911E+00
    0.3700000000E+04    0.6563139952E+00    0.3039904477E-01    0.5609283042E-01    0.4172826020E-02    0.5595870804E+00
    0.3900000000E+04    0.6575286747E+00    0.2977596456E-01    0.5624795115E-01    0.4074732815E-02    0.5613748967E+00
    0.4100000000E+04    0.6586258232E+00    0.2919205516E-01    0.5639057165E-01    0.3983218064E-02    0.5630283570E+00
    0.4300000000E+04    0.6596216439E+00    0.2864328342E-01    0.5652220988E-01    0.3897571668E-02    0.5645633461E+00
    0.4500000000E+04    0.6605295014E+00    0.2812618220E-01    0.5664414136E-01    0.3817187030E-02    0.5659932485E+00
    0.4700000000E+04    0.6613605163E+00    0.2763775126E-01    0.5675744641E-01    0.3741542363E-02    0.5673294316E+00
    0.4900000000E+04    0.6621240155E+00    0.2717537877E-01    0.5686304671E-01    0.3670185970E-02    0.5685816199E+00
    0.1000000000E+04    0.5956044544E+00    0.4807637468E-01    0.5016428285E-01    0.7154106491E-02    0.4955696780E+00
    0.3000000000E+04    0.6508041730E+00    0.3296482204E-01    0.5542135351E-01    0.4581596483E-02    0.5519581263E+00
    0.5000000000E+04    0.6624829580E+00    0.2695323871E-01    0.5691320938E-01    0.3635990958E-02    0.5691788788E+00
    0.7000000000E+04    0.6675127655E+00    0.2344857546E-01    0.5765609881E-01    0.3103931379E-02    0.5782463912E+00
    0.9000000000E+04    0.6703085223E+00    0.2107083590E-01    0.5810844621E-01    0.2750870926E-02    0.5840427802E+00
    0.1100000000E+05    0.6720870603E+00    0.1931690777E-01    0.5841499726E-01    0.2494556496E-02    0.5881494349E+00
    0.1300000000E+05    0.6733177560E+00    0.1795205519E-01    0.5863713800E-01    0.2297554481E-02    0.5912518363E+00
    0.1500000000E+05    0.6742198330E+00    0.1684962927E-01    0.5880568951E-01    0.2140028499E-02    0.5937009999E+00
    0.1700000000E+05    0.6749093606E+00    0.1593432351E-01    0.5893794528E-01    0.2010347417E-02    0.5956974975E+00
    0.1900000000E+05    0.6754535228E+00    0.1515811155E-01    0.5904440872E-01    0.1901177318E-02    0.5973652488E+00
    0.2100000000E+05    0.6758938960E+00    0.1448869614E-01    0.5913185064E-01    0.1807632990E-02    0.5987854432E+00
    0.2300000000E+05    0.6762575852E+00    0.1390343381E-01    0.5920484343E-01    0.1726317358E-02    0.6000137661E+00
    0.2500000000E+05    0.6765630152E+00    0.1338590645E-01    0.5926659241E-01    0.1654784883E-02    0.6010898408E+00
    0.2700000000E+05    0.6768231470E+00    0.1292387505E-01    0.5931941455E-01    0.1591224076E-02    0.6020427252E+00
    0.2900000000E+05    0.6770473627E+00    0.1250800111E-01    0.5936502824E-01    0.1534260618E-02    0.6028942737E+00
    0.3100000000E+05    0.6772426213E+00    0.1213101653E-01    0.5940473605E-01    0.1482830413E-02    0.6036612794E+00
    0.3300000000E+05    0.6774141931E+00    0.1178716711E-01    0.5943954400E-01    0.1436094989E-02    0.6043568857E+00
    0.3500000000E+05    0.6775661428E+00    0.1147182885E-01    0.5947024189E-01    0.1393383493E-02    0.6049915454E+00
    0.3700000000E+05    0.6777016553E+00    0.1118123700E-01    0.5949745867E-01    0.1354151932E-02    0.6055736897E+00
    0.3900000000E+05    0.6778232617E+00    0.1091229060E-01    0.5952170159E-01    0.1317953911E-02    0.6061102034E+00
    0.4100000000E+05    0.6779329989E+00    0.1066240885E-01    0.5954338441E-01    0.1284419217E-02    0.6066067715E+00
    0.4300000000E+05    0.6780325244E+00    0.1042942381E-01    0.5956284803E-01    0.1253237888E-02    0.6070681351E+00
    0.4500000000E+05    0.6781232007E+00    0.1021149897E-01    0.5958037592E-01    0.1224148164E-02    0.6074982834E+00
    0.4700000000E+05    0.6782061584E+00    0.1000706670E-01    0.5959620572E-01    0.1196927261E-02    0.6079006003E+00
    0.4900000000E+05    0.6782823432E+00    0.9814779528E-02    0.5961053819E-01    0.1171384222E-02    0.6082779776E+00
    0.1000000000E+05    0.6712868195E+00    0.2013416169E-01    0.5827506416E-01    0.2613549823E-02    0.5862531084E+00
    0.3000000000E+05    0.6771482492E+00    0.1231503761E-01    0.5938555164E-01    0.1507910769E-02    0.6032874504E+00
    0.5000000000E+05    0.6783181500E+00    0.9722819875E-02    0.5961719730E-01    0.1159189521E-02    0.6084581052E+00
    0.7000000000E+05    0.6788194786E+00    0.8306332643E-02    0.5970232903E-01    0.9731442515E-03    0.6112059758E+00
    0.9000000000E+05    0.6790980941E+00    0.7379292490E-02    0.5973759866E-01    0.8533362189E-03    0.6129804917E+00
    0.1100000000E+06    0.6792754884E+00    0.6711360357E-02    0.5975079241E-01    0.7680662293E-03    0.6142498308E+00
    0.1300000000E+06    0.6793983732E+00    0.6200256309E-02    0.5975275653E-01    0.7034595092E-03    0.6152172588E+00
    0.1500000000E+06    0.6794885452E+00    0.5792641121E-02    0.5974851945E-01    0.6523601199E-03    0.6159871879E+00
    0.1700000000E+06    0.6795575442E+00    0.5457587477E-02    0.5974068622E-01    0.6106563143E-03    0.6166195011E+00
    0.1900000000E+06    0.6796120519E+00    0.5175753983E-02    0.5973071477E-01    0.5757963488E-03    0.6171513414E+00
    0.2100000000E+06    0.6796562050E+00    0.4934337007E-02    0.5971946807E-01    0.5461022461E-03    0.6176071398E+00
    0.2300000000E+06    0.6796927021E+00    0.4724475954E-02    0.5970747860E-01    0.5204196127E-03    0.6180037182E+00
    0.2500000000E+06    0.6797233786E+00    0.4539816283E-02    0.5969508525E-01    0.4979249210E-03    0.6183530918E+00
    0.2700000000E+06    0.6797495263E+00    0.4375665187E-02    0.5968250863E-01    0.4780129089E-03    0.6186641041E+00
    0.2900000000E+06    0.6797720808E+00    0.4228471029E-02    0.5966989453E-01    0.4602275038E-03    0.6189434303E+00
    0.3100000000E+06    0.6797917366E+00    0.4095489284E-02    0.5965734018E-01    0.4442176983E-03    0.6191962170E+00
    0.3300000000E+06    0.6798090199E+00    0.3974560807E-02    0.5964491047E-01    0.4297083850E-03    0.6194265055E+00
    0.3500000000E+06    0.6798243366E+00    0.3863960327E-02    0.5963264842E-01    0.4164805058E-03    0.6196375204E+00
    0.3700000000E+06    0.6798380051E+00    0.3762290297E-02    0.5962058201E-01    0.4043571943E-03    0.6198318704E+00
    0.3900000000E+06    0.6798502785E+00    0.3668404882E-02    0.5960872879E-01    0.3931938854E-03    0.6200116920E+00
    0.4100000000E+06    0.6798613604E+00    0.3581354449E-02    0.5959709895E-01    0.3828711158E-03    0.6201787547E+00
    0.4300000000E+06    0.6798714168E+00    0.3500344336E-02    0.5958569755E-01    0.3732891926E-03    0.6203345381E+00
    0.4500000000E+06    0.6798805842E+00    0.3424703745E-02    0.5957452599E-01    0.3643641817E-03    0.6204802904E+00
    0.4700000000E+06    0.6798889757E+00    0.3353861949E-02    0.5956358310E-01    0.3560248480E-03    0.6206170735E+00
    0.4900000000E+06    0.6798966861E+00    0.3287329860E-02    0.5955286594E-01    0.3482102908E-03    0.6207457969E+00
    0.1000000000E+06    0.6791956484E+00    0.7020983002E-02    0.5974607384E-01    0.8074789618E-03    0.6136622438E+00
    0.3000000000E+06    0.6797822349E+00    0.4160350226E-02    0.5966360522E-01    0.4520193560E-03    0.6190728665E+00
    0.5000000000E+06    0.6799003114E+00    0.3255545818E-02    0.5954759072E-01    0.3444831346E-03    0.6208073857E+00
    0.7000000000E+06    0.6799511807E+00    0.2768691749E-02    0.5945262478E-01    0.2879083366E-03    0.6217600032E+00
    0.9000000000E+06    0.6799795707E+00    0.2452719672E-02    0.5937385970E-01    0.2517542607E-03    0.6223904239E+00
    0.1100000000E+07    0.6799977121E+00    0.2226295154E-02    0.5930680892E-01    0.2261513375E-03    0.6228503764E+00
    0.1300000000E+07    0.6800103196E+00    0.2053704901E-02    0.5924847805E-01    0.2068223960E-03    0.6232068364E+00
    0.1500000000E+07    0.6800195983E+00    0.1916465123E-02    0.5919685875E-01    0.1915763936E-03    0.6234946809E+00
    0.1700000000E+07    0.6800267179E+00    0.1803918145E-02    0.5915055636E-01    0.1791606784E-03    0.6237341492E+00
    0.1900000000E+07    0.6800323568E+00    0.1709427632E-02    0.5910856773E-01    0.1688008906E-03    0.6239379251E+00
    0.2100000000E+07    0.6800369358E+00    0.1628615722E-02    0.5907014873E-01    0.1599894313E-03    0.6241144294E+00
    0.2300000000E+07    0.6800407297E+00    0.1558461475E-02    0.5903473268E-01    0.1523780019E-03    0.6242695092E+00
    0.2500000000E+07    0.6800439257E+00    0.1496803623E-02    0.5900187823E-01    0.1457186815E-03    0.6244073731E+00
    0.2700000000E+07    0.6800466558E+00    0.1442049400E-02    0.5897123502E-01    0.1398296042E-03    0.6245311414E+00
    0.2900000000E+07    0.6800490157E+00    0.1392995544E-02    0.5894252024E-01    0.1345739595E-03    0.6246431847E+00
    0.3100000000E+07    0.6800510765E+00    0.1348713719E-02    0.5891550233E-01    0.1298466081E-03    0.6247453426E+00
    0.3300000000E+07    0.6800528921E+00    0.1308474630E-02    0.5888998928E-01    0.1255652530E-03    0.6248390679E+00
    0.3500000000E+07    0.6800545042E+00    0.1271696271E-02    0.5886582011E-01    0.1216644407E-03    0.6249255265E+00
    0.3700000000E+07    0.6800559455E+00    0.1237907733E-02    0.5884285847E-01    0.1180913804E-03    0.6250056664E+00
    0.3900000000E+07    0.6800572421E+00    0.1206723323E-02    0.5882098790E-01    0.1148029639E-03    0.6250802682E+00
    0.4100000000E+07    0.6800584150E+00    0.1177823697E-02    0.5880010808E-01    0.1117635998E-03    0.6251499814E+00
    0.4300000000E+07    0.6800594811E+00    0.1150941856E-02    0.5878013201E-01    0.1089436106E-03    0.6252153515E+00
    0.4500000000E+07    0.6800604547E+00    0.1125852602E-02    0.5876098374E-01    0.1063180289E-03    0.6252768409E+00
    0.4700000000E+07    0.6800613474E+00    0.1102364474E-02    0.5874259655E-01    0.1038656793E-03    0.6253348445E+00
    0.4900000000E+07    0.6800621690E+00    0.1080313513E-02    0.5872491151E-01    0.1015684702E-03    0.6253897022E+00
    0.1000000000E+07    0.6799895396E+00    0.2331129774E-02    0.5933908597E-01    0.2379721706E-03    0.6226364366E+00
    0.3000000000E+07    0.6800500798E+00    0.1370307675E-02    0.5892881199E-01    0.1321498450E-03    0.6246954008E+00
    0.5000000000E+07    0.6800625558E+00    0.1069782028E-02    0.5871631573E-01    0.1004730942E-03    0.6254160448E+00
    0.7000000000E+07    0.6800680225E+00    0.9086894905E-03    0.5857118000E-01    0.8386830290E-04    0.6258320986E+00
    0.9000000000E+07    0.6800711177E+00    0.8043601708E-03    0.5846061106E-01    0.7327851847E-04    0.6261175889E+00
    0.1100000000E+08    0.6800731212E+00    0.7297026295E-03    0.5837118373E-01    0.6578930984E-04    0.6263319383E+00
    0.1300000000E+08    0.6800745301E+00    0.6728531534E-03    0.5829605454E-01    0.6014083718E-04    0.6265020565E+00
    0.1500000000E+08    0.6800755785E+00    0.6276829031E-03    0.5823125258E-01    0.5568885367E-04    0.6266422525E+00
    0.1700000000E+08    0.6800763913E+00    0.5906628892E-03    0.5817426526E-01    0.5206551347E-04    0.6267609797E+00
    0.1900000000E+08    0.6800770414E+00    0.5595980536E-03    0.5812340050E-01    0.4904365573E-04    0.6268636191E+00
    0.2100000000E+08    0.6800775744E+00    0.5330416328E-03    0.5807746378E-01    0.4647449879E-04    0.6269537935E+00
    0.2300000000E+08    0.6800780199E+00    0.5099960207E-03    0.5803558010E-01    0.4425602430E-04    0.6270340503E+00
    0.2500000000E+08    0.6800783986E+00    0.4897479462E-03    0.5799708914E-01    0.4231565795E-04    0.6271062447E+00
    0.2700000000E+08    0.6800787247E+00    0.4717720414E-03    0.5796148021E-01    0.4060018917E-04    0.6271717665E+00
