  Pressure (Pa) 22mC5-400 (mol/kg) 2mC6-400 (mol/kg) 3mC6-400 (mol/kg) 33mC5-400 (mol/kg) C7-400 (mol/kg)
    0.1000000000E+01    0.5280968443E-02    0.7935681833E-03    0.1584569003E-02    0.2584427834E-03    0.3428349018E-02
    0.3000000000E+01    0.1556980435E-01    0.2321697254E-02    0.4673232644E-02    0.7560830966E-03    0.1011170948E-01
    0.5000000000E+01    0.2551095554E-01    0.3775145083E-02    0.7659156168E-02    0.1229360466E-02    0.1657375920E-01
    0.7000000000E+01    0.3512291798E-01    0.5158392861E-02    0.1054748882E-01    0.1679730331E-02    0.2282557417E-01
    0.9000000000E+01    0.4442287868E-01    0.6475592647E-02    0.1334303965E-01    0.2108541472E-02    0.2887749917E-01
    0.1100000000E+02    0.5342682908E-01    0.7730596122E-02    0.1605030521E-01    0.2517045318E-02    0.3473920720E-01
    0.1300000000E+02    0.6214966695E-01    0.8926980427E-02    0.1867349454E-01    0.2906404327E-02    0.4041975329E-01
    0.1500000000E+02    0.7060528805E-01    0.1006807143E-01    0.2121655185E-01    0.3277699519E-02    0.4592762308E-01
    0.1700000000E+02    0.7880666885E-01    0.1115696472E-01    0.2368317702E-01    0.3631937274E-02    0.5127077705E-01
    0.1900000000E+02    0.8676594122E-01    0.1219654451E-01    0.2607684431E-01    0.3970055465E-02    0.5645669054E-01
    0.2100000000E+02    0.9449445997E-01    0.1318950085E-01    0.2840081928E-01    0.4292929018E-02    0.6149239026E-01
    0.2300000000E+02    0.1020028641E+00    0.1413834508E-01    0.3065817430E-01    0.4601374936E-02    0.6638448751E-01
    0.2500000000E+02    0.1093011323E+00    0.1504542400E-01    0.3285180262E-01    0.4896156864E-02    0.7113920847E-01
    0.2700000000E+02    0.1163986336E+00    0.1591293259E-01    0.3498443128E-01    0.5177989237E-02    0.7576242197E-01
    0.2900000000E+02    0.1233041731E+00    0.1674292573E-01    0.3705863290E-01    0.5447541048E-02    0.8025966474E-01
    0.3100000000E+02    0.1300260340E+00    0.1753732879E-01    0.3907683646E-01    0.5705439292E-02    0.8463616467E-01
    0.3300000000E+02    0.1365720159E+00    0.1829794728E-01    0.4104133724E-01    0.5952272093E-02    0.8889686213E-01
    0.3500000000E+02    0.1429494694E+00    0.1902647573E-01    0.4295430587E-01    0.6188591574E-02    0.9304642943E-01
    0.3700000000E+02    0.1491653284E+00    0.1972450579E-01    0.4481779676E-01    0.6414916472E-02    0.9708928890E-01
    0.3900000000E+02    0.1552261393E+00    0.2039353357E-01    0.4663375571E-01    0.6631734537E-02    0.1010296294E+00
    0.4100000000E+02    0.1611380878E+00    0.2103496650E-01    0.4840402711E-01    0.6839504730E-02    0.1048714214E+00
    0.4300000000E+02    0.1669070235E+00    0.2165012952E-01    0.5013036038E-01    0.7038659241E-02    0.1086184316E+00
    0.4500000000E+02    0.1725384827E+00    0.2224027079E-01    0.5181441609E-01    0.7229605339E-02    0.1122742350E+00
    0.4700000000E+02    0.1780377093E+00    0.2280656700E-01    0.5345777152E-01    0.7412727081E-02    0.1158422278E+00
    0.4900000000E+02    0.1834096736E+00    0.2335012817E-01    0.5506192581E-01    0.7588386876E-02    0.1193256382E+00
    0.1000000000E+02    0.4896089954E-01    0.7110639202E-02    0.1470743856E-01    0.2315257160E-02    0.3183155047E-01
    0.3000000000E+02    0.1266875650E+00    0.1714446048E-01    0.3807458796E-01    0.5577909232E-02    0.8246269229E-01
    0.5000000000E+02    0.1860494155E+00    0.2361371288E-01    0.5584975084E-01    0.7673526236E-02    0.1210365903E+00
    0.7000000000E+02    0.2331891230E+00    0.2791731714E-01    0.6986014614E-01    0.9058257282E-02    0.1514868789E+00
    0.9000000000E+02    0.2717250129E+00    0.3083945762E-01    0.8121130435E-01    0.9988587443E-02    0.1761947481E+00
    0.1100000000E+03    0.3039356430E+00    0.3284642902E-01    0.9061194093E-01    0.1061752423E-01    0.1966874592E+00
    0.1300000000E+03    0.3313342328E+00    0.3422869071E-01    0.9853771776E-01    0.1104068257E-01    0.2139905613E+00
    0.1500000000E+03    0.3549700540E+00    0.3517409255E-01    0.1053200166E+00    0.1132008359E-01    0.2288188837E+00
    0.1700000000E+03    0.3755970023E+00    0.3580793858E-01    0.1111969608E+00    0.1149720545E-01    0.2416863395E+00
    0.1900000000E+03    0.3937730265E+00    0.3621600367E-01    0.1163441847E+00    0.1160050093E-01    0.2529721666E+00
    0.2100000000E+03    0.4099214726E+00    0.3645830669E-01    0.1208941556E+00    0.1164990912E-01    0.2629625339E+00
    0.2300000000E+03    0.4243704181E+00    0.3657764173E-01    0.1249487286E+00    0.1165965849E-01    0.2718775870E+00
    0.2500000000E+03    0.4373787516E+00    0.3660502124E-01    0.1285875520E+00    0.1164006091E-01    0.2798895577E+00
    0.2700000000E+03    0.4491539758E+00    0.3656323931E-01    0.1318738398E+00    0.1159868975E-01    0.2871352069E+00
    0.2900000000E+03    0.4598646768E+00    0.3646925721E-01    0.1348584279E+00    0.1154117096E-01    0.2937245690E+00
    0.3100000000E+03    0.4696494586E+00    0.3633583269E-01    0.1375826817E+00    0.1147172483E-01    0.2997472228E+00
    0.3300000000E+03    0.4786234737E+00    0.3617265246E-01    0.1400806187E+00    0.1139354370E-01    0.3052768698E+00
    0.3500000000E+03    0.4868832842E+00    0.3598713199E-01    0.1423804819E+00    0.1130905922E-01    0.3103747303E+00
    0.3700000000E+03    0.4945105382E+00    0.3578498838E-01    0.1445059247E+00    0.1122013428E-01    0.3150921004E+00
    0.3900000000E+03    0.5015747899E+00    0.3557065613E-01    0.1464769142E+00    0.1112820251E-01    0.3194723024E+00
    0.4100000000E+03    0.5081356928E+00    0.3534759236E-01    0.1483104281E+00    0.1103437084E-01    0.3235521900E+00
    0.4300000000E+03    0.5142447232E+00    0.3511850333E-01    0.1500209990E+00    0.1093949574E-01    0.3273633242E+00
    0.4500000000E+03    0.5199465508E+00    0.3488551417E-01    0.1516211430E+00    0.1084424034E-01    0.3309328994E+00
    0.4700000000E+03    0.5252801386E+00    0.3465029727E-01    0.1531217009E+00    0.1074911769E-01    0.3342844811E+00
    0.4900000000E+03    0.5302796332E+00    0.3441417017E-01    0.1545321121E+00    0.1065452372E-01    0.3374385983E+00
    0.1000000000E+03    0.2885128765E+00    0.3193614161E-01    0.8612153230E-01    0.1033375874E-01    0.1868949081E+00
    0.3000000000E+03    0.4648651247E+00    0.3640680854E-01    0.1362508189E+00    0.1150771877E-01    0.2968018006E+00
    0.5000000000E+03    0.5326636311E+00    0.3429609886E-01    0.1552061347E+00    0.1060752303E-01    0.3389473125E+00
    0.7000000000E+03    0.5684924445E+00    0.3204452835E-01    0.1655026345E+00    0.9738551113E-02    0.3621274988E+00
    0.9000000000E+03    0.5905311866E+00    0.3011333676E-01    0.1720835942E+00    0.9022660752E-02    0.3771134150E+00
    0.1100000000E+04    0.6054036833E+00    0.2848635356E-01    0.1767014668E+00    0.8435830312E-02    0.3877420373E+00
    0.1300000000E+04    0.6160927743E+00    0.2710314030E-01    0.1801448716E+00    0.7947384304E-02    0.3957478973E+00
    0.1500000000E+04    0.6241344604E+00    0.2591152241E-01    0.1828246934E+00    0.7533799001E-02    0.4020386382E+00
    0.1700000000E+04    0.6303979402E+00    0.2487182289E-01    0.1849775335E+00    0.7178131867E-02    0.4071390895E+00
    0.1900000000E+04    0.6354109933E+00    0.2395438982E-01    0.1867499430E+00    0.6868159112E-02    0.4113756395E+00
    0.2100000000E+04    0.6395121472E+00    0.2313688340E-01    0.1882378912E+00    0.6594911380E-02    0.4149628565E+00
    0.2300000000E+04    0.6429282904E+00    0.2240222041E-01    0.1895070453E+00    0.6351674563E-02    0.4180481149E+00
    0.2500000000E+04    0.6458170639E+00    0.2173712518E-01    0.1906039648E+00    0.6133323832E-02    0.4207362917E+00
    0.2700000000E+04    0.6482913393E+00    0.2113111987E-01    0.1915626467E+00    0.5935876589E-02    0.4231042415E+00
    0.2900000000E+04    0.6504340198E+00    0.2057581567E-01    0.1924085368E+00    0.5756187360E-02    0.4252096890E+00
    0.3100000000E+04    0.6523073439E+00    0.2006440848E-01    0.1931610861E+00    0.5591735545E-02    0.4270969114E+00
    0.3300000000E+04    0.6539589328E+00    0.1959131429E-01    0.1938354363E+00    0.5440474897E-02    0.4288004926E+00
    0.3500000000E+04    0.6554258346E+00    0.1915190161E-01    0.1944435632E+00    0.5300724809E-02    0.4303478753E+00
    0.3700000000E+04    0.6567372987E+00    0.1874229193E-01    0.1949950720E+00    0.5171090468E-02    0.4317611409E+00
    0.3900000000E+04    0.6579167213E+00    0.1835920898E-01    0.1954977621E+00    0.5050403266E-02    0.4330582771E+00
    0.4100000000E+04    0.6589830376E+00    0.1799986320E-01    0.1959580373E+00    0.4937675701E-02    0.4342540988E+00
    0.4300000000E+04    0.6599517344E+00    0.1766186228E-01    0.1963812081E+00    0.4832066798E-02    0.4353609291E+00
    0.4500000000E+04    0.6608356000E+00    0.1734314099E-01    0.1967717178E+00    0.4732855253E-02    0.4363891103E+00
    0.4700000000E+04    0.6616452864E+00    0.1704190559E-01    0.1971333146E+00    0.4639418370E-02    0.4373473929E+00
    0.4900000000E+04    0.6623897369E+00    0.1675658941E-01    0.1974691840E+00    0.4551215351E-02    0.4382432354E+00
    0.1000000000E+04    0.5986282238E+00    0.2926562076E-01    0.1745759308E+00    0.8715174162E-02    0.3828362195E+00
    0.3000000000E+04    0.6514010875E+00    0.2031499902E-01    0.1927954472E+00    0.5672194343E-02    0.4261782242E+00
    0.5000000000E+04    0.6627399088E+00    0.1661946458E-01    0.1976283384E+00    0.4508926590E-02    0.4386697777E+00
    0.7000000000E+04    0.6676600646E+00    0.1445293826E-01    0.1999538825E+00    0.3849523480E-02    0.4450866471E+00
    0.9000000000E+04    0.6704065356E+00    0.1298119982E-01    0.2013380252E+00    0.3410945752E-02    0.4491329678E+00
    0.1100000000E+05    0.6721585210E+00    0.1189546465E-01    0.2022602582E+00    0.3092299426E-02    0.4519760662E+00
    0.1300000000E+05    0.6733731688E+00    0.1105081498E-01    0.2029195839E+00    0.2847343724E-02    0.4541127584E+00
    0.1500000000E+05    0.6742647419E+00    0.1036885060E-01    0.2034142670E+00    0.2651486936E-02    0.4557940691E+00
    0.1700000000E+05    0.6749469792E+00    0.9802892652E-02    0.2037987025E+00    0.2490280634E-02    0.4571619688E+00
    0.1900000000E+05    0.6754858484E+00    0.9323153383E-02    0.2041055546E+00    0.2354603836E-02    0.4583034591E+00
    0.2100000000E+05    0.6759222395E+00    0.8909595885E-02    0.2043556750E+00    0.2238376784E-02    0.4592751654E+00
    0.2300000000E+05    0.6762828449E+00    0.8548171915E-02    0.2045630250E+00    0.2137370085E-02    0.4601157138E+00
    0.2500000000E+05    0.6765858287E+00    0.8228696495E-02    0.2047373177E+00    0.2048538399E-02    0.4608524639E+00
    0.2700000000E+05    0.6768439806E+00    0.7943578450E-02    0.2048855263E+00    0.1969625758E-02    0.4615054029E+00
    0.2900000000E+05    0.6770665660E+00    0.7687026869E-02    0.2050127905E+00    0.1898920627E-02    0.4620895142E+00
    0.3100000000E+05    0.6772604621E+00    0.7454535831E-02    0.2051229843E+00    0.1835097886E-02    0.4626162789E+00
    0.3300000000E+05    0.6774308804E+00    0.7242538873E-02    0.2052190839E+00    0.1777113477E-02    0.4630946616E+00
    0.3500000000E+05    0.6775818424E+00    0.7048170784E-02    0.2053034148E+00    0.1724132156E-02    0.4635317771E+00
    0.3700000000E+05    0.6777165005E+00    0.6869099387E-02    0.2053778204E+00    0.1675476717E-02    0.4639333537E+00
    0.3900000000E+05    0.6778373612E+00    0.6703404208E-02    0.2054437810E+00    0.1630591529E-02    0.4643040625E+00
    0.4100000000E+05    0.6779464423E+00    0.6549487331E-02    0.2055024994E+00    0.1589015857E-02    0.4646477551E+00
    0.4300000000E+05    0.6780453863E+00    0.6406006792E-02    0.2055549628E+00    0.1550364006E-02    0.4649676401E+00
    0.4500000000E+05    0.6781355438E+00    0.6271826064E-02    0.2056019893E+00    0.1514310310E-02    0.4652664147E+00
    0.4700000000E+05    0.6782180360E+00    0.6145975236E-02    0.2056442622E+00    0.1480577641E-02    0.4655463650E+00
    0.4900000000E+05    0.6782938008E+00    0.6027620810E-02    0.2056823570E+00    0.1448928495E-02    0.4658094434E+00
    0.1000000000E+05    0.6713697463E+00    0.1240134765E-01    0.2018409757E+00    0.3240245195E-02    0.4506654659E+00
    0.3000000000E+05    0.6771667420E+00    0.7568015500E-02    0.2050698175E+00    0.1866219825E-02    0.4623594546E+00
    0.5000000000E+05    0.6783294126E+00    0.5971025627E-02    0.2056999930E+00    0.1433820105E-02    0.4659351894E+00
    0.7000000000E+05    0.6788281594E+00    0.5099826114E-02    0.2059202417E+00    0.1203443439E-02    0.4678708830E+00
    0.9000000000E+05    0.6791054357E+00    0.4530218052E-02    0.2060051164E+00    0.1055208536E-02    0.4691443498E+00
    0.1100000000E+06    0.6792819942E+00    0.4120081359E-02    0.2060315137E+00    0.9497636697E-03    0.4700713220E+00
    0.1300000000E+06    0.6794042975E+00    0.3806386333E-02    0.2060288684E+00    0.8699014036E-03    0.4707893582E+00
    0.1500000000E+06    0.6794940356E+00    0.3556292472E-02    0.2060105985E+00    0.8067535135E-03    0.4713694704E+00
    0.1700000000E+06    0.6795626946E+00    0.3350771328E-02    0.2059835467E+00    0.7552273186E-03    0.4718526150E+00
    0.1900000000E+06    0.6796169261E+00    0.3177929436E-02    0.2059514826E+00    0.7121637683E-03    0.4722643451E+00
    0.2100000000E+06    0.6796608491E+00    0.3029897113E-02    0.2059166015E+00    0.6754863191E-03    0.4726215691E+00
    0.2300000000E+06    0.6796971502E+00    0.2901230293E-02    0.2058802340E+00    0.6437668271E-03    0.4729359986E+00
    0.2500000000E+06    0.6797276570E+00    0.2788025908E-02    0.2058432103E+00    0.6159867482E-03    0.4732160482E+00
    0.2700000000E+06    0.6797536558E+00    0.2687402342E-02    0.2058060584E+00    0.5913976608E-03    0.4734679470E+00
    0.2900000000E+06    0.6797760781E+00    0.2597179226E-02    0.2057691175E+00    0.5694357312E-03    0.4736964237E+00
    0.3100000000E+06    0.6797956155E+00    0.2515672032E-02    0.2057326061E+00    0.5496670907E-03    0.4739051442E+00
    0.3300000000E+06    0.6798127918E+00    0.2441555764E-02    0.2056966632E+00    0.5317517389E-03    0.4740970030E+00
    0.3500000000E+06    0.6798280112E+00    0.2373771848E-02    0.2056613751E+00    0.5154189818E-03    0.4742743215E+00
    0.3700000000E+06    0.6798415906E+00    0.2311462916E-02    0.2056267924E+00    0.5004502884E-03    0.4744389877E+00
    0.3900000000E+06    0.6798537819E+00    0.2253926109E-02    0.2055929415E+00    0.4866670566E-03    0.4745925557E+00
    0.4100000000E+06    0.6798647881E+00    0.2200578987E-02    0.2055598322E+00    0.4739217103E-03    0.4747363188E+00
    0.4300000000E+06    0.6798747741E+00    0.2150934208E-02    0.2055274632E+00    0.4620911064E-03    0.4748713636E+00
    0.4500000000E+06    0.6798838759E+00    0.2104580430E-02    0.2054958252E+00    0.4510715756E-03    0.4749986113E+00
    0.4700000000E+06    0.6798922060E+00    0.2061167707E-02    0.2054649039E+00    0.4407751391E-03    0.4751188489E+00
    0.4900000000E+06    0.6798998589E+00    0.2020396172E-02    0.2054346817E+00    0.4311265867E-03    0.4752327537E+00
    0.1000000000E+06    0.6792025299E+00    0.4310174917E-02    0.2060232225E+00    0.9984956581E-03    0.4696402898E+00
    0.3000000000E+06    0.6797861714E+00    0.2555426121E-02    0.2057507980E+00    0.5593003680E-03    0.4738030572E+00
    0.5000000000E+06    0.6799034567E+00    0.2000918614E-02    0.2054198265E+00    0.4265246825E-03    0.4752875178E+00
    0.7000000000E+06    0.6799539053E+00    0.1702563323E-02    0.2051543053E+00    0.3566681453E-03    0.4761588595E+00
    0.9000000000E+06    0.6799820210E+00    0.1508907509E-02    0.2049361221E+00    0.3120191604E-03    0.4767647683E+00
    0.1100000000E+07    0.6799999641E+00    0.1370113780E-02    0.2047514240E+00    0.2803945527E-03    0.4772247093E+00
    0.1300000000E+07    0.6800124192E+00    0.1264302579E-02    0.2045913558E+00    0.2565150343E-03    0.4775931436E+00
    0.1500000000E+07    0.6800215757E+00    0.1180150640E-02    0.2044500990E+00    0.2376762571E-03    0.4778992152E+00
    0.1700000000E+07    0.6800285942E+00    0.1111129092E-02    0.2043236629E+00    0.2223320659E-03    0.4781602433E+00
    0.1900000000E+07    0.6800341476E+00    0.1053172461E-02    0.2042092014E+00    0.2095266184E-03    0.4783873140E+00
    0.2100000000E+07    0.6800386529E+00    0.1003598739E-02    0.2041046167E+00    0.1986333151E-03    0.4785879289E+00
    0.2300000000E+07    0.6800423824E+00    0.9605571248E-03    0.2040083188E+00    0.1892221738E-03    0.4787673880E+00
    0.2500000000E+07    0.6800455214E+00    0.9227234317E-03    0.2039190742E+00    0.1809871088E-03    0.4789295679E+00
    0.2700000000E+07    0.6800482007E+00    0.8891217345E-03    0.2038359067E+00    0.1737035702E-03    0.4790773855E+00
    0.2900000000E+07    0.6800505148E+00    0.8590147224E-03    0.2037580308E+00    0.1672026254E-03    0.4792130875E+00
    0.3100000000E+07    0.6800525340E+00    0.8318335142E-03    0.2036848044E+00    0.1613544398E-03    0.4793384402E+00
    0.3300000000E+07    0.6800543116E+00    0.8071311724E-03    0.2036156965E+00    0.1560573784E-03    0.4794548553E+00
    0.3500000000E+07    0.6800558889E+00    0.7845510022E-03    0.2035502623E+00    0.1512306021E-03    0.4795634788E+00
    0.3700000000E+07    0.6800572980E+00    0.7638043789E-03    0.2034881261E+00    0.1468089061E-03    0.4796652528E+00
    0.3900000000E+07    0.6800585648E+00    0.7446548942E-03    0.2034289670E+00    0.1427390415E-03    0.4797609608E+00
    0.4100000000E+07    0.6800597099E+00    0.7269067948E-03    0.2033725092E+00    0.1389770412E-03    0.4798512612E+00
    0.4300000000E+07    0.6800607502E+00    0.7103964062E-03    0.2033185138E+00    0.1354862415E-03    0.4799367122E+00
    0.4500000000E+07    0.6800616995E+00    0.6949856690E-03    0.2032667722E+00    0.1322357952E-03    0.4800177914E+00
    0.4700000000E+07    0.6800625694E+00    0.6805572009E-03    0.2032171016E+00    0.1291995388E-03    0.4800949097E+00
    0.4900000000E+07    0.6800633695E+00    0.6670104741E-03    0.2031693406E+00    0.1263551172E-03    0.4801684239E+00
    0.1000000000E+07    0.6799918837E+00    0.1434378015E-02    0.2048402313E+00    0.2949963332E-03    0.4770087320E+00
    0.3000000000E+07    0.6800515575E+00    0.8450887564E-03    0.2037208719E+00    0.1642038507E-03    0.4792769622E+00
    0.5000000000E+07    0.6800637460E+00    0.6605402076E-03    0.2031461308E+00    0.1249987288E-03    0.4802039283E+00
    0.7000000000E+07    0.6800690530E+00    0.5615352706E-03    0.2027546235E+00    0.1044297815E-03    0.4807831196E+00
    0.9000000000E+07    0.6800720422E+00    0.4973770302E-03    0.2024567526E+00    0.9130336341E-04    0.4812022219E+00
    0.1100000000E+08    0.6800739683E+00    0.4514431695E-03    0.2022160217E+00    0.8201540988E-04    0.4815295985E+00
    0.1300000000E+08    0.6800753173E+00    0.4164514925E-03    0.2020138792E+00    0.7500725718E-04    0.4817976857E+00
    0.1500000000E+08    0.6800763175E+00    0.3886386524E-03    0.2018395802E+00    0.6948154286E-04    0.4820243775E+00
    0.1700000000E+08    0.6800770903E+00    0.3658370414E-03    0.2016863352E+00    0.6498284552E-04    0.4822205701E+00
    0.1900000000E+08    0.6800777064E+00    0.3466980209E-03    0.2015495761E+00    0.6122984009E-04    0.4823933813E+00
    0.2100000000E+08    0.6800782101E+00    0.3303324831E-03    0.2014260807E+00    0.5803822090E-04    0.4825477117E+00
    0.2300000000E+08    0.6800786299E+00    0.3161272115E-03    0.2013134902E+00    0.5528158085E-04    0.4826870762E+00
    0.2500000000E+08    0.6800789858E+00    0.3036436764E-03    0.2012100253E+00    0.5286997613E-04    0.4828140800E+00
    0.2700000000E+08    0.6800792916E+00    0.2925588119E-03    0.2011143107E+00    0.5073744772E-04    0.4829307063E+00
