  Pressure (Pa) 22mC5-400 (mol/kg) 2mC6-400 (mol/kg) 3mC6-400 (mol/kg) 33mC5-400 (mol/kg) C7-400 (mol/kg)
    0.1000000000E+01    0.5277929979E-02    0.1581498835E-02    0.2104316179E-02    0.6438330468E-04    0.5122070142E-02
    0.3000000000E+01    0.1554373441E-01    0.4595004947E-02    0.6158184378E-02    0.1870695172E-03    0.1499120089E-01
    0.5000000000E+01    0.2544186571E-01    0.7421969783E-02    0.1001831315E-01    0.3021671921E-03    0.2439083619E-01
    0.7000000000E+01    0.3499362705E-01    0.1007645646E-01    0.1369856700E-01    0.4102470299E-03    0.3335452419E-01
    0.9000000000E+01    0.4421867440E-01    0.1257122134E-01    0.1721151135E-01    0.5118267126E-03    0.4191267210E-01
    0.1100000000E+02    0.5313517210E-01    0.1491785960E-01    0.2056856147E-01    0.6073768132E-03    0.5009290601E-01
    0.1300000000E+02    0.6175993130E-01    0.1712693179E-01    0.2378011131E-01    0.6973259354E-03    0.5792038233E-01
    0.1500000000E+02    0.7010853332E-01    0.1920807437E-01    0.2685564544E-01    0.7820652008E-03    0.6541805826E-01
    0.1700000000E+02    0.7819543993E-01    0.2117009647E-01    0.2980383653E-01    0.8619521754E-03    0.7260692748E-01
    0.1900000000E+02    0.8603409197E-01    0.2302106483E-01    0.3263263057E-01    0.9373143172E-03    0.7950622612E-01
    0.2100000000E+02    0.9363699783E-01    0.2476837857E-01    0.3534932157E-01    0.1008452011E-02    0.8613361333E-01
    0.2300000000E+02    0.1010158130E+00    0.2641883523E-01    0.3796061724E-01    0.1075641245E-02    0.9250533004E-01
    0.2500000000E+02    0.1081814115E+00    0.2797868912E-01    0.4047269684E-01    0.1139135982E-02    0.9863633884E-01
    0.2700000000E+02    0.1151439505E+00    0.2945370317E-01    0.4289126235E-01    0.1199170259E-02    0.1045404477E+00
    0.2900000000E+02    0.1219129286E+00    0.3084919495E-01    0.4522158377E-01    0.1255960056E-02    0.1102304195E+00
    0.3100000000E+02    0.1284972384E+00    0.3217007771E-01    0.4746853939E-01    0.1309704958E-02    0.1157180693E+00
    0.3300000000E+02    0.1349052144E+00    0.3342089697E-01    0.4963665160E-01    0.1360589642E-02    0.1210143512E+00
    0.3500000000E+02    0.1411446762E+00    0.3460586335E-01    0.5173011885E-01    0.1408785204E-02    0.1261294352E+00
    0.3700000000E+02    0.1472229680E+00    0.3572888188E-01    0.5375284424E-01    0.1454450352E-02    0.1310727767E+00
    0.3900000000E+02    0.1531469941E+00    0.3679357838E-01    0.5570846108E-01    0.1497732470E-02    0.1358531783E+00
    0.4100000000E+02    0.1589232522E+00    0.3780332323E-01    0.5760035592E-01    0.1538768587E-02    0.1404788451E+00
    0.4300000000E+02    0.1645578625E+00    0.3876125270E-01    0.5943168917E-01    0.1577686237E-02    0.1449574352E+00
    0.4500000000E+02    0.1700565953E+00    0.3967028829E-01    0.6120541376E-01    0.1614604247E-02    0.1492961042E+00
    0.4700000000E+02    0.1754248960E+00    0.4053315414E-01    0.6292429192E-01    0.1649633438E-02    0.1535015464E+00
    0.4900000000E+02    0.1806679075E+00    0.4135239287E-01    0.6459091040E-01    0.1682877271E-02    0.1575800310E+00
    0.1000000000E+02    0.4871441106E-01    0.1376237339E-01    0.1890885102E-01    0.5603277448E-03    0.4604840150E-01
    0.3000000000E+02    0.1252276336E+00    0.3151867015E-01    0.4635519170E-01    0.1283201243E-02    0.1129988308E+00
    0.5000000000E+02    0.1832439596E+00    0.4174640056E-01    0.6540538605E-01    0.1698860140E-02    0.1595735154E+00
    0.7000000000E+02    0.2292379225E+00    0.4783667141E-01    0.7946645337E-01    0.1945168977E-02    0.1940268540E+00
    0.9000000000E+02    0.2668888740E+00    0.5149553092E-01    0.9031263280E-01    0.2091645584E-02    0.2206607234E+00
    0.1100000000E+03    0.2984549125E+00    0.5365589414E-01    0.9896062380E-01    0.2176416640E-02    0.2419421057E+00
    0.1300000000E+03    0.3254084374E+00    0.5486033408E-01    0.1060359047E+00    0.2221731722E-02    0.2593898274E+00
    0.1500000000E+03    0.3487575255E+00    0.5543965000E-01    0.1119449937E+00    0.2241205821E-02    0.2739917469E+00
    0.1700000000E+03    0.3692204354E+00    0.5560312442E-01    0.1169639233E+00    0.2243484944E-02    0.2864191244E+00
    0.1900000000E+03    0.3873260821E+00    0.5548711836E-01    0.1212869440E+00    0.2234223387E-02    0.2971446822E+00
    0.2100000000E+03    0.4034748093E+00    0.5518260590E-01    0.1250548807E+00    0.2217206708E-02    0.3065113739E+00
    0.2300000000E+03    0.4179767286E+00    0.5475144589E-01    0.1283724256E+00    0.2195017169E-02    0.3147743395E+00
    0.2500000000E+03    0.4310768037E+00    0.5423634244E-01    0.1313191025E+00    0.2169442340E-02    0.3221275197E+00
    0.2700000000E+03    0.4429717929E+00    0.5366712649E-01    0.1339564540E+00    0.2141733636E-02    0.3287211093E+00
    0.2900000000E+03    0.4538220175E+00    0.5306481983E-01    0.1363328902E+00    0.2112774191E-02    0.3346733353E+00
    0.3100000000E+03    0.4637597398E+00    0.5244432277E-01    0.1384870422E+00    0.2083190278E-02    0.3400786083E+00
    0.3300000000E+03    0.4728952599E+00    0.5181622608E-01    0.1404501337E+00    0.2053426712E-02    0.3450132884E+00
    0.3500000000E+03    0.4813214403E+00    0.5118805301E-01    0.1422476909E+00    0.2023798732E-02    0.3495398456E+00
    0.3700000000E+03    0.4891171213E+00    0.5056512320E-01    0.1439007977E+00    0.1994528230E-02    0.3537099129E+00
    0.3900000000E+03    0.4963497405E+00    0.4995116151E-01    0.1454270313E+00    0.1965769365E-02    0.3575665651E+00
    0.4100000000E+03    0.5030773698E+00    0.4934873175E-01    0.1468411693E+00    0.1937626895E-02    0.3611460408E+00
    0.4300000000E+03    0.5093503186E+00    0.4875954899E-01    0.1481557317E+00    0.1910169405E-02    0.3644790627E+00
    0.4500000000E+03    0.5152124114E+00    0.4818470622E-01    0.1493814007E+00    0.1883438954E-02    0.3675918618E+00
    0.4700000000E+03    0.5207020144E+00    0.4762484022E-01    0.1505273501E+00    0.1857458148E-02    0.3705069791E+00
    0.4900000000E+03    0.5258528699E+00    0.4708025365E-01    0.1516015048E+00    0.1832235362E-02    0.3732439010E+00
    0.1000000000E+03    0.2833268116E+00    0.5272266068E-01    0.9486573031E-01    0.2140090881E-02    0.2318595983E+00
    0.3000000000E+03    0.4588975923E+00    0.5275609895E-01    0.1374356493E+00    0.2098028939E-02    0.3374392005E+00
    0.5000000000E+03    0.5283107179E+00    0.4681371614E-01    0.1521138466E+00    0.1819907930E-02    0.3745509198E+00
    0.7000000000E+03    0.5653563810E+00    0.4223209970E-01    0.1598674999E+00    0.1609851075E-02    0.3944794739E+00
    0.9000000000E+03    0.5882032651E+00    0.3878415734E-01    0.1647604263E+00    0.1454419750E-02    0.4072424819E+00
    0.1100000000E+04    0.6036189111E+00    0.3609919044E-01    0.1681697308E+00    0.1335340366E-02    0.4162574749E+00
    0.1300000000E+04    0.6146849958E+00    0.3393674962E-01    0.1707009184E+00    0.1240888994E-02    0.4230364014E+00
    0.1500000000E+04    0.6229970934E+00    0.3214656906E-01    0.1726651068E+00    0.1163784075E-02    0.4283606231E+00
    0.1700000000E+04    0.6294603451E+00    0.3063169366E-01    0.1742398148E+00    0.1099360069E-02    0.4326784219E+00
    0.1900000000E+04    0.6346248171E+00    0.2932700226E-01    0.1755342953E+00    0.1044508193E-02    0.4362671407E+00
    0.2100000000E+04    0.6388433084E+00    0.2818709198E-01    0.1766197589E+00    0.9970795085E-03    0.4393084622E+00
    0.2300000000E+04    0.6423521351E+00    0.2717926056E-01    0.1775447590E+00    0.9555398183E-03    0.4419268673E+00
    0.2500000000E+04    0.6453153463E+00    0.2627928656E-01    0.1783436272E+00    0.9187627933E-03    0.4442107895E+00
    0.2700000000E+04    0.6478502819E+00    0.2546879530E-01    0.1790413775E+00    0.8859013634E-03    0.4462249565E+00
    0.2900000000E+04    0.6500430327E+00    0.2473355700E-01    0.1796566993E+00    0.8563050328E-03    0.4480179457E+00
    0.3100000000E+04    0.6519581584E+00    0.2406235303E-01    0.1802038587E+00    0.8294650879E-03    0.4496269983E+00
    0.3300000000E+04    0.6536450010E+00    0.2344619954E-01    0.1806939483E+00    0.8049772942E-03    0.4510811939E+00
    0.3500000000E+04    0.6551419057E+00    0.2287780286E-01    0.1811357327E+00    0.7825158829E-03    0.4524036045E+00
    0.3700000000E+04    0.6564791140E+00    0.2235116911E-01    0.1815362357E+00    0.7618150162E-03    0.4536127944E+00
    0.3900000000E+04    0.6576807913E+00    0.2186131900E-01    0.1819011568E+00    0.7426553264E-03    0.4547238878E+00
    0.4100000000E+04    0.6587664760E+00    0.2140407573E-01    0.1822351730E+00    0.7248539680E-03    0.4557493434E+00
    0.4300000000E+04    0.6597521336E+00    0.2097590497E-01    0.1825421604E+00    0.7082571526E-03    0.4566995271E+00
    0.4500000000E+04    0.6606509359E+00    0.2057379229E-01    0.1828253613E+00    0.6927344655E-03    0.4575831411E+00
    0.4700000000E+04    0.6614738452E+00    0.2019514810E-01    0.1830875093E+00    0.6781744850E-03    0.4584075506E+00
    0.4900000000E+04    0.6622300579E+00    0.1983773317E-01    0.1833309272E+00    0.6644813638E-03    0.4591790361E+00
    0.1000000000E+04    0.5965976902E+00    0.3736400229E-01    0.1666027217E+00    0.1391200735E-02    0.4120992930E+00
    0.3000000000E+04    0.6510319155E+00    0.2439055730E-01    0.1799380431E+00    0.8425678767E-03    0.4488434844E+00
    0.5000000000E+04    0.6625856295E+00    0.1966636791E-01    0.1834462446E+00    0.6579335068E-03    0.4595466473E+00
    0.7000000000E+04    0.6675722741E+00    0.1699100359E-01    0.1851285872E+00    0.5571743724E-03    0.4651018064E+00
    0.9000000000E+04    0.6703478168E+00    0.1520353453E-01    0.1861262228E+00    0.4913994058E-03    0.4686335546E+00
    0.1100000000E+05    0.6721151627E+00    0.1389777606E-01    0.1867881208E+00    0.4441430319E-03    0.4711317081E+00
    0.1300000000E+05    0.6733389663E+00    0.1288856774E-01    0.1872590654E+00    0.4080859103E-03    0.4730196735E+00
    0.1500000000E+05    0.6742364745E+00    0.1207753049E-01    0.1876105375E+00    0.3794101673E-03    0.4745123735E+00
    0.1700000000E+05    0.6749228050E+00    0.1140681069E-01    0.1878820985E+00    0.3559026900E-03    0.4757318680E+00
    0.1900000000E+05    0.6754646350E+00    0.1083982192E-01    0.1880974982E+00    0.3361802048E-03    0.4767532402E+00
    0.2100000000E+05    0.6759032502E+00    0.1035212371E-01    0.1882718922E+00    0.3193276927E-03    0.4776255270E+00
    0.2300000000E+05    0.6762655784E+00    0.9926673821E-02    0.1884154228E+00    0.3047124766E-03    0.4783822839E+00
    0.2500000000E+05    0.6765699314E+00    0.9551171300E-02    0.1885351420E+00    0.2918812514E-03    0.4790473476E+00
    0.2700000000E+05    0.6768291947E+00    0.9216481515E-02    0.1886361092E+00    0.2804995891E-03    0.4796381788E+00
    0.2900000000E+05    0.6770526991E+00    0.8915657659E-02    0.1887220505E+00    0.2703146486E-03    0.4801678998E+00
    0.3100000000E+05    0.6772473670E+00    0.8643308690E-02    0.1887957722E+00    0.2611312533E-03    0.4806465888E+00
    0.3300000000E+05    0.6774184425E+00    0.8395177321E-02    0.1888594281E+00    0.2527960196E-03    0.4810821323E+00
    0.3500000000E+05    0.6775699707E+00    0.8167850178E-02    0.1889146993E+00    0.2451865162E-03    0.4814808023E+00
    0.3700000000E+05    0.6777051219E+00    0.7958553790E-02    0.1889629170E+00    0.2382036739E-03    0.4818476586E+00
    0.3900000000E+05    0.6778264161E+00    0.7765007869E-02    0.1890051493E+00    0.2317663525E-03    0.4821868340E+00
    0.4100000000E+05    0.6779358815E+00    0.7585317776E-02    0.1890422625E+00    0.2258073757E-03    0.4825017429E+00
    0.4300000000E+05    0.6780351686E+00    0.7417894353E-02    0.1890749673E+00    0.2202705876E-03    0.4827952338E+00
    0.4500000000E+05    0.6781256347E+00    0.7261393263E-02    0.1891038512E+00    0.2151086340E-03    0.4830697054E+00
    0.4700000000E+05    0.6782084059E+00    0.7114668439E-02    0.1891294049E+00    0.2102812653E-03    0.4833271933E+00
    0.4900000000E+05    0.6782844246E+00    0.6976735938E-02    0.1891520408E+00    0.2057540234E-03    0.4835694388E+00
    0.1000000000E+05    0.6713197851E+00    0.1450492130E-01    0.1864875670E+00    0.4660320413E-03    0.4699782502E+00
    0.3000000000E+05    0.6771532771E+00    0.8776212562E-02    0.1887602914E+00    0.2656081775E-03    0.4804130868E+00
    0.5000000000E+05    0.6783201549E+00    0.6910796541E-02    0.1891623757E+00    0.2035935077E-03    0.4836853224E+00
    0.7000000000E+05    0.6788205300E+00    0.5897120760E-02    0.1892778745E+00    0.1706994002E-03    0.4854771555E+00
    0.9000000000E+05    0.6790987151E+00    0.5235629528E-02    0.1893023939E+00    0.1495795925E-03    0.4866643674E+00
    0.1100000000E+06    0.6792758750E+00    0.4759889644E-02    0.1892896242E+00    0.1345759175E-03    0.4875328329E+00
    0.1300000000E+06    0.6793986165E+00    0.4396306766E-02    0.1892596207E+00    0.1232224062E-03    0.4882080302E+00
    0.1500000000E+06    0.6794886936E+00    0.4106608012E-02    0.1892212606E+00    0.1142508327E-03    0.4887550984E+00
    0.1700000000E+06    0.6795576260E+00    0.3868646569E-02    0.1891789130E+00    0.1069339698E-03    0.4892117732E+00
    0.1900000000E+06    0.6796120846E+00    0.3668593517E-02    0.1891348821E+00    0.1008212005E-03    0.4896016847E+00
    0.2100000000E+06    0.6796562005E+00    0.3497305538E-02    0.1890904386E+00    0.9561657018E-04    0.4899405167E+00
    0.2300000000E+06    0.6796926685E+00    0.3348461394E-02    0.1890463008E+00    0.9111667348E-04    0.4902391612E+00
    0.2500000000E+06    0.6797233215E+00    0.3217531439E-02    0.1890028770E+00    0.8717652350E-04    0.4905054617E+00
    0.2700000000E+06    0.6797494501E+00    0.3101172886E-02    0.1889603949E+00    0.8368963415E-04    0.4907452366E+00
    0.2900000000E+06    0.6797719887E+00    0.2996857342E-02    0.1889189744E+00    0.8057581445E-04    0.4909629103E+00
    0.3100000000E+06    0.6797916310E+00    0.2902632017E-02    0.1888786698E+00    0.7777337873E-04    0.4911619187E+00
    0.3300000000E+06    0.6798089028E+00    0.2816961330E-02    0.1888394950E+00    0.7523400158E-04    0.4913449783E+00
    0.3500000000E+06    0.6798242095E+00    0.2738618766E-02    0.1888014394E+00    0.7291921849E-04    0.4915142708E+00
    0.3700000000E+06    0.6798378693E+00    0.2666611152E-02    0.1887644771E+00    0.7079798433E-04    0.4916715725E+00
    0.3900000000E+06    0.6798501349E+00    0.2600124456E-02    0.1887285738E+00    0.6884493176E-04    0.4918183475E+00
    0.4100000000E+06    0.6798612100E+00    0.2538484230E-02    0.1886936900E+00    0.6703910408E-04    0.4919558149E+00
    0.4300000000E+06    0.6798712604E+00    0.2481126238E-02    0.1886597842E+00    0.6536301722E-04    0.4920850005E+00
    0.4500000000E+06    0.6798804222E+00    0.2427574305E-02    0.1886268143E+00    0.6380195433E-04    0.4922067744E+00
    0.4700000000E+06    0.6798888086E+00    0.2377423382E-02    0.1885947385E+00    0.6234342781E-04    0.4923218806E+00
    0.4900000000E+06    0.6798965145E+00    0.2330326429E-02    0.1885635162E+00    0.6097676377E-04    0.4924309598E+00
    0.1000000000E+06    0.6791961365E+00    0.4980334504E-02    0.1892990220E+00    0.1415080256E-03    0.4871285558E+00
    0.3000000000E+06    0.6797821357E+00    0.2948587695E-02    0.1888986810E+00    0.7913895977E-04    0.4910645636E+00
    0.5000000000E+06    0.6799001376E+00    0.2307828028E-02    0.1885482129E+00    0.6032495914E-04    0.4924834158E+00
    0.7000000000E+06    0.6799509769E+00    0.1963275933E-02    0.1882784360E+00    0.5043292473E-04    0.4933189900E+00
    0.9000000000E+06    0.6799793496E+00    0.1739709256E-02    0.1880605210E+00    0.4411262416E-04    0.4939009196E+00
    0.1100000000E+07    0.6799974788E+00    0.1579513383E-02    0.1878778068E+00    0.3963701927E-04    0.4943430238E+00
    0.1300000000E+07    0.6800100770E+00    0.1457405408E-02    0.1877204342E+00    0.3625808219E-04    0.4946973374E+00
    0.1500000000E+07    0.6800193481E+00    0.1360304553E-02    0.1875821603E+00    0.3359274801E-04    0.4949917593E+00
    0.1700000000E+07    0.6800264613E+00    0.1280670199E-02    0.1874587968E+00    0.3142205609E-04    0.4952428907E+00
    0.1900000000E+07    0.6800320946E+00    0.1213807644E-02    0.1873474001E+00    0.2961066707E-04    0.4954613689E+00
    0.2100000000E+07    0.6800366685E+00    0.1156620194E-02    0.1872458232E+00    0.2806987197E-04    0.4956543973E+00
    0.2300000000E+07    0.6800404579E+00    0.1106971119E-02    0.1871524520E+00    0.2673880436E-04    0.4958270684E+00
    0.2500000000E+07    0.6800436498E+00    0.1063331804E-02    0.1870660418E+00    0.2557414029E-04    0.4959831088E+00
    0.2700000000E+07    0.6800463761E+00    0.1024575753E-02    0.1869856129E+00    0.2454409924E-04    0.4961253233E+00
    0.2900000000E+07    0.6800487324E+00    0.9898519600E-03    0.1869103799E+00    0.2362477399E-04    0.4962558735E+00
    0.3100000000E+07    0.6800507899E+00    0.9585038639E-03    0.1868397032E+00    0.2279779159E-04    0.4963764586E+00
    0.3300000000E+07    0.6800526024E+00    0.9300156704E-03    0.1867730554E+00    0.2204877055E-04    0.4964884376E+00
    0.3500000000E+07    0.6800542116E+00    0.9039757527E-03    0.1867099960E+00    0.2136627256E-04    0.4965929135E+00
    0.3700000000E+07    0.6800556502E+00    0.8800510532E-03    0.1866501534E+00    0.2074107198E-04    0.4966907932E+00
    0.3900000000E+07    0.6800569441E+00    0.8579687802E-03    0.1865932114E+00    0.2016563509E-04    0.4967828313E+00
    0.4100000000E+07    0.6800581144E+00    0.8375030635E-03    0.1865388983E+00    0.1963374163E-04    0.4968696617E+00
    0.4300000000E+07    0.6800591782E+00    0.8184650537E-03    0.1864869791E+00    0.1914020476E-04    0.4969518220E+00
    0.4500000000E+07    0.6800601494E+00    0.8006954621E-03    0.1864372493E+00    0.1868066072E-04    0.4970297721E+00
    0.4700000000E+07    0.6800610399E+00    0.7840588607E-03    0.1863895294E+00    0.1825140836E-04    0.4971039079E+00
    0.4900000000E+07    0.6800618593E+00    0.7684392705E-03    0.1863436615E+00    0.1784928546E-04    0.4971745730E+00
    0.1000000000E+07    0.6799893119E+00    0.1653683626E-02    0.1879654911E+00    0.4170339978E-04    0.4941353891E+00
    0.3000000000E+07    0.6800497948E+00    0.9737909920E-03    0.1868745072E+00    0.2320071815E-04    0.4963173199E+00
    0.5000000000E+07    0.6800622451E+00    0.7609790641E-03    0.1863213777E+00    0.1765753247E-04    0.4972086992E+00
    0.7000000000E+07    0.6800676940E+00    0.6468359464E-03    0.1859460170E+00    0.1474994055E-04    0.4977651889E+00
    0.9000000000E+07    0.6800707755E+00    0.5728776380E-03    0.1856609964E+00    0.1289466852E-04    0.4981675747E+00
    0.1100000000E+08    0.6800727676E+00    0.5199326398E-03    0.1854309405E+00    0.1158205264E-04    0.4984817041E+00
    0.1300000000E+08    0.6800741668E+00    0.4796030931E-03    0.1852379329E+00    0.1059170692E-04    0.4987388121E+00
    0.1500000000E+08    0.6800752066E+00    0.4475495194E-03    0.1850716215E+00    0.9810900371E-05    0.4989561245E+00
    0.1700000000E+08    0.6800760118E+00    0.4212726666E-03    0.1849254757E+00    0.9175250703E-05    0.4991441274E+00
    0.1900000000E+08    0.6800766551E+00    0.3992176544E-03    0.1847951075E+00    0.8644990010E-05    0.4993096688E+00
    0.2100000000E+08    0.6800771817E+00    0.3803594635E-03    0.1846774248E+00    0.8194066441E-05    0.4994574618E+00
    0.2300000000E+08    0.6800776215E+00    0.3639911736E-03    0.1845701659E+00    0.7804613053E-05    0.4995908864E+00
    0.2500000000E+08    0.6800779947E+00    0.3496072654E-03    0.1844716261E+00    0.7463917338E-05    0.4997124467E+00
    0.2700000000E+08    0.6800783158E+00    0.3368353359E-03    0.1843804882E+00    0.7162657116E-05    0.4998240489E+00
